fpr,tpr
0.0,0.0
3.2382318606394537e-06,0.0
8.095579651598635e-06,0.0
8.095579651598635e-06,2.6674491184080665e-05
1.1333811512238087e-05,2.6674491184080665e-05
1.7810275233516995e-05,2.6674491184080665e-05
2.104850709415645e-05,2.6674491184080665e-05
2.104850709415645e-05,5.334898236816133e-05
2.2667623024476175e-05,5.334898236816133e-05
2.2667623024476175e-05,0.00013337245592040333
2.590585488511563e-05,0.00013337245592040333
2.590585488511563e-05,0.00016004694710448398
2.9144086745755084e-05,0.00016004694710448398
2.9144086745755084e-05,0.00021339592947264532
3.238231860639454e-05,0.00021339592947264532
3.238231860639454e-05,0.00024007042065672597
3.7239666397353715e-05,0.00024007042065672597
3.7239666397353715e-05,0.00026674491184080666
3.885878232767344e-05,0.00026674491184080666
3.885878232767344e-05,0.0002934194030248873
4.3716130118632624e-05,0.0002934194030248873
4.3716130118632624e-05,0.00032009389420896797
4.533524604895235e-05,0.00032009389420896797
4.533524604895235e-05,0.00034676838539304865
4.6954361979272075e-05,0.00034676838539304865
4.6954361979272075e-05,0.00040011736776120996
5.019259383991153e-05,0.00040011736776120996
5.019259383991153e-05,0.00042679185894529064
5.181170977023126e-05,0.00042679185894529064
5.181170977023126e-05,0.0005334898236816133
5.828817349151017e-05,0.0005334898236816133
5.828817349151017e-05,0.0005601643148656939
6.152640535214963e-05,0.0005601643148656939
6.152640535214963e-05,0.0007468857531542586
6.314552128246934e-05,0.0007468857531542586
6.314552128246934e-05,0.0007735602443383392
6.63837531431088e-05,0.0007735602443383392
6.63837531431088e-05,0.0008002347355224199
6.962198500374825e-05,0.0008002347355224199
6.962198500374825e-05,0.0008269092267065006
7.124110093406798e-05,0.0008269092267065006
7.124110093406798e-05,0.0008535837178905813
7.447933279470743e-05,0.0008535837178905813
7.447933279470743e-05,0.0009336071914428232
7.609844872502716e-05,0.0009336071914428232
7.609844872502716e-05,0.0009602816826269039
7.933668058566661e-05,0.0009602816826269039
7.933668058566661e-05,0.0010669796473632266
8.257491244630607e-05,0.0010669796473632266
8.257491244630607e-05,0.0011203286297313878
8.41940283766258e-05,0.0011203286297313878
8.41940283766258e-05,0.0011470031209154686
8.905137616758498e-05,0.0011470031209154686
8.905137616758498e-05,0.0012270265944677105
9.228960802822443e-05,0.0012270265944677105
9.228960802822443e-05,0.0012537010856517913
9.552783988886388e-05,0.0012537010856517913
9.552783988886388e-05,0.0012803755768358719
0.00010362341954046252,0.0012803755768358719
0.00010362341954046252,0.0013603990503881138
0.00010524253547078225,0.0013603990503881138
0.00010524253547078225,0.0014670970151244365
0.00010686165140110197,0.0014670970151244365
0.00010686165140110197,0.0015471204886766785
0.00011009988326174142,0.0015471204886766785
0.00011009988326174142,0.0016804929445970818
0.00011171899919206115,0.0016804929445970818
0.00011171899919206115,0.0018672143828856464
0.00011819546291334005,0.0018672143828856464
0.00011819546291334005,0.0018938888740697272
0.0001214336947739795,0.0018938888740697272
0.0001214336947739795,0.0019205633652538078
0.00012305281070429925,0.0019205633652538078
0.00012305281070429925,0.0019472378564378884
0.00012467192663461897,0.0019472378564378884
0.00012467192663461897,0.001973912347621969
0.0001262910425649387,0.001973912347621969
0.00012952927442557815,0.001973912347621969
0.00012952927442557815,0.0020539358211742113
0.00013600573814685706,0.0020539358211742113
0.00013600573814685706,0.0021072848035423725
0.00013762485407717678,0.0021072848035423725
0.00013762485407717678,0.0021606337859105336
0.0001392439700074965,0.0021606337859105336
0.0001392439700074965,0.0021873082770946144
0.00014086308593781624,0.0021873082770946144
0.00014086308593781624,0.0022406572594627755
0.00014248220186813596,0.0022406572594627755
0.00014248220186813596,0.002320680733015018
0.00014410131779845568,0.002320680733015018
0.00014410131779845568,0.00240070420656726
0.00014733954965909514,0.00240070420656726
0.00014733954965909514,0.002454053188935421
0.0001505777815197346,0.002454053188935421
0.0001505777815197346,0.002480727680119502
0.00015219689745005433,0.002480727680119502
0.00015219689745005433,0.0025074021713035826
0.00015381601338037404,0.0025074021713035826
0.00015381601338037404,0.002614100136039905
0.0001570542452410135,0.002614100136039905
0.0001570542452410135,0.0026407746272239857
0.00016029247710165295,0.0026407746272239857
0.00016029247710165295,0.002694123609592147
0.00016514982489261213,0.002694123609592147
0.00016514982489261213,0.0027207981007762276
0.00016676894082293188,0.0027207981007762276
0.00016676894082293188,0.0028274960655125503
0.0001683880567532516,0.0028274960655125503
0.0001683880567532516,0.0028808450478807115
0.00017810275233516996,0.0028808450478807115
0.00017810275233516996,0.0029075195390647923
0.00017972186826548968,0.0029075195390647923
0.00017972186826548968,0.003014217503801115
0.00018296010012612912,0.003014217503801115
0.00018296010012612912,0.003067566486169276
0.00018457921605644886,0.003067566486169276
0.00018457921605644886,0.003094240977353357
0.00018619833198676858,0.003094240977353357
0.00018619833198676858,0.0032009389420896797
0.0001878174479170883,0.0032009389420896797
0.0001878174479170883,0.003254287924457841
0.00018943656384740805,0.003254287924457841
0.00018943656384740805,0.0033876603803782443
0.00019267479570804749,0.0033876603803782443
0.00019267479570804749,0.0034410093627464055
0.00019429391163836723,0.0034410093627464055
0.00019429391163836723,0.0034676838539304863
0.00019591302756868695,0.0034676838539304863
0.00019591302756868695,0.0035210328362986474
0.00019753214349900667,0.0035210328362986474
0.00019753214349900667,0.003574381818666809
0.00020077037535964613,0.003574381818666809
0.00020077037535964613,0.00360105630985089
0.00020562772315060532,0.00360105630985089
0.00020562772315060532,0.003707754274587212
0.00020724683908092504,0.003707754274587212
0.00020724683908092504,0.003734428765771293
0.00020886595501124475,0.003734428765771293
0.00020886595501124475,0.0038411267305076156
0.0002104850709415645,0.0038411267305076156
0.0002104850709415645,0.0039211502040598575
0.00021210418687188422,0.0039211502040598575
0.00021210418687188422,0.0040011736776120995
0.00021372330280220394,0.0040011736776120995
0.00021372330280220394,0.004054522659980261
0.00021534241873252366,0.004054522659980261
0.00021534241873252366,0.004081197151164341
0.0002169615346628434,0.004081197151164341
0.0002169615346628434,0.004134546133532503
0.00021858065059316312,0.004134546133532503
0.00021858065059316312,0.004161220624716583
0.00022019976652348284,0.004161220624716583
0.00022019976652348284,0.004294593080636987
0.00022181888245380259,0.004294593080636987
0.00022181888245380259,0.004321267571821067
0.00022505711431444202,0.004321267571821067
0.00022505711431444202,0.004401291045373309
0.00022667623024476174,0.004401291045373309
0.00022667623024476174,0.00442796553655739
0.0002282953461750815,0.00442796553655739
0.0002282953461750815,0.004454640027741471
0.0002299144621054012,0.004454640027741471
0.0002299144621054012,0.004481314518925551
0.00023153357803572093,0.004481314518925551
0.00023153357803572093,0.004534663501293713
0.00023315269396604067,0.004534663501293713
0.00023315269396604067,0.004641361466030036
0.0002363909258266801,0.004641361466030036
0.0002363909258266801,0.0046947104483981966
0.0002412482736176393,0.0046947104483981966
0.0002412482736176393,0.00480140841313452
0.00024448650547827873,0.00480140841313452
0.00024448650547827873,0.0048280829043186
0.0002461056214085985,0.0048280829043186
0.0002461056214085985,0.004908106377870842
0.0002477247373389182,0.004908106377870842
0.0002477247373389182,0.004988129851423084
0.00025096296919955766,0.004988129851423084
0.00025096296919955766,0.0050414788337912455
0.0002525820851298774,0.0050414788337912455
0.0002525820851298774,0.005068153324975326
0.0002590585488511563,0.005068153324975326
0.0002590585488511563,0.0051215023073434875
0.000260677664781476,0.0051215023073434875
0.000260677664781476,0.005174851289711649
0.00026391589664211546,0.005174851289711649
0.00026391589664211546,0.005281549254447971
0.0002655350125724352,0.005281549254447971
0.0002655350125724352,0.005334898236816133
0.0002671541285027549,0.005334898236816133
0.0002671541285027549,0.005548294166288778
0.0002703923603633944,0.005548294166288778
0.0002703923603633944,0.005681666622209181
0.00027363059222403383,0.005681666622209181
0.00027363059222403383,0.005708341113393262
0.00027524970815435355,0.005708341113393262
0.00027524970815435355,0.005788364586945504
0.00027686882408467327,0.005788364586945504
0.00027686882408467327,0.0058150390781295845
0.0002833452878059522,0.0058150390781295845
0.0002833452878059522,0.005841713569313666
0.0002849644037362719,0.005841713569313666
0.0002849644037362719,0.005948411534049988
0.00028658351966659164,0.005948411534049988
0.00028658351966659164,0.006215156445890794
0.00028820263559691135,0.006215156445890794
0.00028820263559691135,0.006268505428258956
0.0002946790993181903,0.006268505428258956
0.0002946790993181903,0.006321854410627117
0.00029629821524851,0.006321854410627117
0.00029629821524851,0.006348528901811198
0.0002979173311788297,0.006348528901811198
0.0002979173311788297,0.006401877884179359
0.00029953644710914944,0.006401877884179359
0.00029953644710914944,0.006481901357731601
0.0003011555630394692,0.006481901357731601
0.0003011555630394692,0.0065885993224679236
0.00030439379490010865,0.0065885993224679236
0.00030439379490010865,0.006775320760756489
0.0003076320267607481,0.006775320760756489
0.0003076320267607481,0.006801995251940569
0.0003092511426910678,0.006801995251940569
0.0003092511426910678,0.007042065672597295
0.000314108490482027,0.007042065672597295
0.000314108490482027,0.007148763637333618
0.00031734672234266646,0.007148763637333618
0.00031734672234266646,0.007308810584438102
0.0003189658382729862,0.007308810584438102
0.0003189658382729862,0.007522206513910747
0.0003238231860639454,0.007522206513910747
0.0003238231860639454,0.007548881005094828
0.0003270614179245848,0.007548881005094828
0.0003270614179245848,0.00762890447864707
0.00032868053385490454,0.00762890447864707
0.00032868053385490454,0.007762276934567473
0.00033029964978522426,0.007762276934567473
0.00033029964978522426,0.007895649390487876
0.000331918765715544,0.007895649390487876
0.000331918765715544,0.008002347355224199
0.00033515699757618347,0.008002347355224199
0.00033515699757618347,0.008082370828776442
0.0003367761135065032,0.008082370828776442
0.0003367761135065032,0.008135719811144602
0.0003383952294368229,0.008135719811144602
0.0003383952294368229,0.008162394302328683
0.00034163346129746235,0.008162394302328683
0.00034163346129746235,0.008322441249433167
0.00034325257722778207,0.008322441249433167
0.00034325257722778207,0.008349115740617247
0.00034487169315810184,0.008349115740617247
0.00034487169315810184,0.00845581370535357
0.00034649080908842156,0.00845581370535357
0.00034649080908842156,0.008562511670089893
0.0003481099250187413,0.008562511670089893
0.0003481099250187413,0.008642535143642134
0.000349729040949061,0.008642535143642134
0.000349729040949061,0.008669209634826217
0.0003513481568793807,0.008669209634826217
0.0003513481568793807,0.008749233108378458
0.00035296727280970043,0.008749233108378458
0.00035296727280970043,0.008775907599562538
0.00035458638874002015,0.008775907599562538
0.00035458638874002015,0.00885593107311478
0.0003562055046703399,0.00885593107311478
0.0003562055046703399,0.008935954546667022
0.00035782462060065964,0.008935954546667022
0.00035782462060065964,0.008962629037851102
0.00035944373653097936,0.008962629037851102
0.00035944373653097936,0.009202699458507829
0.0003643010843219385,0.009202699458507829
0.0003643010843219385,0.00922937394969191
0.00036592020025225824,0.00922937394969191
0.00036592020025225824,0.009282722932060072
0.00036915843211289773,0.009282722932060072
0.00036915843211289773,0.009442769879164556
0.00037239666397353717,0.009442769879164556
0.00037239666397353717,0.009469444370348636
0.0003740157799038569,0.009469444370348636
0.0003740157799038569,0.009496118861532716
0.0003756348958341766,0.009496118861532716
0.0003756348958341766,0.009576142335084959
0.0003772540117644964,0.009576142335084959
0.0003772540117644964,0.00968284029982128
0.0003788731276948161,0.00968284029982128
0.0003788731276948161,0.009789538264557604
0.0003804922436251358,0.009789538264557604
0.0003804922436251358,0.009842887246925764
0.00038211135955545553,0.009842887246925764
0.00038211135955545553,0.009869561738109845
0.00038373047548577525,0.009869561738109845
0.00038373047548577525,0.009896236229293927
0.00038534959141609497,0.009896236229293927
0.00038534959141609497,0.010002934194030248
0.0003869687073464147,0.010002934194030248
0.0003902069392070542,0.010002934194030248
0.0003902069392070542,0.01002960868521433
0.0003918260551373739,0.01002960868521433
0.0003918260551373739,0.010162981141134732
0.00039506428699801334,0.010162981141134732
0.00039506428699801334,0.010216330123502895
0.0003983025188586528,0.010216330123502895
0.0003983025188586528,0.010243004614686975
0.000403159866649612,0.010243004614686975
0.000403159866649612,0.010296353597055136
0.0004047789825799317,0.010296353597055136
0.0004047789825799317,0.010349702579423298
0.0004063980985102514,0.010349702579423298
0.0004063980985102514,0.01045640054415962
0.00040801721444057114,0.01045640054415962
0.00040801721444057114,0.010483075035343702
0.00040963633037089086,0.010483075035343702
0.00040963633037089086,0.010509749526527782
0.00041125544630121063,0.010509749526527782
0.00041125544630121063,0.01082984342073675
0.00041287456223153035,0.01082984342073675
0.00041287456223153035,0.011043239350209394
0.00041449367816185007,0.011043239350209394
0.00041449367816185007,0.011123262823761637
0.0004161127940921698,0.011123262823761637
0.0004161127940921698,0.011149937314945717
0.0004177319100224895,0.011149937314945717
0.0004177319100224895,0.011176611806129798
0.00041935102595280923,0.011176611806129798
0.00041935102595280923,0.011336658753234282
0.000420970141883129,0.011336658753234282
0.000420970141883129,0.011390007735602444
0.00042420837374376844,0.011390007735602444
0.00042420837374376844,0.011443356717970605
0.0004306848374650473,0.011443356717970605
0.0004306848374650473,0.011576729173891008
0.0004339230693256868,0.011576729173891008
0.0004339230693256868,0.011603403665075089
0.0004355421852560065,0.011603403665075089
0.0004355421852560065,0.011683427138627332
0.00043716130118632624,0.011683427138627332
0.00043716130118632624,0.011763450612179573
0.00043878041711664596,0.011763450612179573
0.00043878041711664596,0.011976846541652217
0.0004420186489772854,0.011976846541652217
0.0004420186489772854,0.01205687001520446
0.00044363776490760517,0.01205687001520446
0.00044363776490760517,0.012270265944677105
0.0004452568808379249,0.012270265944677105
0.0004452568808379249,0.012296940435861187
0.0004468759967682446,0.012296940435861187
0.0004468759967682446,0.012590359838886074
0.00045173334455920377,0.012590359838886074
0.00045173334455920377,0.012617034330070154
0.0004533524604895235,0.012617034330070154
0.0004533524604895235,0.012643708821254235
0.00045497157641984326,0.012643708821254235
0.00045497157641984326,0.012697057803622395
0.0004598289242108024,0.012697057803622395
0.0004598289242108024,0.013177198644935847
0.00046144804014112213,0.013177198644935847
0.00046144804014112213,0.01320387313611993
0.00046306715607144185,0.01320387313611993
0.00046306715607144185,0.013470618047960735
0.0004646862720017616,0.013470618047960735
0.0004646862720017616,0.013550641521512977
0.00046630538793208134,0.013550641521512977
0.00046630538793208134,0.013603990503881138
0.00046792450386240106,0.013603990503881138
0.00046792450386240106,0.01368401397743338
0.0004695436197927208,0.01368401397743338
0.0004695436197927208,0.013710688468617461
0.0004711627357230405,0.013710688468617461
0.0004711627357230405,0.013817386433353784
0.0004727818516533602,0.013817386433353784
0.0004727818516533602,0.013870735415721945
0.0004760200835139997,0.013870735415721945
0.0004760200835139997,0.014030782362826429
0.00047763919944431943,0.014030782362826429
0.00047763919944431943,0.01408413134519459
0.00047925831537463915,0.01408413134519459
0.00047925831537463915,0.014164154818746832
0.00048087743130495887,0.014164154818746832
0.00048087743130495887,0.014190829309930913
0.0004824965472352786,0.014190829309930913
0.0004824965472352786,0.014217503801114993
0.0004841156631655983,0.014217503801114993
0.0004841156631655983,0.01451092320413988
0.000485734779095918,0.01451092320413988
0.000485734779095918,0.014564272186508043
0.0004873538950262378,0.014564272186508043
0.0004873538950262378,0.014590946677692123
0.0004889730109565575,0.014590946677692123
0.0004889730109565575,0.014617621168876204
0.0004938303587475167,0.014617621168876204
0.0004938303587475167,0.014724319133612527
0.0004954494746778364,0.014724319133612527
0.0004954494746778364,0.014750993624796607
0.0005003068224687956,0.014750993624796607
0.0005003068224687956,0.014831017098348848
0.0005100215180507139,0.014831017098348848
0.0005100215180507139,0.014964389554269252
0.0005132597499113534,0.014964389554269252
0.0005132597499113534,0.015044413027821495
0.0005164979817719929,0.015044413027821495
0.0005164979817719929,0.015097762010189655
0.0005181170977023126,0.015097762010189655
0.0005181170977023126,0.015151110992557818
0.0005197362136326323,0.015151110992557818
0.0005197362136326323,0.015337832430846382
0.000521355329562952,0.015337832430846382
0.000521355329562952,0.015391181413214543
0.0005229744454932718,0.015391181413214543
0.0005229744454932718,0.015497879377950866
0.0005245935614235915,0.015497879377950866
0.0005245935614235915,0.015551228360319027
0.0005278317932842309,0.015551228360319027
0.0005278317932842309,0.015577902851503107
0.0005294509092145506,0.015577902851503107
0.0005294509092145506,0.015604577342687189
0.0005310700251448704,0.015604577342687189
0.0005310700251448704,0.01565792632505535
0.0005326891410751901,0.01565792632505535
0.0005326891410751901,0.016031369201632478
0.0005359273729358296,0.016031369201632478
0.0005359273729358296,0.01608471818400064
0.0005375464888661494,0.01608471818400064
0.0005375464888661494,0.016164741657552884
0.0005391656047964691,0.016164741657552884
0.0005391656047964691,0.016244765131105125
0.0005407847207267888,0.016244765131105125
0.0005407847207267888,0.016271439622289205
0.0005440229525874282,0.016271439622289205
0.0005440229525874282,0.016298114113473285
0.0005456420685177479,0.016298114113473285
0.0005456420685177479,0.01645816106057777
0.0005521185322390268,0.01645816106057777
0.0005521185322390268,0.016538184534130012
0.0005537376481693465,0.016538184534130012
0.0005537376481693465,0.016618208007682253
0.000556975880029986,0.016618208007682253
0.000556975880029986,0.016671556990050414
0.0005585949959603058,0.016671556990050414
0.0005585949959603058,0.01699165088425938
0.0005602141118906255,0.01699165088425938
0.0005602141118906255,0.017018325375443462
0.0005618332278209452,0.017018325375443462
0.0005618332278209452,0.017178372322547947
0.000563452343751265,0.017178372322547947
0.000563452343751265,0.017231721304916108
0.0005683096915422241,0.017231721304916108
0.0005683096915422241,0.01731174477846835
0.0005699288074725438,0.01731174477846835
0.0005699288074725438,0.017418442743204674
0.0005715479234028636,0.017418442743204674
0.0005715479234028636,0.017471791725572835
0.0005731670393331833,0.017471791725572835
0.0005731670393331833,0.017525140707940996
0.000574786155263503,0.017525140707940996
0.000574786155263503,0.017551815199125076
0.0005764052711938227,0.017551815199125076
0.0005764052711938227,0.01768518765504548
0.0005796435030544623,0.01768518765504548
0.0005796435030544623,0.017871909093334044
0.000581262618984782,0.017871909093334044
0.000581262618984782,0.017898583584518124
0.0005828817349151017,0.017898583584518124
0.0005828817349151017,0.017951932566886288
0.0005845008508454214,0.017951932566886288
0.0005845008508454214,0.01797860705807037
0.0005861199667757411,0.01797860705807037
0.0005861199667757411,0.01811197951399077
0.0005893581986363806,0.01811197951399077
0.0005893581986363806,0.01813865400517485
0.0005909773145667003,0.01813865400517485
0.0005909773145667003,0.018352049934647497
0.00059259643049702,0.018352049934647497
0.00059259643049702,0.018378724425831577
0.00059259643049702,0.018432073408199738
0.0005942155464273397,0.018432073408199738
0.0005942155464273397,0.0184854223905679
0.0005958346623576594,0.0184854223905679
0.0005958346623576594,0.01853877137293606
0.0005974537782879792,0.01853877137293606
0.0005974537782879792,0.018618794846488304
0.0005990728942182989,0.018618794846488304
0.0005990728942182989,0.018752167302408706
0.0006006920101486186,0.018752167302408706
0.0006006920101486186,0.018938888740697272
0.0006023111260789384,0.018938888740697272
0.0006023111260789384,0.019018912214249513
0.0006039302420092581,0.019018912214249513
0.0006039302420092581,0.019125610178985834
0.0006071684738698976,0.019125610178985834
0.0006071684738698976,0.01920563365253808
0.000610406705730537,0.01920563365253808
0.000610406705730537,0.01933900610845848
0.0006120258216608567,0.01933900610845848
0.0006120258216608567,0.01939235509082664
0.0006136449375911765,0.01939235509082664
0.0006136449375911765,0.019605751020299288
0.0006152640535214962,0.019605751020299288
0.0006152640535214962,0.019632425511483368
0.0006168831694518159,0.019632425511483368
0.0006168831694518159,0.01965910000266745
0.0006185022853821356,0.01968577449385153
0.000621740517242775,0.01968577449385153
0.000621740517242775,0.01971244898503561
0.0006233596331730949,0.01971244898503561
0.0006233596331730949,0.019765797967403773
0.0006249787491034146,0.019765797967403773
0.0006249787491034146,0.019792472458587854
0.0006265978650337343,0.019792472458587854
0.0006265978650337343,0.019819146949771934
0.0006298360968943738,0.019819146949771934
0.0006298360968943738,0.019899170423324175
0.0006346934446853329,0.019899170423324175
0.0006346934446853329,0.019925844914508255
0.0006363125606156526,0.019925844914508255
0.0006363125606156526,0.02005921737042866
0.0006379316765459723,0.02005921737042866
0.0006379316765459723,0.020192589826349062
0.0006395507924762921,0.020192589826349062
0.0006395507924762921,0.02037931126463763
0.0006411699084066118,0.02037931126463763
0.0006411699084066118,0.02048600922937395
0.0006427890243369315,0.02048600922937395
0.0006427890243369315,0.02053935821174211
0.0006444081402672512,0.02053935821174211
0.0006444081402672512,0.020726079650030677
0.000646027256197571,0.020726079650030677
0.000646027256197571,0.02085945210595108
0.0006476463721278908,0.02085945210595108
0.0006476463721278908,0.021152871508975966
0.0006492654880582105,0.021152871508975966
0.0006492654880582105,0.021179546000160046
0.0006525037199188499,0.021179546000160046
0.0006525037199188499,0.021206220491344126
0.0006541228358491696,0.021206220491344126
0.0006541228358491696,0.021366267438448612
0.0006557419517794894,0.021366267438448612
0.0006557419517794894,0.021392941929632692
0.0006573610677098091,0.021392941929632692
0.0006573610677098091,0.021446290912000853
0.0006589801836401288,0.021446290912000853
0.0006589801836401288,0.021472965403184933
0.0006605992995704485,0.021472965403184933
0.0006605992995704485,0.021526314385553094
0.000663837531431088,0.021526314385553094
0.000663837531431088,0.02157966336792126
0.0006654566473614077,0.02157966336792126
0.0006654566473614077,0.02163301235028942
0.0006670757632917275,0.02163301235028942
0.0006670757632917275,0.02168636133265758
0.0006686948792220472,0.02168636133265758
0.0006686948792220472,0.02171303582384166
0.0006703139951523669,0.02171303582384166
0.0006703139951523669,0.02181973378857798
0.0006767904588736458,0.02181973378857798
0.0006767904588736458,0.021846408279762062
0.0006784095748039655,0.021846408279762062
0.0006784095748039655,0.021899757262130226
0.0006800286907342853,0.021899757262130226
0.0006800286907342853,0.021979780735682467
0.000681647806664605,0.021979780735682467
0.000681647806664605,0.022006455226866548
0.0006832669225949247,0.022006455226866548
0.0006832669225949247,0.022219851156339194
0.0006865051544555641,0.022219851156339194
0.0006865051544555641,0.022353223612259596
0.0006881242703858838,0.022353223612259596
0.0006881242703858838,0.022566619541732242
0.0006897433863162037,0.022566619541732242
0.0006897433863162037,0.022673317506468563
0.0006962198500374826,0.022673317506468563
0.0006962198500374826,0.022726666488836724
0.0006978389659678023,0.022726666488836724
0.0006978389659678023,0.022753340980020804
0.000699458081898122,0.022753340980020804
0.000699458081898122,0.02288671343594121
0.0007010771978284417,0.02288671343594121
0.0007010771978284417,0.02291338792712529
0.0007026963137587614,0.02291338792712529
0.0007026963137587614,0.023073434874229776
0.0007059345456194009,0.023073434874229776
0.0007059345456194009,0.023233481821334258
0.0007075536615497206,0.023233481821334258
0.0007075536615497206,0.023260156312518338
0.0007107918934103601,0.023260156312518338
0.0007107918934103601,0.02328683080370242
0.0007124110093406798,0.02328683080370242
0.0007124110093406798,0.02334017978607058
0.0007140301252709996,0.02334017978607058
0.0007140301252709996,0.023446877750806904
0.0007156492412013193,0.023446877750806904
0.0007156492412013193,0.023526901224359145
0.000717268357131639,0.023526901224359145
0.000717268357131639,0.023553575715543226
0.0007188874730619587,0.023553575715543226
0.0007188874730619587,0.023633599189095467
0.0007221257049225982,0.023633599189095467
0.0007221257049225982,0.023660273680279547
0.0007237448208529179,0.023660273680279547
0.0007237448208529179,0.02368694817146363
0.0007253639367832376,0.02368694817146363
0.0007253639367832376,0.02374029715383179
0.0007269830527135573,0.02374029715383179
0.0007269830527135573,0.023766971645015872
0.0007302212845741968,0.023766971645015872
0.0007302212845741968,0.023793646136199952
0.0007318404005045165,0.023793646136199952
0.0007318404005045165,0.023820320627384033
0.0007334595164348363,0.023820320627384033
0.0007334595164348363,0.023873669609752193
0.000735078632365156,0.023873669609752193
0.000735078632365156,0.023900344100936274
0.0007383168642257955,0.023900344100936274
0.0007383168642257955,0.023927018592120354
0.0007399359801561152,0.023927018592120354
0.0007399359801561152,0.02403371655685668
0.0007415550960864349,0.02403371655685668
0.0007415550960864349,0.024273786977513406
0.0007431742120167546,0.024273786977513406
0.0007431742120167546,0.024353810451065647
0.0007447933279470743,0.024353810451065647
0.0007447933279470743,0.024433833924617888
0.000746412443877394,0.024433833924617888
0.000746412443877394,0.024460508415801968
0.0007480315598077138,0.024460508415801968
0.0007480315598077138,0.02454053188935421
0.0007512697916683532,0.02454053188935421
0.0007512697916683532,0.024647229854090534
0.0007577462553896322,0.024647229854090534
0.0007577462553896322,0.024673904345274614
0.0007593653713199519,0.024673904345274614
0.0007593653713199519,0.024700578836458695
0.0007609844872502716,0.024700578836458695
0.0007609844872502716,0.02491397476593134
0.0007642227191109111,0.02491397476593134
0.0007642227191109111,0.025100696204219904
0.0007658418350412308,0.025100696204219904
0.0007658418350412308,0.02523406866014031
0.0007674609509715505,0.02523406866014031
0.0007674609509715505,0.02536744111606071
0.0007690800669018702,0.02536744111606071
0.0007690800669018702,0.02542079009842887
0.0007706991828321899,0.02542079009842887
0.0007706991828321899,0.025474139080797032
0.0007723182987625097,0.025474139080797032
0.0007723182987625097,0.025634186027901518
0.0007739374146928294,0.025634186027901518
0.0007739374146928294,0.02568753501026968
0.0007755565306231491,0.02568753501026968
0.0007755565306231491,0.02576755848382192
0.0007771756465534689,0.02576755848382192
0.0007771756465534689,0.025847581957374164
0.0007787947624837886,0.025847581957374164
0.0007787947624837886,0.025900930939742325
0.0007820329943444281,0.025900930939742325
0.0007820329943444281,0.025954279922110485
0.0007836521102747478,0.025954279922110485
0.0007836521102747478,0.025980954413294566
0.0007852712262050675,0.025980954413294566
0.0007852712262050675,0.026060977886846807
0.000788509458065707,0.026060977886846807
0.000788509458065707,0.026327722798687614
0.0007901285739960267,0.026327722798687614
0.0007901285739960267,0.02640774627223986
0.0007917476899263464,0.02640774627223986
0.0007917476899263464,0.0264877697457921
0.0007933668058566661,0.0264877697457921
0.0007933668058566661,0.02654111872816026
0.0007966050377173056,0.02654111872816026
0.0007966050377173056,0.02656779321934434
0.0007998432695779451,0.02656779321934434
0.0007998432695779451,0.02659446771052842
0.0008030815014385845,0.02659446771052842
0.0008030815014385845,0.026727840166448826
0.0008047006173689043,0.026727840166448826
0.0008047006173689043,0.02694123609592147
0.0008111770810901831,0.02694123609592147
0.0008111770810901831,0.027074608551841874
0.0008127961970205028,0.027074608551841874
0.0008127961970205028,0.027101283043025955
0.0008144153129508226,0.027101283043025955
0.0008144153129508226,0.027261329990130437
0.0008160344288811423,0.027261329990130437
0.0008160344288811423,0.0273146789724986
0.000817653544811462,0.0273146789724986
0.000817653544811462,0.027554749393155324
0.0008192726607417817,0.027554749393155324
0.0008192726607417817,0.027581423884339405
0.0008208917766721015,0.027581423884339405
0.0008208917766721015,0.02760809837552349
0.000824130008532741,0.02760809837552349
0.000824130008532741,0.02766144735789165
0.0008257491244630607,0.02766144735789165
0.0008257491244630607,0.02771479634025981
0.0008273682403933804,0.02771479634025981
0.0008273682403933804,0.02774147083144389
0.0008306064722540199,0.02774147083144389
0.0008306064722540199,0.02784816879618021
0.0008338447041146593,0.02784816879618021
0.0008338447041146593,0.027874843287364292
0.000835463820044979,0.027874843287364292
0.000835463820044979,0.027954866760916536
0.0008370829359752987,0.027954866760916536
0.0008370829359752987,0.028008215743284697
0.0008387020519056185,0.028008215743284697
0.0008387020519056185,0.028034890234468778
0.0008403211678359382,0.028034890234468778
0.0008403211678359382,0.02811491370802102
0.0008451785156268974,0.02811491370802102
0.0008451785156268974,0.028194937181573263
0.0008484167474875369,0.028194937181573263
0.0008484167474875369,0.028408333111045906
0.0008500358634178566,0.028408333111045906
0.0008500358634178566,0.028595054549334472
0.0008516549793481763,0.028595054549334472
0.0008516549793481763,0.028648403531702633
0.000853274095278496,0.028648403531702633
0.000853274095278496,0.028781775987623034
0.0008548932112088158,0.028781775987623034
0.0008548932112088158,0.02880845047880712
0.0008581314430694552,0.02880845047880712
0.0008581314430694552,0.0288351249699912
0.0008597505589997749,0.0288351249699912
0.0008597505589997749,0.0289684974259116
0.0008613696749300946,0.0289684974259116
0.0008613696749300946,0.02904852089946384
0.0008629887908604143,0.02904852089946384
0.0008629887908604143,0.029181893355384247
0.0008662270227210539,0.029181893355384247
0.0008662270227210539,0.029261916828936488
0.0008694652545816933,0.029261916828936488
0.0008694652545816933,0.029288591320120568
0.000871084370512013,0.029288591320120568
0.000871084370512013,0.02934194030248873
0.0008727034864423328,0.02934194030248873
0.0008727034864423328,0.029421963776040973
0.0008743226023726525,0.029421963776040973
0.0008743226023726525,0.029528661740777295
0.0008759417183029722,0.029528661740777295
0.0008759417183029722,0.029555336231961375
0.0008775608342332919,0.029555336231961375
0.0008775608342332919,0.029582010723145456
0.0008791799501636116,0.029582010723145456
0.0008791799501636116,0.029635359705513616
0.0008807990660939314,0.029635359705513616
0.0008807990660939314,0.029795406652618102
0.0008824181820242511,0.029795406652618102
0.0008824181820242511,0.029822081143802182
0.0008840372979545708,0.029822081143802182
0.0008840372979545708,0.029982128090906664
0.0008856564138848906,0.029982128090906664
0.0008856564138848906,0.030008802582090748
0.0008872755298152103,0.030008802582090748
0.0008872755298152103,0.03019552402037931
0.0008888946457455301,0.03019552402037931
0.0008888946457455301,0.030382245458667877
0.0008905137616758498,0.030382245458667877
0.0008905137616758498,0.030408919949851957
0.0008921328776061695,0.030408919949851957
0.0008921328776061695,0.030462268932220118
0.0008937519935364892,0.030462268932220118
0.0008937519935364892,0.030488943423404198
0.0008953711094668089,0.030488943423404198
0.0008953711094668089,0.030675664861692764
0.0008969902253971287,0.030675664861692764
0.0008969902253971287,0.030702339352876844
0.0008986093413274484,0.030702339352876844
0.0008986093413274484,0.030755688335245005
0.0009002284572577681,0.030755688335245005
0.0009002284572577681,0.030809037317613166
0.0009018475731880878,0.030809037317613166
0.0009018475731880878,0.030995758755901732
0.0009034666891184075,0.030995758755901732
0.0009034666891184075,0.031209154685374378
0.0009050858050487273,0.031209154685374378
0.0009050858050487273,0.03142255061484702
0.000906704920979047,0.03142255061484702
0.000906704920979047,0.03147589959721518
0.0009083240369093668,0.03147589959721518
0.0009083240369093668,0.031555923070767426
0.0009099431528396865,0.031555923070767426
0.0009099431528396865,0.0315825975619515
0.0009115622687700062,0.0315825975619515
0.0009115622687700062,0.031635946544319664
0.000913181384700326,0.031635946544319664
0.000913181384700326,0.03171597001787191
0.0009196578484216048,0.03171597001787191
0.0009196578484216048,0.03176931900024007
0.0009228960802822443,0.03176931900024007
0.0009228960802822443,0.03192936594734455
0.000924515196212564,0.03192936594734455
0.000924515196212564,0.03198271492971272
0.0009261343121428837,0.03198271492971272
0.0009261343121428837,0.032276134332737606
0.0009293725440035233,0.032276134332737606
0.0009293725440035233,0.032356157806289844
0.000930991659933843,0.032356157806289844
0.000930991659933843,0.032409506788658005
0.0009358490077248021,0.032409506788658005
0.0009358490077248021,0.032462855771026165
0.0009390872395854416,0.032462855771026165
0.0009390872395854416,0.032569553735762494
0.0009407063555157613,0.032569553735762494
0.0009407063555157613,0.03275627517405105
0.000942325471446081,0.03275627517405105
0.000942325471446081,0.03278294966523514
0.0009439445873764007,0.03278294966523514
0.0009439445873764007,0.03280962415641921
0.0009455637033067204,0.03280962415641921
0.0009455637033067204,0.03286297313878738
0.0009471828192370402,0.03286297313878738
0.0009471828192370402,0.03288964762997146
0.0009504210510976796,0.03288964762997146
0.0009504210510976796,0.03304969457707594
0.0009552783988886389,0.03304969457707594
0.0009552783988886389,0.033076369068260024
0.0009568975148189586,0.033076369068260024
0.0009568975148189586,0.0331030435594441
0.0009585166307492783,0.0331030435594441
0.0009585166307492783,0.03320974152418043
0.000960135746679598,0.03320974152418043
0.000960135746679598,0.03342313745365307
0.0009617548626099177,0.03342313745365307
0.0009617548626099177,0.03352983541838939
0.0009633739785402375,0.03352983541838939
0.0009633739785402375,0.03360985889194164
0.0009649930944705572,0.03360985889194164
0.0009649930944705572,0.033636533383125715
0.0009682313263311966,0.033636533383125715
0.0009682313263311966,0.0336632078743098
0.000971469558191836,0.0336632078743098
0.000971469558191836,0.03376990583904612
0.0009730886741221559,0.03376990583904612
0.0009730886741221559,0.033849929312598365
0.0009747077900524756,0.033849929312598365
0.0009747077900524756,0.03408999973325509
0.0009763269059827953,0.03408999973325509
0.0009763269059827953,0.034303395662727734
0.0009795651378434347,0.034303395662727734
0.0009795651378434347,0.03433007015391181
0.0009828033697040742,0.03433007015391181
0.0009828033697040742,0.034463442609832216
0.000984422485634394,0.034463442609832216
0.000984422485634394,0.0344901171010163
0.0009876607174950335,0.0344901171010163
0.0009876607174950335,0.03457014057456854
0.0009908989493556729,0.03457014057456854
0.0009908989493556729,0.034676838539304866
0.0009925180652859925,0.034676838539304866
0.0009925180652859925,0.03483688548640935
0.0009973754130769518,0.03483688548640935
0.0009973754130769518,0.03510363039825015
0.0010006136449375912,0.03510363039825015
0.0010006136449375912,0.035130304889434236
0.0010022327608679108,0.035130304889434236
0.0010022327608679108,0.035183653871802396
0.0010038518767982306,0.035183653871802396
0.0010038518767982306,0.03523700285417056
0.00100709010865887,0.03523700285417056
0.00100709010865887,0.035263677345354634
0.0010103283405195095,0.035263677345354634
0.0010103283405195095,0.035477073274827284
0.0010151856883104688,0.035477073274827284
0.0010151856883104688,0.035530422257195445
0.0010168048042407884,0.035530422257195445
0.0010168048042407884,0.035637120221931766
0.0010184239201711082,0.035637120221931766
0.0010184239201711082,0.03566379471311585
0.0010200430361014278,0.03566379471311585
0.0010200430361014278,0.03571714369548401
0.0010216621520317477,0.03571714369548401
0.0010216621520317477,0.03574381818666809
0.0010232812679620673,0.03574381818666809
0.0010232812679620673,0.03595721411614074
0.0010281386157530265,0.03595721411614074
0.0010281386157530265,0.0360105630985089
0.0010297577316833464,0.0360105630985089
0.0010297577316833464,0.036037237589692975
0.0010329959635439858,0.036037237589692975
0.0010329959635439858,0.036090586572061135
0.0010346150794743054,0.036090586572061135
0.0010346150794743054,0.03611726106324522
0.0010410915431955843,0.03611726106324522
0.0010410915431955843,0.03617061004561338
0.001042710659125904,0.03617061004561338
0.001042710659125904,0.036303982501533785
0.0010475680069168632,0.036303982501533785
0.0010475680069168632,0.036357331483901946
0.001049187122847183,0.036357331483901946
0.001049187122847183,0.03641068046627011
0.0010508062387775028,0.03641068046627011
0.0010508062387775028,0.036437354957454184
0.0010540444706381422,0.036437354957454184
0.0010540444706381422,0.03646402944863827
0.0010572827024987817,0.03646402944863827
0.0010572827024987817,0.03662407639574275
0.0010589018184291013,0.03662407639574275
0.0010589018184291013,0.03665075088692683
0.0010605209343594211,0.03665075088692683
0.0010605209343594211,0.03673077436047907
0.0010621400502897407,0.03673077436047907
0.0010621400502897407,0.03678412334284724
0.0010686165140110196,0.03678412334284724
0.0010686165140110196,0.03694417028995172
0.0010702356299413394,0.03694417028995172
0.0010702356299413394,0.0369708447811358
0.0010767120936626183,0.0369708447811358
0.0010767120936626183,0.03699751927231988
0.0010799503255232577,0.03699751927231988
0.0010799503255232577,0.037157566219424364
0.0010815694414535776,0.037157566219424364
0.0010815694414535776,0.037264264184160685
0.0010831885573838972,0.037264264184160685
0.0010831885573838972,0.03729093867534477
0.001084807673314217,0.03729093867534477
0.001084807673314217,0.03739763664008109
0.0010864267892445366,0.03739763664008109
0.0010864267892445366,0.037584358078369656
0.001089665021105176,0.037584358078369656
0.001089665021105176,0.03761103256955373
0.0010912841370354959,0.03761103256955373
0.0010912841370354959,0.03774440502547414
0.0010929032529658155,0.03774440502547414
0.0010929032529658155,0.03777107951665822
0.0010945223688961353,0.03777107951665822
0.0010945223688961353,0.03785110299021046
0.0010977606007567748,0.03785110299021046
0.0010977606007567748,0.03795780095494678
0.0010993797166870946,0.03795780095494678
0.0010993797166870946,0.037984475446130865
0.001102617948547734,0.037984475446130865
0.001102617948547734,0.03801114993731495
0.0011042370644780536,0.03801114993731495
0.0011042370644780536,0.038037824428499026
0.0011058561804083735,0.038037824428499026
0.0011058561804083735,0.03806449891968311
0.001107475296338693,0.03806449891968311
0.001107475296338693,0.03811784790205127
0.0011107135281993325,0.03811784790205127
0.0011107135281993325,0.03814452239323535
0.0011123326441296523,0.03814452239323535
0.0011123326441296523,0.03822454586678759
0.001113951760059972,0.03822454586678759
0.001113951760059972,0.03833124383152391
0.0011171899919206116,0.03833124383152391
0.0011171899919206116,0.038437941796260235
0.0011188091078509312,0.038437941796260235
0.0011188091078509312,0.03867801221691696
0.001120428223781251,0.03867801221691696
0.001120428223781251,0.038704686708101045
0.0011220473397115707,0.038704686708101045
0.0011220473397115707,0.03873136119928512
0.00112690468750253,0.03873136119928512
0.00112690468750253,0.03878471018165328
0.0011301429193631694,0.03878471018165328
0.0011301429193631694,0.03881138467283737
0.0011350002671541284,0.03881138467283737
0.0011350002671541284,0.03883805916402144
0.0011366193830844482,0.03883805916402144
0.0011366193830844482,0.03891808263757369
0.001138238499014768,0.03891808263757369
0.001138238499014768,0.03929152551415082
0.0011398576149450877,0.03929152551415082
0.0011398576149450877,0.0393182000053349
0.001143095846805727,0.0393182000053349
0.001143095846805727,0.03958494491717571
0.001144714962736047,0.03958494491717571
0.001144714962736047,0.039611619408359784
0.0011463340786663665,0.039611619408359784
0.0011463340786663665,0.03974499186428019
0.0011479531945966864,0.03974499186428019
0.0011479531945966864,0.03990503881138467
0.001149572310527006,0.03990503881138467
0.001149572310527006,0.04025180719677772
0.0011511914264573258,0.04025180719677772
0.0011511914264573258,0.04030515617914588
0.0011528105423876454,0.04030515617914588
0.0011528105423876454,0.04035850516151404
0.0011560487742482849,0.04035850516151404
0.0011560487742482849,0.04046520312625037
0.0011576678901786047,0.04046520312625037
0.0011576678901786047,0.04062525007335485
0.0011592870061089245,0.04062525007335485
0.0011592870061089245,0.04065192456453893
0.0011609061220392441,0.04065192456453893
0.0011609061220392441,0.04067859905572301
0.001162525237969564,0.04067859905572301
0.001162525237969564,0.040891994985195655
0.001167382585760523,0.040891994985195655
0.001167382585760523,0.04091866947637974
0.0011706208176211624,0.04091866947637974
0.0011706208176211624,0.04099869294993198
0.0011722399335514823,0.04099869294993198
0.0011722399335514823,0.04102536744111606
0.0011738590494818019,0.04102536744111606
0.0011738590494818019,0.041105390914668305
0.0011754781654121217,0.041105390914668305
0.0011754781654121217,0.041212088879404626
0.0011770972813424413,0.041212088879404626
0.0011770972813424413,0.04126543786177279
0.0011787163972727611,0.04126543786177279
0.0011787163972727611,0.04142548480887727
0.0011803355132030807,0.04142548480887727
0.0011803355132030807,0.04153218277361359
0.0011819546291334006,0.04153218277361359
0.0011819546291334006,0.041558857264797675
0.0011900502087849993,0.041558857264797675
0.0011900502087849993,0.0417989276854544
0.0011949075565759583,0.0417989276854544
0.0011949075565759583,0.04185227666782256
0.0011981457884365978,0.04185227666782256
0.0011981457884365978,0.041932300141374806
0.0011997649043669176,0.041932300141374806
0.0011997649043669176,0.042065672597295205
0.0012013840202972372,0.042065672597295205
0.0012013840202972372,0.04209234708847929
0.0012046222521578769,0.04209234708847929
0.0012046222521578769,0.04214569607084745
0.0012078604840185163,0.04214569607084745
0.0012078604840185163,0.042172370562031526
0.001209479599948836,0.042172370562031526
0.001209479599948836,0.04219904505321561
0.0012110987158791557,0.04219904505321561
0.0012110987158791557,0.042332417509136015
0.0012127178318094753,0.042332417509136015
0.0012127178318094753,0.04243911547387234
0.0012143369477397952,0.04243911547387234
0.0012143369477397952,0.04251913894742458
0.0012159560636701148,0.04251913894742458
0.0012159560636701148,0.04270586038571314
0.0012175751796004346,0.04270586038571314
0.0012175751796004346,0.042732534876897224
0.0012191942955307542,0.042732534876897224
0.0012191942955307542,0.042892581824001706
0.001220813411461074,0.042892581824001706
0.001220813411461074,0.04294593080636987
0.0012224325273913937,0.04294593080636987
0.0012224325273913937,0.04302595427992211
0.0012240516433217135,0.04302595427992211
0.0012240516433217135,0.04305262877110619
0.001227289875182353,0.04305262877110619
0.001227289875182353,0.04307930326229027
0.0012305281070429924,0.04307930326229027
0.0012305281070429924,0.04310597775347435
0.0012337663389036318,0.04310597775347435
0.0012337663389036318,0.04313265224465843
0.001238623686694591,0.04313265224465843
0.001238623686694591,0.04315932673584252
0.0012402428026249107,0.04315932673584252
0.0012402428026249107,0.043346048174131076
0.0012418619185552305,0.04337272266531516
0.00124348103448555,0.04337272266531516
0.00124348103448555,0.043399397156499236
0.00124510015041587,0.043399397156499236
0.00124510015041587,0.0435861185947878
0.0012467192663461898,0.0435861185947878
0.0012467192663461898,0.043612793085971886
0.0012499574982068292,0.043612793085971886
0.0012499574982068292,0.04366614206834005
0.0012515766141371488,0.04366614206834005
0.0012515766141371488,0.04387953799781269
0.0012548148459977882,0.04387953799781269
0.0012548148459977882,0.04398623596254901
0.0012580530778584277,0.04398623596254901
0.0012580530778584277,0.044012910453733095
0.0012596721937887475,0.044012910453733095
0.0012596721937887475,0.04409293392728534
0.0012612913097190671,0.04409293392728534
0.0012612913097190671,0.0441462829096535
0.001262910425649387,0.0441462829096535
0.001262910425649387,0.04417295740083758
0.0012645295415797066,0.04417295740083758
0.0012645295415797066,0.0442796553655739
0.0012661486575100264,0.0442796553655739
0.0012661486575100264,0.04430632985675798
0.0012710060053009857,0.04430632985675798
0.0012710060053009857,0.04435967883912614
0.0012758633530919447,0.04435967883912614
0.0012758633530919447,0.044413027821494304
0.0012791015849525841,0.044413027821494304
0.0012791015849525841,0.04454640027741471
0.001280720700882904,0.04454640027741471
0.001280720700882904,0.04459974925978287
0.0012823398168132236,0.04459974925978287
0.0012823398168132236,0.044626423750966954
0.0012839589327435434,0.044626423750966954
0.0012839589327435434,0.04470644722451919
0.001285578048673863,0.04470644722451919
0.001285578048673863,0.04481314518925551
0.0012871971646041828,0.04481314518925551
0.0012871971646041828,0.0448398196804396
0.0012888162805345024,0.0448398196804396
0.0012888162805345024,0.04489316866280776
0.0012936736283254617,0.04489316866280776
0.0012936736283254617,0.04497319213636
0.0012952927442557815,0.04497319213636
0.0012952927442557815,0.04502654111872816
0.0012969118601861012,0.04502654111872816
0.0012969118601861012,0.0451065645922804
0.0013001500920467406,0.0451065645922804
0.0013001500920467406,0.045186588065832645
0.0013017692079770604,0.045186588065832645
0.0013017692079770604,0.045293286030568966
0.0013050074398376999,0.045293286030568966
0.0013050074398376999,0.04534663501293713
0.0013066265557680195,0.04534663501293713
0.0013066265557680195,0.04539998399530529
0.0013082456716983393,0.04539998399530529
0.0013082456716983393,0.04542665848648937
0.001309864787628659,0.04542665848648937
0.001309864787628659,0.04548000746885753
0.0013114839035589787,0.04548000746885753
0.0013114839035589787,0.04550668196004161
0.001316341251349938,0.04550668196004161
0.001316341251349938,0.04558670543359385
0.0013179603672802576,0.04558670543359385
0.0013179603672802576,0.045693403398330175
0.0013195794832105774,0.045693403398330175
0.0013195794832105774,0.04577342687188242
0.0013260559469318563,0.04577342687188242
0.0013260559469318563,0.04582677585425058
0.001327675062862176,0.04582677585425058
0.001327675062862176,0.045853450345434664
0.0013292941787924957,0.045853450345434664
0.0013292941787924957,0.0459334738189869
0.0013309132947228154,0.0459334738189869
0.0013309132947228154,0.04612019525727547
0.0013325324106531352,0.04612019525727547
0.0013325324106531352,0.04617354423964363
0.0013357706425137746,0.04617354423964363
0.0013357706425137746,0.046360265677932194
0.0013373897584440944,0.046360265677932194
0.0013373897584440944,0.0464936381338526
0.001339008874374414,0.0464936381338526
0.001339008874374414,0.046627010589773
0.0013422471062350535,0.046627010589773
0.0013422471062350535,0.04665368508095708
0.0013438662221653733,0.04665368508095708
0.0013438662221653733,0.0467603830456934
0.0013487235699563324,0.0467603830456934
0.0013487235699563324,0.04702712795753421
0.0013519618018169718,0.04702712795753421
0.0013519618018169718,0.047133825922270535
0.0013535809177472916,0.047133825922270535
0.0013535809177472916,0.04726719837819093
0.0013552000336776112,0.04726719837819093
0.0013552000336776112,0.04734722185174318
0.001356819149607931,0.04734722185174318
0.001356819149607931,0.04748059430766358
0.001358438265538251,0.04748059430766358
0.001358438265538251,0.04761396676358398
0.00136329561332921,0.04761396676358398
0.00136329561332921,0.04766731574595215
0.0013649147292595298,0.04766731574595215
0.0013649147292595298,0.047693990237136226
0.0013681529611201692,0.047693990237136226
0.0013681529611201692,0.04777401371068847
0.0013713911929808086,0.04777401371068847
0.0013713911929808086,0.04780068820187255
0.0013730103089111283,0.04780068820187255
0.0013730103089111283,0.04798740964016111
0.0013762485407717677,0.04798740964016111
0.0013762485407717677,0.04806743311371336
0.0013778676567020875,0.04806743311371336
0.0013778676567020875,0.04812078209608152
0.001381105888562727,0.04812078209608152
0.001381105888562727,0.048147456587265595
0.0013827250044930468,0.04817413107844968
0.0013827250044930468,0.048254154552001924
0.0013843441204233664,0.048254154552001924
0.0013843441204233664,0.048360852516738245
0.0013859632363536862,0.048360852516738245
0.0013859632363536862,0.048494224972658644
0.0013908205841446453,0.048494224972658644
0.0013908205841446453,0.04857424844621089
0.001392439700074965,0.04857424844621089
0.001392439700074965,0.04868094641094721
0.0013940588160052847,0.04868094641094721
0.0013940588160052847,0.04870762090213129
0.0013972970478659242,0.04870762090213129
0.0013972970478659242,0.04873429539331537
0.0014021543956568834,0.04873429539331537
0.0014021543956568834,0.04878764437568353
0.0014037735115872032,0.04878764437568353
0.0014037735115872032,0.048814318866867615
0.0014053926275175229,0.048814318866867615
0.0014053926275175229,0.04894769132278802
0.0014070117434478427,0.04894769132278802
0.0014070117434478427,0.0489743658139721
0.0014086308593781623,0.0489743658139721
0.0014086308593781623,0.04900104030515618
0.0014102499753084821,0.04900104030515618
0.0014102499753084821,0.04905438928752434
0.0014134882071691216,0.04905438928752434
0.0014134882071691216,0.049214436234628824
0.0014215837868207203,0.049214436234628824
0.0014215837868207203,0.049267785216996984
0.0014232029027510399,0.049267785216996984
0.0014232029027510399,0.049374483181733306
0.0014248220186813597,0.049374483181733306
0.0014248220186813597,0.049587879111205956
0.0014280602505419991,0.049587879111205956
0.0014280602505419991,0.0498012750406786
0.0014296793664723187,0.0498012750406786
0.0014296793664723187,0.04988129851423084
0.0014329175983329582,0.04988129851423084
0.0014329175983329582,0.04990797300541492
0.0014410131779845569,0.04990797300541492
0.0014410131779845569,0.05025474139080797
0.0014442514098451963,0.05025474139080797
0.0014442514098451963,0.05030809037317613
0.0014458705257755161,0.05030809037317613
0.0014458705257755161,0.050361439355544296
0.0014474896417058358,0.050361439355544296
0.0014474896417058358,0.05038811384672837
0.0014491087576361556,0.05038811384672837
0.0014491087576361556,0.050494811811464695
0.0014507278735664752,0.050494811811464695
0.0014507278735664752,0.0506281842673851
0.0014539661054271146,0.0506281842673851
0.0014539661054271146,0.05068153324975326
0.0014555852213574345,0.05068153324975326
0.0014555852213574345,0.05086825468804183
0.001457204337287754,0.05086825468804183
0.001457204337287754,0.05092160367040999
0.001458823453218074,0.05092160367040999
0.001458823453218074,0.05105497612633039
0.0014604425691483935,0.05105497612633039
0.0014604425691483935,0.05110832510869855
0.0014620616850787133,0.05110832510869855
0.0014620616850787133,0.05118834858225079
0.0014652999169393528,0.05118834858225079
0.0014652999169393528,0.051215023073434875
0.0014685381487999922,0.051215023073434875
0.0014685381487999922,0.05129504654698712
0.001470157264730312,0.05129504654698712
0.001470157264730312,0.05142841900290752
0.0014733954965909515,0.05142841900290752
0.0014733954965909515,0.05150844247645976
0.001475014612521271,0.05150844247645976
0.001475014612521271,0.051721838405932405
0.0014782528443819105,0.051721838405932405
0.0014782528443819105,0.05180186187948465
0.00148149107624255,0.05180186187948465
0.00148149107624255,0.051881885353036894
0.0014831101921728698,0.051881885353036894
0.0014831101921728698,0.052121955773693614
0.0014847293081031894,0.052121955773693614
0.0014847293081031894,0.0521486302648777
0.0014863484240335092,0.0521486302648777
0.0014863484240335092,0.05246872415908667
0.001487967539963829,0.05246872415908667
0.001487967539963829,0.052495398650270746
0.001492824887754788,0.052495398650270746
0.001492824887754788,0.05252207314145483
0.0015025395833367064,0.05252207314145483
0.0015025395833367064,0.05260209661500707
0.0015041586992670262,0.05260209661500707
0.0015041586992670262,0.05265544559737523
0.0015057778151973459,0.05265544559737523
0.0015057778151973459,0.05273546907092747
0.0015106351629883051,0.05273546907092747
0.0015106351629883051,0.05278881805329563
0.001512254278918625,0.05278881805329563
0.001512254278918625,0.052895516018031954
0.0015138733948489446,0.052895516018031954
0.001517111626709584,0.052895516018031954
0.001517111626709584,0.05313558643868868
0.0015203498585702234,0.05313558643868868
0.0015203498585702234,0.053162260929872765
0.0015219689745005433,0.053162260929872765
0.0015219689745005433,0.05329563338579316
0.0015235880904308629,0.05329563338579316
0.0015235880904308629,0.05350902931526581
0.0015252072063611827,0.05350902931526581
0.0015252072063611827,0.053562378297633974
0.0015268263222915023,0.053562378297633974
0.0015268263222915023,0.053615727280002135
0.0015284454382218221,0.053615727280002135
0.0015284454382218221,0.053669076262370295
0.0015316836700824616,0.053669076262370295
0.0015316836700824616,0.0538024487182907
0.001534921901943101,0.0538024487182907
0.001534921901943101,0.05385579770065886
0.0015365410178734208,0.05385579770065886
0.0015365410178734208,0.05396249566539518
0.0015381601338037404,0.05396249566539518
0.0015381601338037404,0.05404251913894743
0.0015397792497340603,0.05404251913894743
0.0015397792497340603,0.05409586812131559
0.0015430174815946997,0.05409586812131559
0.0015430174815946997,0.05414921710368375
0.0015462557134553391,0.05414921710368375
0.0015462557134553391,0.054335938541972315
0.0015478748293856588,0.054335938541972315
0.0015478748293856588,0.05436261303315639
0.0015494939453159786,0.05436261303315639
0.0015494939453159786,0.054389287524340475
0.0015511130612462982,0.054389287524340475
0.0015511130612462982,0.054442636506708636
0.001552732177176618,0.054442636506708636
0.001552732177176618,0.0544959854890768
0.0015543512931069378,0.0544959854890768
0.0015543512931069378,0.054522659980260874
0.0015575895249675773,0.054522659980260874
0.0015575895249675773,0.05465603243618128
0.001559208640897897,0.05465603243618128
0.001559208640897897,0.05470938141854944
0.0015640659886888562,0.05470938141854944
0.0015640659886888562,0.05481607938328576
0.001570542452410135,0.05481607938328576
0.001570542452410135,0.05505614980394249
0.0015721615683404546,0.05505614980394249
0.0015721615683404546,0.05508282429512657
0.0015737806842707745,0.05508282429512657
0.0015737806842707745,0.05513617327749473
0.0015753998002010943,0.05513617327749473
0.0015753998002010943,0.05516284776867881
0.001577018916131414,0.05516284776867881
0.001577018916131414,0.055242871242231054
0.0015786380320617337,0.055242871242231054
0.0015786380320617337,0.05537624369815146
0.0015802571479920534,0.05537624369815146
0.0015802571479920534,0.055456267171703696
0.0015818762639223732,0.055456267171703696
0.0015818762639223732,0.0555896396276241
0.0015834953798526928,0.0555896396276241
0.0015834953798526928,0.055669663101176346
0.0015851144957830126,0.055669663101176346
0.0015851144957830126,0.055749686574728584
0.0015867336117133322,0.055749686574728584
0.0015867336117133322,0.05590973352183307
0.001588352727643652,0.05590973352183307
0.001588352727643652,0.05609645496012164
0.0015899718435739717,0.05609645496012164
0.0015899718435739717,0.056123129451305716
0.0015915909595042915,0.056123129451305716
0.0015915909595042915,0.05622982741604204
0.001594829191364931,0.05622982741604204
0.001594829191364931,0.0562831763984102
0.0015980674232255704,0.0562831763984102
0.0015980674232255704,0.05630985088959428
0.0015996865391558902,0.05630985088959428
0.0015996865391558902,0.05633652538077836
0.0016013056550862098,0.05633652538077836
0.0016013056550862098,0.05636319987196244
0.0016029247710165296,0.05636319987196244
0.0016029247710165296,0.05649657232788285
0.0016045438869468492,0.05649657232788285
0.0016045438869468492,0.05695003867801222
0.001606163002877169,0.05695003867801222
0.001606163002877169,0.05703006215156446
0.0016077821188074887,0.05703006215156446
0.0016077821188074887,0.05708341113393262
0.0016094012347378085,0.05708341113393262
0.0016094012347378085,0.05727013257222118
0.0016110203506681281,0.05727013257222118
0.0016110203506681281,0.057296807063405265
0.001612639466598448,0.057296807063405265
0.001612639466598448,0.05751020299287791
0.0016158776984590874,0.05751020299287791
0.0016158776984590874,0.05759022646643015
0.0016191159303197268,0.05759022646643015
0.0016191159303197268,0.05764357544879831
0.0016207350462500466,0.05764357544879831
0.0016207350462500466,0.05788364586945504
0.0016223541621803663,0.05788364586945504
0.0016223541621803663,0.058017018325375445
0.001623973278110686,0.058017018325375445
0.001623973278110686,0.058150390781295844
0.0016272115099713255,0.058150390781295844
0.0016272115099713255,0.05817706527247993
0.0016320688577622846,0.05817706527247993
0.0016320688577622846,0.05828376323721625
0.0016336879736926044,0.05828376323721625
0.0016336879736926044,0.0584971591666889
0.001635307089622924,0.0584971591666889
0.001635307089622924,0.058577182640241136
0.0016369262055532438,0.058577182640241136
0.0016369262055532438,0.05868388060497746
0.0016385453214835634,0.05868388060497746
0.0016385453214835634,0.058870602043266024
0.0016401644374138833,0.058870602043266024
0.0016401644374138833,0.058977300008002345
0.001641783553344203,0.058977300008002345
0.001641783553344203,0.05900397449918643
0.0016434026692745227,0.05900397449918643
0.0016434026692745227,0.05908399797273867
0.0016450217852048425,0.05908399797273867
0.0016450217852048425,0.05911067246392275
0.0016466409011351621,0.05911067246392275
0.0016466409011351621,0.05916402144629091
0.001648260017065482,0.05916402144629091
0.001648260017065482,0.059190695937474995
0.001653117364856441,0.059190695937474995
0.001653117364856441,0.05921737042865907
0.0016547364807867608,0.05921737042865907
0.0016547364807867608,0.05927071941102723
0.0016563555967170805,0.05927071941102723
0.0016563555967170805,0.059377417375763554
0.0016579747126474003,0.059377417375763554
0.0016579747126474003,0.05948411534049988
0.00165959382857772,0.05948411534049988
0.00165959382857772,0.05953746432286804
0.0016612129445080397,0.05953746432286804
0.0016612129445080397,0.05956413881405212
0.0016628320604383596,0.05956413881405212
0.0016628320604383596,0.059590813305236204
0.0016644511763686792,0.059590813305236204
0.0016644511763686792,0.059644162287604365
0.001666070292298999,0.059644162287604365
0.001666070292298999,0.05967083677878844
0.0016676894082293186,0.05967083677878844
0.0016676894082293186,0.05983088372589293
0.001670927640089958,0.05983088372589293
0.001670927640089958,0.06017765211128598
0.0016741658719505975,0.06017765211128598
0.0016741658719505975,0.060204326602470055
0.0016757849878809173,0.060204326602470055
0.0016757849878809173,0.060311024567206384
0.001677404103811237,0.060311024567206384
0.001677404103811237,0.06039104804075862
0.0016790232197415567,0.06039104804075862
0.0016790232197415567,0.06068446744378351
0.0016806423356718763,0.06068446744378351
0.0016806423356718763,0.06073781642615167
0.0016822614516021962,0.06073781642615167
0.0016822614516021962,0.060871188882072075
0.001683880567532516,0.060871188882072075
0.001683880567532516,0.06103123582917656
0.0016854996834628356,0.06103123582917656
0.0016854996834628356,0.06105791032036064
0.0016871187993931554,0.06105791032036064
0.0016871187993931554,0.06108458481154472
0.0016903570312537949,0.06108458481154472
0.0016903570312537949,0.0611112593027288
0.0016935952631144343,0.0611112593027288
0.0016935952631144343,0.06129798074101737
0.0016984526109053934,0.06129798074101737
0.0016984526109053934,0.06135132972338553
0.0017000717268357132,0.06135132972338553
0.0017000717268357132,0.061538051161674094
0.0017016908427660328,0.061538051161674094
0.0017016908427660328,0.06167142361759449
0.0017049290746266722,0.06167142361759449
0.0017049290746266722,0.06172477259996265
0.001706548190556992,0.06172477259996265
0.001706548190556992,0.06196484302061938
0.001708167306487312,0.06196484302061938
0.001708167306487312,0.061991517511803464
0.0017097864224176315,0.061991517511803464
0.0017097864224176315,0.0620715409853557
0.0017114055383479513,0.0620715409853557
0.0017114055383479513,0.06231161140601243
0.001713024654278271,0.06231161140601243
0.001713024654278271,0.06239163487956467
0.0017146437702085908,0.06239163487956467
0.0017146437702085908,0.062418309370748756
0.0017227393498601893,0.062418309370748756
0.0017227393498601893,0.06247165835311692
0.001724358465790509,0.06247165835311692
0.001724358465790509,0.062498332844300994
0.0017259775817208287,0.062498332844300994
0.0017259775817208287,0.06252500733548508
0.0017292158135814683,0.06252500733548508
0.0017292158135814683,0.06257835631785323
0.001730834929511788,0.06257835631785323
0.001730834929511788,0.06260503080903732
0.0017324540454421078,0.06260503080903732
0.0017324540454421078,0.0626317053002214
0.0017340731613724274,0.0626317053002214
0.0017340731613724274,0.06265837979140548
0.0017356922773027472,0.06265837979140548
0.0017356922773027472,0.06268505428258955
0.0017373113932330668,0.06268505428258955
0.0017373113932330668,0.06273840326495772
0.0017405496250937063,0.06273840326495772
0.0017405496250937063,0.0627650777561418
0.001742168741024026,0.0627650777561418
0.001742168741024026,0.06279175224732589
0.0017437878569543457,0.06279175224732589
0.0017437878569543457,0.06281842673850996
0.001748645204745305,0.06281842673850996
0.001748645204745305,0.06287177572087813
0.0017502643206756248,0.06287177572087813
0.0017502643206756248,0.063165195123903
0.0017518834366059444,0.063165195123903
0.0017518834366059444,0.06329856757982341
0.0017535025525362642,0.06329856757982341
0.0017535025525362642,0.0633252420710075
0.0017551216684665838,0.0633252420710075
0.0017551216684665838,0.06348528901811198
0.0017567407843969037,0.06348528901811198
0.0017567407843969037,0.06375203392995278
0.0017583599003272233,0.06375203392995278
0.0017583599003272233,0.06396542985942544
0.0017599790162575431,0.06396542985942544
0.0017599790162575431,0.06417882578889808
0.0017615981321878627,0.06417882578889808
0.0017615981321878627,0.06439222171837072
0.0017632172481181825,0.06439222171837072
0.0017632172481181825,0.06449891968310704
0.0017648363640485022,0.06449891968310704
0.0017648363640485022,0.06455226866547521
0.0017680745959091416,0.06455226866547521
0.0017680745959091416,0.06460561764784337
0.0017696937118394614,0.06460561764784337
0.0017696937118394614,0.0646856411213956
0.0017713128277697813,0.0646856411213956
0.0017713128277697813,0.06471231561257969
0.0017729319437001009,0.06471231561257969
0.0017729319437001009,0.06473899010376377
0.0017761701755607403,0.06473899010376377
0.0017761701755607403,0.06487236255968418
0.0017777892914910601,0.06487236255968418
0.0017777892914910601,0.06489903705086826
0.0017794084074213797,0.06489903705086826
0.0017794084074213797,0.06495238603323641
0.0017810275233516996,0.06495238603323641
0.0017810275233516996,0.0649790605244205
0.0017826466392820192,0.0649790605244205
0.0017826466392820192,0.06516578196270906
0.0017858848711426586,0.06516578196270906
0.0017858848711426586,0.06519245645389314
0.0017875039870729784,0.06519245645389314
0.0017875039870729784,0.06532582890981355
0.0017907422189336179,0.06532582890981355
0.0017907422189336179,0.06535250340099763
0.0017923613348639375,0.06535250340099763
0.0017923613348639375,0.06540585238336578
0.0017939804507942573,0.06540585238336578
0.0017939804507942573,0.06543252687454987
0.0017972186826548968,0.06543252687454987
0.0017972186826548968,0.06548587585691804
0.0017988377985852166,0.06548587585691804
0.0017988377985852166,0.06559257382165436
0.0018004569145155362,0.06559257382165436
0.0018004569145155362,0.06564592280402251
0.0018036951463761756,0.06564592280402251
0.0018036951463761756,0.06569927178639068
0.0018053142623064955,0.06569927178639068
0.0018053142623064955,0.06577929525994292
0.001806933378236815,0.06577929525994292
0.001806933378236815,0.06585931873349515
0.0018117907260277743,0.06585931873349515
0.0018117907260277743,0.06588599322467924
0.001813409841958094,0.06588599322467924
0.001813409841958094,0.06596601669823147
0.0018166480738187336,0.06596601669823147
0.0018166480738187336,0.06607271466296781
0.0018182671897490532,0.06607271466296781
0.0018182671897490532,0.06617941262770413
0.001819886305679373,0.06617941262770413
0.001819886305679373,0.06625943610125637
0.0018215054216096926,0.06625943610125637
0.0018215054216096926,0.06631278508362452
0.0018231245375400125,0.06631278508362452
0.0018231245375400125,0.06641948304836086
0.0018279818853309715,0.06641948304836086
0.0018279818853309715,0.06644615753954493
0.0018296010012612913,0.06644615753954493
0.0018296010012612913,0.06647283203072901
0.001831220117191611,0.06647283203072901
0.001831220117191611,0.0666328789778335
0.0018344583490522504,0.0666328789778335
0.0018344583490522504,0.06671290245138574
0.0018360774649825702,0.06671290245138574
0.0018360774649825702,0.06681960041612206
0.00183769658091289,0.06681960041612206
0.00183769658091289,0.0668996238896743
0.0018393156968432097,0.0668996238896743
0.0018393156968432097,0.06697964736322655
0.0018409348127735295,0.06697964736322655
0.0018409348127735295,0.06711301981914695
0.001842553928703849,0.06711301981914695
0.001842553928703849,0.06729974125743551
0.001844173044634169,0.06729974125743551
0.001844173044634169,0.06737976473098775
0.0018506495083554478,0.06737976473098775
0.0018506495083554478,0.06740643922217184
0.0018522686242857674,0.06740643922217184
0.0018522686242857674,0.06743311371335592
0.0018538877402160872,0.06743311371335592
0.0018538877402160872,0.06748646269572407
0.0018555068561464068,0.06748646269572407
0.0018555068561464068,0.06756648616927632
0.0018571259720767267,0.06756648616927632
0.0018571259720767267,0.06761983515164448
0.0018587450880070465,0.06761983515164448
0.0018587450880070465,0.06775320760756488
0.001861983319867686,0.06775320760756488
0.001861983319867686,0.06796660353703753
0.0018652215517283254,0.06796660353703753
0.0018652215517283254,0.06799327802822161
0.0018700788995192844,0.06799327802822161
0.0018700788995192844,0.06809997599295793
0.0018716980154496043,0.06809997599295793
0.0018716980154496043,0.06820667395769425
0.0018749362473102437,0.06820667395769425
0.0018749362473102437,0.06826002294006242
0.0018765553632405633,0.06826002294006242
0.0018765553632405633,0.0682866974312465
0.0018781744791708831,0.0682866974312465
0.0018781744791708831,0.06831337192243057
0.0018797935951012027,0.06831337192243057
0.0018797935951012027,0.0684200698871669
0.0018814127110315226,0.0684200698871669
0.0018814127110315226,0.06844674437835098
0.0018830318269618424,0.06844674437835098
0.0018830318269618424,0.06858011683427138
0.001884650942892162,0.06858011683427138
0.001884650942892162,0.06882018725492811
0.0018878891747528014,0.06882018725492811
0.0018878891747528014,0.0688468617461122
0.0018927465225437607,0.0688468617461122
0.0018927465225437607,0.06890021072848035
0.0018959847544044001,0.06890021072848035
0.0018959847544044001,0.069113606657953
0.0018976038703347198,0.069113606657953
0.0018976038703347198,0.06922030462268933
0.0019008421021953592,0.06922030462268933
0.0019008421021953592,0.06930032809624156
0.001902461218125679,0.06930032809624156
0.001902461218125679,0.0693803515697938
0.0019040803340559988,0.0693803515697938
0.0019040803340559988,0.06940702606097789
0.0019056994499863185,0.06940702606097789
0.0019056994499863185,0.06946037504334605
0.0019073185659166383,0.06946037504334605
0.0019073185659166383,0.0696737709728187
0.0019105567977772777,0.0696737709728187
0.0019105567977772777,0.06972711995518685
0.0019121759137075973,0.06972711995518685
0.0019121759137075973,0.0698071434287391
0.0019154141455682368,0.0698071434287391
0.0019154141455682368,0.06996719037584358
0.0019170332614985566,0.06996719037584358
0.0019170332614985566,0.07002053935821174
0.0019186523774288762,0.07002053935821174
0.0019186523774288762,0.07004721384939583
0.001920271493359196,0.07004721384939583
0.001920271493359196,0.07012723732294807
0.0019235097252198355,0.07012723732294807
0.0019235097252198355,0.07026060977886847
0.0019251288411501553,0.07026060977886847
0.0019251288411501553,0.07044733121715703
0.001926747957080475,0.07044733121715703
0.001926747957080475,0.07055402918189335
0.0019283670730107947,0.07055402918189335
0.0019283670730107947,0.07071407612899784
0.0019299861889411143,0.07071407612899784
0.0019299861889411143,0.07074075062018192
0.0019316053048714342,0.07074075062018192
0.0019316053048714342,0.07082077409373416
0.0019332244208017538,0.07082077409373416
0.0019332244208017538,0.07084744858491825
0.0019348435367320736,0.07084744858491825
0.0019348435367320736,0.07087412307610233
0.0019364626526623932,0.07087412307610233
0.0019364626526623932,0.07092747205847048
0.001938081768592713,0.07092747205847048
0.001938081768592713,0.0710341700232068
0.0019413200004533525,0.0710341700232068
0.0019413200004533525,0.07122089146149538
0.001942939116383672,0.07122089146149538
0.001942939116383672,0.07124756595267945
0.001944558232313992,0.07124756595267945
0.001944558232313992,0.07127424044386353
0.0019461773482443117,0.07127424044386353
0.0019461773482443117,0.07135426391741577
0.0019494155801049512,0.07135426391741577
0.0019494155801049512,0.07143428739096802
0.0019510346960352708,0.07143428739096802
0.0019510346960352708,0.07148763637333617
0.0019526538119655906,0.07148763637333617
0.0019526538119655906,0.07162100882925658
0.00195751115975655,0.07162100882925658
0.00195751115975655,0.0718610792499133
0.0019591302756868695,0.0718610792499133
0.0019591302756868695,0.07199445170583371
0.0019623685075475087,0.07199445170583371
0.0019623685075475087,0.0720211261970178
0.0019639876234778288,0.0720211261970178
0.0019639876234778288,0.07218117314412227
0.001967225855338468,0.07218117314412227
0.001967225855338468,0.07234122009122676
0.0019704640871991076,0.07234122009122676
0.0019704640871991076,0.07239456907359493
0.001975321434990067,0.07239456907359493
0.001975321434990067,0.07260796500306757
0.0019769405509203865,0.07260796500306757
0.0019769405509203865,0.07263463949425164
0.0019801787827810257,0.07263463949425164
0.0019801787827810257,0.07266131398543572
0.0019817978987113458,0.07266131398543572
0.0019817978987113458,0.07274133745898798
0.001985036130571985,0.07274133745898798
0.001985036130571985,0.0728480354237243
0.0019866552465023046,0.0728480354237243
0.0019866552465023046,0.07290138440609245
0.0019898934783629443,0.07290138440609245
0.0019898934783629443,0.07295473338846062
0.001991512594293264,0.07295473338846062
0.001991512594293264,0.07319480380911735
0.001993131710223584,0.07319480380911735
0.001993131710223584,0.07322147830030142
0.0019947508261539035,0.07322147830030142
0.0019947508261539035,0.0732481527914855
0.001996369942084223,0.0732481527914855
0.001996369942084223,0.07332817626503775
0.0019979890580145428,0.07332817626503775
0.0019979890580145428,0.07340819973858999
0.002002846405805502,0.07340819973858999
0.002002846405805502,0.07346154872095814
0.0020060846376661417,0.07346154872095814
0.0020060846376661417,0.07348822321214223
0.002009322869526781,0.07348822321214223
0.002009322869526781,0.0736749446504308
0.0020109419854571005,0.0736749446504308
0.0020109419854571005,0.07372829363279895
0.00201418021731774,0.07372829363279895
0.00201418021731774,0.07375496812398304
0.0020157993332480598,0.07375496812398304
0.0020157993332480598,0.0739416895622716
0.00201741844917838,0.0739416895622716
0.00201741844917838,0.07402171303582385
0.0020190375651086994,0.07402171303582385
0.0020190375651086994,0.074075062018192
0.002020656681039019,0.074075062018192
0.002020656681039019,0.07431513243884873
0.0020238949128996587,0.07431513243884873
0.0020238949128996587,0.07434180693003281
0.0020255140288299783,0.07434180693003281
0.0020255140288299783,0.0745018538771373
0.002027133144760298,0.0745018538771373
0.002027133144760298,0.07452852836832137
0.0020287522606906175,0.07452852836832137
0.0020287522606906175,0.07458187735068954
0.0020303713766209376,0.07458187735068954
0.0020303713766209376,0.07466190082424178
0.002031990492551257,0.07466190082424178
0.002031990492551257,0.07468857531542586
0.0020336096084815768,0.07468857531542586
0.0020336096084815768,0.07471524980660994
0.002035228724411897,0.07471524980660994
0.002035228724411897,0.07474192429779401
0.0020368478403422164,0.07474192429779401
0.0020368478403422164,0.07479527328016218
0.002038466956272536,0.07479527328016218
0.002038466956272536,0.07484862226253035
0.0020433243040634953,0.07484862226253035
0.0020433243040634953,0.07498199471845074
0.0020465625359241345,0.07498199471845074
0.0020465625359241345,0.07503534370081891
0.002049800767784774,0.07503534370081891
0.002049800767784774,0.07522206513910747
0.002051419883715094,0.07522206513910747
0.002051419883715094,0.07543546106858012
0.0020530389996454134,0.07543546106858012
0.0020530389996454134,0.07556883352450051
0.0020546581155757335,0.07556883352450051
0.0020546581155757335,0.0755955080156846
0.0020595154633666927,0.0755955080156846
0.0020595154633666927,0.07562218250686868
0.0020659919270879716,0.07562218250686868
0.0020659919270879716,0.07570220598042092
0.002067611043018291,0.07570220598042092
0.002067611043018291,0.07578222945397317
0.0020708492748789304,0.07578222945397317
0.0020708492748789304,0.07580890394515724
0.0020724683908092505,0.07580890394515724
0.0020724683908092505,0.07607564885699805
0.00207408750673957,0.07607564885699805
0.00207408750673957,0.07620902131291846
0.0020789448545305293,0.07620902131291846
0.0020789448545305293,0.07631571927765478
0.002080563970460849,0.07631571927765478
0.002080563970460849,0.07639574275120702
0.0020838022023214886,0.07639574275120702
0.0020838022023214886,0.07644909173357518
0.002085421318251808,0.07644909173357518
0.002085421318251808,0.07647576622475927
0.002087040434182128,0.07647576622475927
0.002087040434182128,0.07674251113660006
0.0020886595501124474,0.07674251113660006
0.0020886595501124474,0.07676918562778415
0.0020902786660427675,0.07676918562778415
0.0020902786660427675,0.07687588359252047
0.002091897781973087,0.07687588359252047
0.002091897781973087,0.07690255808370455
0.0020951360138337263,0.07690255808370455
0.0020951360138337263,0.07698258155725679
0.002104850709415645,0.07698258155725679
0.002104850709415645,0.07703593053962496
0.0021064698253459645,0.07703593053962496
0.0021064698253459645,0.0771159540131772
0.0021080889412762845,0.0771159540131772
0.0021080889412762845,0.07714262850436128
0.0021113271731369237,0.07714262850436128
0.0021113271731369237,0.07722265197791352
0.0021178036368582026,0.07722265197791352
0.0021178036368582026,0.07727600096028168
0.0021210418687188422,0.07727600096028168
0.0021210418687188422,0.07735602443383392
0.002122660984649162,0.07735602443383392
0.002122660984649162,0.077382698925018
0.0021258992165098015,0.077382698925018
0.0021258992165098015,0.07748939688975433
0.002127518332440121,0.07748939688975433
0.002127518332440121,0.07751607138093841
0.0021291374483704407,0.07751607138093841
0.0021291374483704407,0.07756942036330657
0.0021307565643007603,0.07756942036330657
0.0021307565643007603,0.07764944383685882
0.0021323756802310804,0.07764944383685882
0.0021323756802310804,0.07770279281922697
0.0021339947961614,0.07770279281922697
0.0021339947961614,0.07778281629277922
0.0021356139120917196,0.07778281629277922
0.0021356139120917196,0.07791618874869961
0.0021388521439523593,0.07791618874869961
0.0021388521439523593,0.07804956120462002
0.002140471259882679,0.07804956120462002
0.002140471259882679,0.0780762356958041
0.0021420903758129985,0.0780762356958041
0.0021420903758129985,0.07831630611646083
0.0021437094917433185,0.07831630611646083
0.0021437094917433185,0.07834298060764491
0.0021469477236039577,0.07834298060764491
0.0021469477236039577,0.07844967857238123
0.0021485668395342774,0.07844967857238123
0.0021485668395342774,0.07855637653711756
0.0021501859554645974,0.07855637653711756
0.0021501859554645974,0.07884979594014244
0.002151805071394917,0.07884979594014244
0.002151805071394917,0.0790631918696151
0.0021566624191858763,0.0790631918696151
0.0021566624191858763,0.07908986636079916
0.002163138882907155,0.07908986636079916
0.002163138882907155,0.07911654085198325
0.0021647579988374748,0.07911654085198325
0.0021647579988374748,0.07914321534316733
0.0021663771147677944,0.07914321534316733
0.0021663771147677944,0.07916988983435141
0.0021712344625587536,0.07916988983435141
0.0021712344625587536,0.07922323881671957
0.002176091810349713,0.07922323881671957
0.002176091810349713,0.07932993678145589
0.0021777109262800325,0.07932993678145589
0.0021777109262800325,0.07935661127263997
0.002179330042210352,0.07935661127263997
0.002179330042210352,0.07989010109632158
0.002180949158140672,0.07989010109632158
0.002180949158140672,0.08002347355224199
0.0021825682740709918,0.08002347355224199
0.0021825682740709918,0.08005014804342607
0.0021841873900013114,0.08005014804342607
0.0021841873900013114,0.08007682253461015
0.002187425621861951,0.08007682253461015
0.002187425621861951,0.08031689295526688
0.0021890447377922707,0.08031689295526688
0.0021890447377922707,0.08034356744645096
0.0021906638537225903,0.08034356744645096
0.0021906638537225903,0.08037024193763503
0.00219390208558323,0.08037024193763503
0.00219390208558323,0.08047693990237136
0.0021955212015135495,0.08047693990237136
0.0021955212015135495,0.08053028888473952
0.002197140317443869,0.08053028888473952
0.002197140317443869,0.08055696337592361
0.002198759433374189,0.08055696337592361
0.002198759433374189,0.08058363786710769
0.002200378549304509,0.08058363786710769
0.002200378549304509,0.08063698684947584
0.0022019976652348284,0.08063698684947584
0.0022019976652348284,0.08077035930539625
0.0022068550130257877,0.08077035930539625
0.0022068550130257877,0.08079703379658033
0.0022084741289561073,0.08079703379658033
0.0022084741289561073,0.08085038277894849
0.002211712360816747,0.08085038277894849
0.002211712360816747,0.08098375523486889
0.002214950592677386,0.08098375523486889
0.002214950592677386,0.08114380218197338
0.002216569708607706,0.08114380218197338
0.002216569708607706,0.08133052362026194
0.002218188824538026,0.08133052362026194
0.002218188824538026,0.08138387260263011
0.0022198079404683454,0.08138387260263011
0.0022198079404683454,0.08159726853210275
0.002223046172328985,0.08159726853210275
0.002223046172328985,0.08167729200565499
0.0022246652882593047,0.08167729200565499
0.0022246652882593047,0.08175731547920724
0.002227903520119944,0.08175731547920724
0.002227903520119944,0.0818106644615754
0.002229522636050264,0.0818106644615754
0.002229522636050264,0.08183733895275948
0.002232760867910903,0.08183733895275948
0.002232760867910903,0.08191736242631172
0.002235999099771543,0.08191736242631172
0.002235999099771543,0.08197071140867988
0.002239237331632182,0.08197071140867988
0.002239237331632182,0.08199738589986395
0.002240856447562502,0.08199738589986395
0.002240856447562502,0.0820774093734162
0.0022424755634928217,0.0820774093734162
0.0022424755634928217,0.08213075835578436
0.0022440946794231413,0.08213075835578436
0.0022440946794231413,0.08218410733815253
0.0022489520272141006,0.08218410733815253
0.0022489520272141006,0.08221078182933661
0.00225219025907474,0.08221078182933661
0.00225219025907474,0.08223745632052068
0.00225380937500506,0.08223745632052068
0.00225380937500506,0.08231747979407293
0.0022554284909353794,0.08231747979407293
0.0022554284909353794,0.08237082877644109
0.002257047606865699,0.08237082877644109
0.002257047606865699,0.08242417775880925
0.002258666722796019,0.08242417775880925
0.002258666722796019,0.08245085224999334
0.0022602858387263387,0.08245085224999334
0.0022602858387263387,0.08253087572354557
0.0022619049546566583,0.08253087572354557
0.002265143186517298,0.08253087572354557
0.002265143186517298,0.08255755021472966
0.0022732387661688965,0.08255755021472966
0.0022732387661688965,0.0826375736882819
0.002274857882099216,0.0826375736882819
0.002274857882099216,0.08282429512657045
0.002276476998029536,0.08282429512657045
0.002276476998029536,0.0829043186001227
0.0022780961139598557,0.0829043186001227
0.0022780961139598557,0.08301101656485903
0.0022797152298901753,0.08301101656485903
0.0022797152298901753,0.08311771452959535
0.002281334345820495,0.08311771452959535
0.002281334345820495,0.08314438902077943
0.0022845725776811346,0.08314438902077943
0.0022845725776811346,0.08325108698551575
0.002286191693611454,0.08325108698551575
0.002286191693611454,0.0834644829149884
0.002287810809541774,0.0834644829149884
0.002287810809541774,0.08351783189735656
0.0022910490414024135,0.08351783189735656
0.0022910490414024135,0.0835978553709088
0.0022942872732630527,0.0835978553709088
0.0022942872732630527,0.08362452986209289
0.0022959063891933727,0.08362452986209289
0.0022959063891933727,0.08367787884446104
0.0022975255051236924,0.08367787884446104
0.0022975255051236924,0.08394462375630185
0.002299144621054012,0.08394462375630185
0.002299144621054012,0.08399797273867
0.002300763736984332,0.08399797273867
0.002300763736984332,0.08402464722985409
0.0023023828529146516,0.08402464722985409
0.0023023828529146516,0.08405132172103817
0.0023040019688449712,0.08405132172103817
0.0023040019688449712,0.08407799621222226
0.0023088593166359305,0.08407799621222226
0.0023088593166359305,0.08434474112406305
0.0023120975484965697,0.08434474112406305
0.0023120975484965697,0.08450478807116754
0.0023137166644268898,0.08450478807116754
0.0023137166644268898,0.08455813705353571
0.0023153357803572094,0.08455813705353571
0.0023153357803572094,0.08458481154471978
0.002323431360008808,0.08458481154471978
0.002323431360008808,0.08461148603590386
0.002325050475939128,0.08461148603590386
0.002325050475939128,0.08463816052708795
0.0023266695918694475,0.08463816052708795
0.0023266695918694475,0.08471818400064018
0.0023331460555907264,0.08471818400064018
0.0023331460555907264,0.0848248819653765
0.002334765171521046,0.0848248819653765
0.002334765171521046,0.08485155645656059
0.0023363842874513656,0.08485155645656059
0.0023363842874513656,0.084984928912481
0.0023380034033816856,0.084984928912481
0.0023380034033816856,0.08509162687721732
0.0023444798671029645,0.08509162687721732
0.0023444798671029645,0.08517165035076955
0.002346098983033284,0.08517165035076955
0.002346098983033284,0.08519832484195364
0.0023477180989636037,0.08519832484195364
0.0023477180989636037,0.08522499933313772
0.002349337214893924,0.08522499933313772
0.002349337214893924,0.0852516738243218
0.0023509563308242434,0.0852516738243218
0.0023509563308242434,0.08538504628024221
0.0023541945626848826,0.08538504628024221
0.0023541945626848826,0.08541172077142628
0.0023558136786152027,0.08541172077142628
0.0023558136786152027,0.08546506975379445
0.002359051910475842,0.08546506975379445
0.002359051910475842,0.08557176771853077
0.002363909258266801,0.08557176771853077
0.002363909258266801,0.08559844220971485
0.0023655283741971208,0.08559844220971485
0.0023655283741971208,0.08565179119208301
0.00237038572198808,0.08565179119208301
0.00237038572198808,0.08573181466563526
0.0023736239538487197,0.08573181466563526
0.0023736239538487197,0.08578516364800341
0.0023752430697790393,0.08578516364800341
0.0023752430697790393,0.08583851263037158
0.002376862185709359,0.08583851263037158
0.002376862185709359,0.08589186161273973
0.0023801004175699986,0.08589186161273973
0.0023801004175699986,0.08591853610392382
0.0023833386494306378,0.08591853610392382
0.0023833386494306378,0.08597188508629199
0.002388195997221597,0.08597188508629199
0.002388195997221597,0.08605190855984422
0.0023898151131519167,0.08605190855984422
0.0023898151131519167,0.08618528101576463
0.0023914342290822367,0.08618528101576463
0.0023914342290822367,0.08623862999813278
0.0023930533450125563,0.08623862999813278
0.0023930533450125563,0.08626530448931687
0.002394672460942876,0.08626530448931687
0.002394672460942876,0.0863453279628691
0.0023979106928035156,0.0863453279628691
0.0023979106928035156,0.08637200245405319
0.0024043871565247944,0.08637200245405319
0.0024043871565247944,0.08639867694523727
0.0024076253883854337,0.08639867694523727
0.0024076253883854337,0.08645202592760542
0.0024076253883854337,0.08647870041878951
0.0024092445043157537,0.08647870041878951
0.0024092445043157537,0.08650537490997359
0.0024108636202460733,0.08650537490997359
0.0024108636202460733,0.08653204940115768
0.002412482736176393,0.08653204940115768
0.002412482736176393,0.08658539838352583
0.0024141018521067125,0.08658539838352583
0.0024141018521067125,0.08661207287470991
0.0024157209680370326,0.08661207287470991
0.0024157209680370326,0.08669209634826215
0.002417340083967352,0.08669209634826215
0.002417340083967352,0.08671877083944624
0.0024205783158279914,0.08671877083944624
0.0024205783158279914,0.0867721198218144
0.0024221974317583115,0.0867721198218144
0.0024221974317583115,0.08695884126010296
0.0024254356636189507,0.08695884126010296
0.0024254356636189507,0.08701219024247113
0.0024270547795492703,0.08701219024247113
0.0024270547795492703,0.08711888820720745
0.0024286738954795903,0.08711888820720745
0.0024286738954795903,0.08719891168075969
0.00243029301140991,0.08719891168075969
0.00243029301140991,0.08722558617194377
0.0024319121273402296,0.08722558617194377
0.0024319121273402296,0.08725226066312786
0.0024335312432705496,0.08725226066312786
0.0024335312432705496,0.08727893515431193
0.002435150359200869,0.08727893515431193
0.002435150359200869,0.08730560964549601
0.002436769475131189,0.08730560964549601
0.002436769475131189,0.08735895862786418
0.0024383885910615084,0.08735895862786418
0.0024383885910615084,0.08743898210141642
0.0024400077069918285,0.08743898210141642
0.0024400077069918285,0.0874656565926005
0.0024432459388524677,0.0874656565926005
0.0024432459388524677,0.08751900557496865
0.0024448650547827873,0.08751900557496865
0.0024448650547827873,0.0875990290485209
0.0024464841707131074,0.0875990290485209
0.0024464841707131074,0.08770572701325723
0.002448103286643427,0.08770572701325723
0.002448103286643427,0.08775907599562538
0.0024497224025737466,0.08775907599562538
0.0024497224025737466,0.08781242497799355
0.0024529606344343862,0.08781242497799355
0.0024529606344343862,0.08791912294272987
0.0024561988662950254,0.08791912294272987
0.0024561988662950254,0.08797247192509802
0.0024578179822253455,0.08797247192509802
0.0024578179822253455,0.08807916988983436
0.002459437098155665,0.08807916988983436
0.002459437098155665,0.088292565819307
0.0024610562140859847,0.088292565819307
0.0024610562140859847,0.08847928725759556
0.0024626753300163043,0.08847928725759556
0.0024626753300163043,0.08850596174877964
0.0024642944459466244,0.08850596174877964
0.0024642944459466244,0.0885593107311478
0.002465913561876944,0.0885593107311478
0.002465913561876944,0.08874603216943637
0.002469151793737583,0.08874603216943637
0.002469151793737583,0.08882605564298861
0.0024707709096679032,0.08882605564298861
0.0024707709096679032,0.08885273013417269
0.0024788664893195017,0.08885273013417269
0.0024788664893195017,0.08895942809890901
0.0024804856052498213,0.08895942809890901
0.0024804856052498213,0.0889861025900931
0.002483723837110461,0.0889861025900931
0.002483723837110461,0.08906612606364533
0.0024853429530407806,0.08906612606364533
0.0024853429530407806,0.08909280055482942
0.0024869620689711,0.08909280055482942
0.0024869620689711,0.08933287097548614
0.0024885811849014203,0.08933287097548614
0.0024885811849014203,0.08946624343140655
0.00249020030083174,0.08946624343140655
0.00249020030083174,0.0895195924137747
0.0024918194167620595,0.0895195924137747
0.0024918194167620595,0.08957294139614287
0.0024934385326923795,0.08957294139614287
0.0024934385326923795,0.08959961588732696
0.002495057648622699,0.08959961588732696
0.002495057648622699,0.08978633732561551
0.0024999149964136584,0.08978633732561551
0.0024999149964136584,0.0898130118167996
0.002501534112343978,0.0898130118167996
0.002501534112343978,0.08997305876390407
0.0025031532282742976,0.08997305876390407
0.0025031532282742976,0.08999973325508816
0.0025063914601349373,0.08999973325508816
0.0025063914601349373,0.09005308223745633
0.002508010576065257,0.09005308223745633
0.002508010576065257,0.0900797567286404
0.0025096296919955765,0.0900797567286404
0.0025096296919955765,0.09023980367574488
0.002511248807925896,0.09023980367574488
0.002511248807925896,0.09037317613166529
0.002512867923856216,0.09037317613166529
0.002512867923856216,0.0905065485875857
0.002519344387577495,0.0905065485875857
0.002519344387577495,0.09066659553469017
0.0025242017353684543,0.09066659553469017
0.0025242017353684543,0.09069327002587425
0.0025274399672290935,0.09069327002587425
0.0025274399672290935,0.0907732934994265
0.002530678199089733,0.0907732934994265
0.002530678199089733,0.09082664248179466
0.0025339164309503724,0.09082664248179466
0.0025339164309503724,0.09093334044653098
0.002535535546880692,0.09093334044653098
0.002535535546880692,0.09096001493771506
0.002537154662811012,0.09096001493771506
0.002537154662811012,0.09101336392008322
0.0025387737787413316,0.09101336392008322
0.0025387737787413316,0.09106671290245139
0.0025403928946716513,0.09106671290245139
0.0025403928946716513,0.09130678332310811
0.0025420120106019713,0.09130678332310811
0.0025420120106019713,0.09138680679666035
0.002543631126532291,0.09138680679666035
0.002543631126532291,0.09160020272613299
0.0025452502424626105,0.09160020272613299
0.0025452502424626105,0.09165355170850116
0.00254686935839293,0.09165355170850116
0.00254686935839293,0.09178692416442157
0.002553345822114209,0.09178692416442157
0.002553345822114209,0.09181359865560565
0.002554964938044529,0.09181359865560565
0.002554964938044529,0.09184027314678972
0.0025565840539748487,0.09184027314678972
0.0025565840539748487,0.0918669476379738
0.0025582031699051683,0.0918669476379738
0.0025582031699051683,0.09189362212915789
0.0025598222858354883,0.09189362212915789
0.0025598222858354883,0.09200032009389421
0.002561441401765808,0.09200032009389421
0.002561441401765808,0.09221371602336685
0.0025630605176961275,0.09221371602336685
0.0025630605176961275,0.09224039051455094
0.0025695369814174064,0.09224039051455094
0.0025695369814174064,0.09240043746165542
0.002571156097347726,0.09240043746165542
0.002571156097347726,0.09245378644402358
0.002577632561069005,0.09245378644402358
0.002577632561069005,0.09248046093520766
0.002579251676999325,0.09248046093520766
0.002579251676999325,0.09258715889994398
0.0025808707929296446,0.09258715889994398
0.0025808707929296446,0.09261383339112807
0.002582489908859964,0.09261383339112807
0.002582489908859964,0.09264050788231215
0.002584109024790284,0.09264050788231215
0.002584109024790284,0.09266718237349622
0.002585728140720604,0.09266718237349622
0.002585728140720604,0.09272053135586439
0.0025873472566509234,0.09272053135586439
0.0025873472566509234,0.09290725279415295
0.002590585488511563,0.09290725279415295
0.002590585488511563,0.09293392728533703
0.002595442836302522,0.09293392728533703
0.002595442836302522,0.09301395075888927
0.002597061952232842,0.09301395075888927
0.002597061952232842,0.09314732321480967
0.0025986810681631616,0.09314732321480967
0.0025986810681631616,0.09317399770599376
0.002600300184093481,0.09317399770599376
0.002600300184093481,0.09320067219717784
0.002601919300023801,0.09320067219717784
0.002601919300023801,0.09322734668836193
0.002603538415954121,0.09322734668836193
0.002603538415954121,0.09333404465309825
0.0026051575318844404,0.09333404465309825
0.0026051575318844404,0.09357411507375497
0.00260677664781476,0.09357411507375497
0.00260677664781476,0.09362746405612313
0.00260839576374508,0.09362746405612313
0.00260839576374508,0.09365413854730721
0.0026100148796753997,0.09365413854730721
0.0026100148796753997,0.09376083651204353
0.0026116339956057193,0.09376083651204353
0.0026116339956057193,0.0938141854944117
0.002613253111536039,0.0938141854944117
0.002613253111536039,0.09394755795033209
0.0026164913433966786,0.09394755795033209
0.0026164913433966786,0.09400090693270026
0.002619729575257318,0.09400090693270026
0.002619729575257318,0.09402758142388434
0.002621348691187638,0.09402758142388434
0.002621348691187638,0.0940809304062525
0.002624586923048277,0.0940809304062525
0.002624586923048277,0.09416095387980475
0.002626206038978597,0.09416095387980475
0.002626206038978597,0.0942143028621729
0.002632682502699876,0.0942143028621729
0.002632682502699876,0.09440102430046148
0.0026343016186301956,0.09440102430046148
0.0026343016186301956,0.09458774573875003
0.002639158966421155,0.09458774573875003
0.002639158966421155,0.09466776921230227
0.0026407780823514745,0.09466776921230227
0.0026407780823514745,0.0947744671770386
0.002642397198281794,0.0947744671770386
0.002642397198281794,0.09488116514177491
0.0026472545460727533,0.09488116514177491
0.0026472545460727533,0.09493451412414308
0.002648873662003073,0.09493451412414308
0.002648873662003073,0.09498786310651125
0.002650492777933393,0.09498786310651125
0.002650492777933393,0.0950412120888794
0.0026521118938637126,0.0950412120888794
0.0026521118938637126,0.09525460801835205
0.0026537310097940322,0.09525460801835205
0.0026537310097940322,0.09530795700072021
0.002655350125724352,0.09530795700072021
0.002655350125724352,0.09536130598308837
0.0026585883575849915,0.09536130598308837
0.0026585883575849915,0.09538798047427245
0.002660207473515311,0.09538798047427245
0.002660207473515311,0.09544132945664062
0.0026650648213062704,0.09544132945664062
0.0026650648213062704,0.0956013764037451
0.00266668393723659,0.0956013764037451
0.00266668393723659,0.09565472538611326
0.00266830305316691,0.09565472538611326
0.00266830305316691,0.0957347488596655
0.0026699221690972296,0.0957347488596655
0.0026699221690972296,0.09576142335084958
0.0026715412850275492,0.09576142335084958
0.0026715412850275492,0.09578809784203367
0.002673160400957869,0.09578809784203367
0.002673160400957869,0.09592147029795407
0.002674779516888189,0.09592147029795407
0.002674779516888189,0.09600149377150631
0.002678017748748828,0.09600149377150631
0.002678017748748828,0.09605484275387446
0.0026796368646791477,0.09605484275387446
0.0026796368646791477,0.09610819173624263
0.0026812559806094678,0.09610819173624263
0.0026812559806094678,0.09621488970097895
0.002684494212470107,0.09621488970097895
0.002684494212470107,0.09626823868334712
0.0026861133284004266,0.09626823868334712
0.0026861133284004266,0.09629491317453119
0.0026877324443307466,0.09629491317453119
0.0026877324443307466,0.09634826215689936
0.0026893515602610663,0.09634826215689936
0.0026893515602610663,0.09640161113926751
0.002692589792121706,0.09640161113926751
0.002692589792121706,0.09650830910400385
0.0026942089080520255,0.09650830910400385
0.0026942089080520255,0.09653498359518792
0.0026974471399126647,0.09653498359518792
0.0026974471399126647,0.09658833257755609
0.002699066255842985,0.09658833257755609
0.002699066255842985,0.09666835605110832
0.002702304487703624,0.09666835605110832
0.002702304487703624,0.09672170503347649
0.0027039236036339436,0.09672170503347649
0.0027039236036339436,0.09674837952466056
0.0027055427195642637,0.09674837952466056
0.0027055427195642637,0.09688175198058097
0.0027071618354945833,0.09688175198058097
0.0027071618354945833,0.09693510096294913
0.0027104000673552225,0.09693510096294913
0.0027104000673552225,0.09696177545413322
0.002713638299215862,0.09696177545413322
0.002713638299215862,0.09701512443650137
0.002716876531076502,0.09701512443650137
0.002716876531076502,0.09706847341886954
0.0027184956470068214,0.09706847341886954
0.0027184956470068214,0.09712182240123769
0.0027217338788674606,0.09712182240123769
0.0027217338788674606,0.09728186934834218
0.0027233529947977807,0.09728186934834218
0.0027233529947977807,0.09730854383952627
0.0027249721107281003,0.09730854383952627
0.0027249721107281003,0.09733521833071034
0.00272659122665842,0.09733521833071034
0.00272659122665842,0.09741524180426259
0.0027282103425887395,0.09741524180426259
0.0027282103425887395,0.09754861426018299
0.0027298294585190595,0.09754861426018299
0.0027298294585190595,0.09760196324255115
0.002731448574449379,0.09760196324255115
0.002731448574449379,0.09762863773373523
0.0027330676903796988,0.09762863773373523
0.0027330676903796988,0.0976819867161034
0.002734686806310019,0.0976819867161034
0.002734686806310019,0.09773533569847155
0.002737925038170658,0.09773533569847155
0.002737925038170658,0.09776201018965563
0.0027395441541009776,0.09776201018965563
0.0027395441541009776,0.09781535917202379
0.0027411632700312977,0.09781535917202379
0.0027411632700312977,0.09786870815439196
0.002744401501891937,0.09786870815439196
0.002744401501891937,0.09789538264557604
0.0027460206178222565,0.09789538264557604
0.0027460206178222565,0.09813545306623277
0.0027476397337525766,0.09813545306623277
0.0027476397337525766,0.098215476539785
0.0027524970815435354,0.098215476539785
0.0027524970815435354,0.09832217450452133
0.0027541161974738554,0.09832217450452133
0.0027541161974738554,0.09834884899570541
0.002755735313404175,0.09834884899570541
0.002755735313404175,0.09850889594280988
0.0027573544293344947,0.09850889594280988
0.0027573544293344947,0.09856224492517805
0.0027589735452648147,0.09856224492517805
0.0027589735452648147,0.09858891941636214
0.0027605926611951343,0.09858891941636214
0.0027605926611951343,0.09864226839873029
0.0027638308930557735,0.09864226839873029
0.0027638308930557735,0.09866894288991437
0.0027654500089860936,0.09866894288991437
0.0027654500089860936,0.09869561738109846
0.002768688240846733,0.09869561738109846
0.002768688240846733,0.09872229187228254
0.002773545588637692,0.09872229187228254
0.002773545588637692,0.09888233881938702
0.0027751647045680117,0.09888233881938702
0.0027751647045680117,0.09893568780175518
0.0027767838204983313,0.09893568780175518
0.0027767838204983313,0.0990423857664915
0.0027784029364286513,0.0990423857664915
0.0027784029364286513,0.09912240924004374
0.002780022052358971,0.09912240924004374
0.002780022052358971,0.09914908373122783
0.00278487940014993,0.09914908373122783
0.00278487940014993,0.099202432713596
0.0027881176320105694,0.099202432713596
0.0027881176320105694,0.09930913067833232
0.0027897367479408895,0.09930913067833232
0.0027897367479408895,0.09941582864306864
0.0027929749798015287,0.09941582864306864
0.0027929749798015287,0.09944250313425271
0.0027945940957318483,0.09944250313425271
0.0027945940957318483,0.09968257355490943
0.0027962132116621683,0.09968257355490943
0.0027962132116621683,0.09984262050201392
0.0027994514435228076,0.09984262050201392
0.0027994514435228076,0.09989596948438209
0.0028010705594531276,0.09989596948438209
0.0028010705594531276,0.10010936541385473
0.0028059279072440864,0.10010936541385473
0.0028059279072440864,0.10018938888740697
0.002809166139104726,0.10018938888740697
0.002809166139104726,0.10026941236095921
0.0028107852550350457,0.10026941236095921
0.0028107852550350457,0.10032276134332738
0.002818880834686644,0.10032276134332738
0.002818880834686644,0.10034943583451146
0.0028204999506169642,0.10034943583451146
0.0028204999506169642,0.1005628317639841
0.002822119066547284,0.1005628317639841
0.002822119066547284,0.10058950625516819
0.0028253572984079235,0.10058950625516819
0.0028253572984079235,0.10069620421990451
0.002826976414338243,0.10069620421990451
0.002826976414338243,0.10088292565819307
0.0028302146461988823,0.10088292565819307
0.0028302146461988823,0.10093627464056124
0.0028350719939898416,0.10093627464056124
0.0028350719939898416,0.1009629491317453
0.0028383102258504813,0.1009629491317453
0.0028383102258504813,0.10098962362292939
0.002839929341780801,0.10098962362292939
0.002839929341780801,0.10101629811411347
0.0028415484577111205,0.10101629811411347
0.0028415484577111205,0.10130971751713837
0.0028431675736414405,0.10130971751713837
0.0028431675736414405,0.10133639200832244
0.0028480249214323993,0.10133639200832244
0.0028480249214323993,0.1013897409906906
0.0028496440373627194,0.1013897409906906
0.0028496440373627194,0.10149643895542693
0.002851263153293039,0.10149643895542693
0.002851263153293039,0.10160313692016325
0.0028545013851536782,0.10160313692016325
0.0028545013851536782,0.10170983488489957
0.002857739617014318,0.10170983488489957
0.002857739617014318,0.10184320734081997
0.0028593587329446375,0.10184320734081997
0.0028593587329446375,0.10186988183200406
0.002860977848874957,0.10186988183200406
0.002860977848874957,0.10189655632318813
0.0028642160807355968,0.10189655632318813
0.0028642160807355968,0.10192323081437221
0.0028674543125962364,0.10192323081437221
0.0028674543125962364,0.1019499053055563
0.002869073428526556,0.1019499053055563
0.002869073428526556,0.10197657979674038
0.0028706925444568756,0.10197657979674038
0.0028706925444568756,0.10218997572621302
0.0028723116603871952,0.10218997572621302
0.0028723116603871952,0.10243004614686975
0.002875549892247835,0.10243004614686975
0.002875549892247835,0.1024833951292379
0.0028771690081781545,0.1024833951292379
0.0028771690081781545,0.10259009309397424
0.002878788124108474,0.10259009309397424
0.002878788124108474,0.10264344207634239
0.002880407240038794,0.10264344207634239
0.002880407240038794,0.10285683800581503
0.002886883703760073,0.10285683800581503
0.002886883703760073,0.1029101869881832
0.0028885028196903926,0.1029101869881832
0.0028885028196903926,0.10304355944410361
0.0028917410515510323,0.10304355944410361
0.0028917410515510323,0.10307023393528768
0.002893360167481352,0.10307023393528768
0.002893360167481352,0.10323028088239217
0.002896598399341991,0.10323028088239217
0.002896598399341991,0.1033103043559444
0.002898217515272311,0.1033103043559444
0.002898217515272311,0.10333697884712849
0.00290307486306327,0.10333697884712849
0.00290307486306327,0.10339032782949666
0.0029063130949239097,0.10339032782949666
0.0029063130949239097,0.10344367681186481
0.0029079322108542293,0.10344367681186481
0.0029079322108542293,0.10352370028541706
0.0029127895586451885,0.10352370028541706
0.0029127895586451885,0.10355037477660113
0.0029192660223664674,0.10355037477660113
0.0029192660223664674,0.10357704926778522
0.002920885138296787,0.10357704926778522
0.002920885138296787,0.1036037237589693
0.002922504254227107,0.1036037237589693
0.002922504254227107,0.10371042172370562
0.0029305998338787055,0.10371042172370562
0.0029305998338787055,0.10376377070607379
0.002932218949809025,0.10376377070607379
0.002932218949809025,0.10387046867081011
0.002935457181669665,0.10387046867081011
0.002935457181669665,0.10392381765317826
0.0029370762975999844,0.10392381765317826
0.0029370762975999844,0.10397716663554643
0.002938695413530304,0.10397716663554643
0.002938695413530304,0.10405719010909867
0.002940314529460624,0.10405719010909867
0.002940314529460624,0.10421723705620316
0.0029419336453909437,0.10421723705620316
0.0029419336453909437,0.10427058603857131
0.002946790993181903,0.10427058603857131
0.002946790993181903,0.1042972605297554
0.0029484101091122226,0.1042972605297554
0.0029484101091122226,0.10435060951212356
0.002950029225042542,0.10435060951212356
0.002950029225042542,0.10437728400330763
0.0029516483409728618,0.10437728400330763
0.0029516483409728618,0.1044306329856758
0.002953267456903182,0.1044306329856758
0.002953267456903182,0.10448398196804395
0.0029548865728335014,0.10448398196804395
0.0029548865728335014,0.10451065645922804
0.002956505688763821,0.10451065645922804
0.002956505688763821,0.10464402891514844
0.002958124804694141,0.10464402891514844
0.002958124804694141,0.10472405238870068
0.0029597439206244607,0.10472405238870068
0.0029597439206244607,0.10477740137106885
0.0029613630365547803,0.10477740137106885
0.0029613630365547803,0.10493744831817334
0.002967839500276059,0.10493744831817334
0.002967839500276059,0.10499079730054149
0.002971077732136699,0.10499079730054149
0.002971077732136699,0.10509749526527781
0.0029726968480670185,0.10509749526527781
0.0029726968480670185,0.10520419323001413
0.002974315963997338,0.10520419323001413
0.002974315963997338,0.10523086772119822
0.002975935079927658,0.10523086772119822
0.002975935079927658,0.10528421670356639
0.0029775541958579777,0.10528421670356639
0.0029775541958579777,0.10531089119475046
0.0029791733117882973,0.10531089119475046
0.0029791733117882973,0.10533756568593454
0.002980792427718617,0.10533756568593454
0.002980792427718617,0.10539091466830271
0.002987268891439896,0.10539091466830271
0.002987268891439896,0.10549761263303903
0.002988888007370216,0.10549761263303903
0.002988888007370216,0.10555096161540718
0.0029905071233005355,0.10555096161540718
0.0029905071233005355,0.10557763610659127
0.002992126239230855,0.10557763610659127
0.002992126239230855,0.10560431059777535
0.0029937453551611747,0.10560431059777535
0.0029937453551611747,0.10563098508895943
0.0029953644710914947,0.10563098508895943
0.0029953644710914947,0.10573768305369576
0.002998602702952134,0.10573768305369576
0.002998602702952134,0.10576435754487983
0.0030018409348127736,0.10576435754487983
0.0030034600507430932,0.10576435754487983
0.0030034600507430932,0.10605777694790472
0.0030083173985340525,0.10605777694790472
0.0030083173985340525,0.10613780042145696
0.003009936514464372,0.10613780042145696
0.003009936514464372,0.10619114940382512
0.0030131747463250117,0.10619114940382512
0.0030131747463250117,0.10629784736856145
0.0030147938622553314,0.10629784736856145
0.0030147938622553314,0.10632452185974553
0.003016412978185651,0.10632452185974553
0.003016412978185651,0.10648456880685
0.0030196512100462906,0.10648456880685
0.0030196512100462906,0.10653791778921817
0.00302288944190693,0.10653791778921817
0.00302288944190693,0.10656459228040226
0.00302450855783725,0.10656459228040226
0.00302450855783725,0.1066446157539545
0.0030261276737675695,0.1066446157539545
0.0030261276737675695,0.10675131371869082
0.003027746789697889,0.10675131371869082
0.003027746789697889,0.1067779882098749
0.0030309850215585288,0.1067779882098749
0.0030309850215585288,0.10680466270105898
0.0030326041374888484,0.10680466270105898
0.0030326041374888484,0.10683133719224305
0.0030358423693494876,0.10683133719224305
0.0030358423693494876,0.10685801168342714
0.0030374614852798076,0.10685801168342714
0.0030374614852798076,0.10688468617461122
0.0030390806012101272,0.10688468617461122
0.0030390806012101272,0.10693803515697937
0.003042318833070767,0.10693803515697937
0.003042318833070767,0.10696470964816346
0.0030439379490010865,0.10696470964816346
0.0030439379490010865,0.10704473312171571
0.003045557064931406,0.10704473312171571
0.003045557064931406,0.10707140761289978
0.0030471761808617257,0.10707140761289978
0.0030471761808617257,0.10720478006882019
0.0030487952967920458,0.10720478006882019
0.0030487952967920458,0.10728480354237242
0.003052033528652685,0.10728480354237242
0.003052033528652685,0.1073114780335565
0.0030536526445830046,0.1073114780335565
0.0030536526445830046,0.10736482701592467
0.0030552717605133247,0.10736482701592467
0.0030552717605133247,0.10739150150710876
0.0030568908764436443,0.10739150150710876
0.0030568908764436443,0.10741817599829283
0.003058509992373964,0.10741817599829283
0.003058509992373964,0.107471524980661
0.0030601291083042835,0.107471524980661
0.0030601291083042835,0.10752487396302915
0.0030617482242346035,0.10752487396302915
0.0030617482242346035,0.10768492091013364
0.003063367340164923,0.10768492091013364
0.003063367340164923,0.10776494438368588
0.0030649864560952427,0.10776494438368588
0.0030649864560952427,0.10789831683960628
0.003066605572025563,0.10789831683960628
0.003066605572025563,0.10805836378671077
0.0030682246879558824,0.10805836378671077
0.0030682246879558824,0.10819173624263118
0.003069843803886202,0.10819173624263118
0.003069843803886202,0.10821841073381525
0.0030714629198165216,0.10821841073381525
0.0030714629198165216,0.1084318066632879
0.0030730820357468417,0.1084318066632879
0.0030730820357468417,0.10856517911920831
0.0030747011516771613,0.10856517911920831
0.0030747011516771613,0.10864520259276055
0.003076320267607481,0.10864520259276055
0.003076320267607481,0.10867187708394463
0.0030779393835378005,0.10867187708394463
0.0030779393835378005,0.10893862199578543
0.00308117761539844,0.10893862199578543
0.00308117761539844,0.10904531996052175
0.00308441584725908,0.10904531996052175
0.00308441584725908,0.10909866894288991
0.003087654079119719,0.10909866894288991
0.003087654079119719,0.109125343434074
0.0030892731950500386,0.109125343434074
0.0030892731950500386,0.10928539038117847
0.0030925114269106783,0.10928539038117847
0.0030925114269106783,0.10936541385473073
0.0030973687747016376,0.10936541385473073
0.0030973687747016376,0.10957880978420337
0.003098987890631957,0.10957880978420337
0.003098987890631957,0.10960548427538745
0.0031006070065622768,0.10960548427538745
0.0031006070065622768,0.10963215876657152
0.0031022261224925964,0.10963215876657152
0.0031022261224925964,0.10971218224012377
0.0031022261224925964,0.10979220571367601
0.0031022261224925964,0.10984555469604418
0.0031038452384229164,0.10984555469604418
0.0031038452384229164,0.10992557816959642
0.003105464354353236,0.10992557816959642
0.003105464354353236,0.11003227613433274
0.0031070834702835557,0.11003227613433274
0.0031070834702835557,0.11005895062551682
0.0031087025862138757,0.11005895062551682
0.0031087025862138757,0.1100856251167009
0.0031103217021441953,0.1100856251167009
0.0031103217021441953,0.11011229960788498
0.003111940818074515,0.11011229960788498
0.003111940818074515,0.11013897409906906
0.0031135599340048345,0.11013897409906906
0.0031135599340048345,0.11019232308143723
0.0031151790499351546,0.11019232308143723
0.0031151790499351546,0.1102189975726213
0.003116798165865474,0.1102189975726213
0.003116798165865474,0.11024567206380538
0.0031200363977261134,0.11024567206380538
0.0031200363977261134,0.11029902104617355
0.0031248937455170727,0.11029902104617355
0.0031248937455170727,0.11032569553735762
0.0031265128614473923,0.11032569553735762
0.0031265128614473923,0.11037904451972579
0.003129751093308032,0.11037904451972579
0.003129751093308032,0.11040571901090987
0.0031313702092383515,0.11040571901090987
0.0031313702092383515,0.11048574248446211
0.003136227557029311,0.11048574248446211
0.003136227557029311,0.11059244044919843
0.0031394657888899505,0.11059244044919843
0.0031394657888899505,0.1106457894315666
0.0031443231366809093,0.1106457894315666
0.0031443231366809093,0.11069913841393475
0.0031459422526112293,0.11069913841393475
0.0031459422526112293,0.11072581290511883
0.003147561368541549,0.11072581290511883
0.003147561368541549,0.110779161887487
0.0031491804844718686,0.110779161887487
0.0031491804844718686,0.11085918536103924
0.0031507996004021886,0.11085918536103924
0.0031507996004021886,0.11088585985222332
0.003152418716332508,0.11088585985222332
0.003152418716332508,0.11101923230814373
0.0031556569481931474,0.11101923230814373
0.0031556569481931474,0.1110459067993278
0.0031572760641234675,0.1110459067993278
0.0031572760641234675,0.11109925578169597
0.003158895180053787,0.11109925578169597
0.003158895180053787,0.11112593027288005
0.0031605142959841067,0.11112593027288005
0.0031605142959841067,0.11115260476406412
0.0031621334119144263,0.11115260476406412
0.0031621334119144263,0.11123262823761637
0.003165371643775066,0.11123262823761637
0.003165371643775066,0.11131265171116861
0.0031702289915660252,0.11131265171116861
0.0031702289915660252,0.11139267518472085
0.003171848107496345,0.11139267518472085
0.003171848107496345,0.11141934967590493
0.0031734672234266645,0.11141934967590493
0.0031734672234266645,0.11149937314945717
0.0031799436871479433,0.11149937314945717
0.0031799436871479433,0.11165942009656166
0.0031815628030782634,0.11165942009656166
0.0031815628030782634,0.11176611806129798
0.003183181919008583,0.11176611806129798
0.003183181919008583,0.11181946704366615
0.0031848010349389026,0.11181946704366615
0.0031848010349389026,0.1118728160260343
0.0031912774986601815,0.1118728160260343
0.0031912774986601815,0.1120061884819547
0.0031928966145905015,0.1120061884819547
0.0031928966145905015,0.1121662354290592
0.003194515730520821,0.1121662354290592
0.003194515730520821,0.11221958441142735
0.0031961348464511407,0.11221958441142735
0.0031961348464511407,0.11227293339379552
0.0031977539623814603,0.11227293339379552
0.0031977539623814603,0.11245965483208407
0.0032026113101724196,0.11245965483208407
0.0032026113101724196,0.11251300381445224
0.0032058495420330593,0.11251300381445224
0.0032058495420330593,0.11261970177918856
0.003207468657963379,0.11261970177918856
0.003207468657963379,0.11267305076155672
0.0032090877738936985,0.11267305076155672
0.0032090877738936985,0.11280642321747712
0.003210706889824018,0.11280642321747712
0.003210706889824018,0.11285977219984529
0.003212326005754338,0.11285977219984529
0.003212326005754338,0.11304649363813385
0.0032139451216846577,0.11304649363813385
0.0032139451216846577,0.11307316812931793
0.0032155642376149774,0.11307316812931793
0.0032155642376149774,0.11315319160287017
0.003218802469475617,0.11315319160287017
0.003218802469475617,0.11328656405879058
0.0032204215854059366,0.11328656405879058
0.0032204215854059366,0.11336658753234283
0.0032220407013362562,0.11336658753234283
0.0032220407013362562,0.11341993651471098
0.0032236598172665763,0.11341993651471098
0.0032236598172665763,0.11347328549707915
0.003225278933196896,0.11347328549707915
0.003225278933196896,0.11349995998826322
0.0032268980491272155,0.11349995998826322
0.0032268980491272155,0.1135266344794473
0.003230136280987855,0.1135266344794473
0.003230136280987855,0.11355330897063139
0.0032333745128484944,0.11355330897063139
0.0032333745128484944,0.11363333244418362
0.003234993628778814,0.11363333244418362
0.003234993628778814,0.11371335591773588
0.003236612744709134,0.11371335591773588
0.003236612744709134,0.11376670490010403
0.0032398509765697732,0.11376670490010403
0.0032398509765697732,0.1138200538824722
0.003243089208430413,0.1138200538824722
0.003243089208430413,0.11392675184720852
0.0032447083243607325,0.11392675184720852
0.0032447083243607325,0.11398010082957667
0.003246327440291052,0.11398010082957667
0.003246327440291052,0.11416682226786525
0.0032495656721516918,0.11416682226786525
0.0032495656721516918,0.11427352023260157
0.0032511847880820114,0.11427352023260157
0.0032511847880820114,0.1143535437061538
0.003252803904012331,0.1143535437061538
0.003252803904012331,0.11438021819733789
0.003254423019942651,0.11438021819733789
0.003254423019942651,0.11446024167089013
0.0032560421358729707,0.11446024167089013
0.0032560421358729707,0.11448691616207421
0.0032592803677336103,0.11448691616207421
0.0032592803677336103,0.11454026514444236
0.00326089948366393,0.11454026514444236
0.00326089948366393,0.11456693963562645
0.0032625185995942495,0.11456693963562645
0.0032625185995942495,0.11459361412681053
0.003267375947385209,0.11459361412681053
0.003267375947385209,0.11467363760036277
0.0032689950633155284,0.11467363760036277
0.0032689950633155284,0.11475366107391502
0.003270614179245848,0.11475366107391502
0.003270614179245848,0.11480701005628317
0.003272233295176168,0.11480701005628317
0.003272233295176168,0.1150470804769399
0.0032738524111064877,0.1150470804769399
0.0032738524111064877,0.11510042945930807
0.0032754715270368073,0.11510042945930807
0.0032754715270368073,0.11526047640641254
0.003278709758897447,0.11526047640641254
0.003278709758897447,0.11528715089759663
0.003283567106688406,0.11528715089759663
0.003283567106688406,0.11531382538878071
0.003285186222618726,0.11531382538878071
0.003285186222618726,0.1154738723358852
0.003288424454479365,0.1154738723358852
0.003288424454479365,0.11550054682706927
0.003290043570409685,0.11550054682706927
0.003290043570409685,0.11560724479180559
0.0032916626863400047,0.11560724479180559
0.0032916626863400047,0.11571394275654191
0.0032932818022703243,0.11571394275654191
0.0032932818022703243,0.11603403665075089
0.003294900918200644,0.11603403665075089
0.003294900918200644,0.11606071114193496
0.003296520034130964,0.11606071114193496
0.003296520034130964,0.11611406012430313
0.0032981391500612836,0.11611406012430313
0.0032981391500612836,0.11627410707140762
0.003302996497852243,0.11627410707140762
0.003302996497852243,0.11632745605377577
0.0033046156137825624,0.11632745605377577
0.0033046156137825624,0.11635413054495986
0.003306234729712882,0.11635413054495986
0.003306234729712882,0.11638080503614394
0.0033094729615735217,0.11638080503614394
0.0033094729615735217,0.11643415401851209
0.003314330309364481,0.11643415401851209
0.003314330309364481,0.11646082850969618
0.0033159494252948006,0.11646082850969618
0.0033159494252948006,0.11659420096561658
0.00331756854122512,0.11659420096561658
0.00331756854122512,0.11678092240390514
0.00332080677308576,0.11678092240390514
0.00332080677308576,0.11686094587745739
0.003324045004946399,0.11686094587745739
0.003324045004946399,0.11691429485982555
0.003325664120876719,0.11691429485982555
0.003325664120876719,0.11696764384219371
0.003330521468667678,0.11696764384219371
0.003330521468667678,0.11702099282456187
0.003332140584597998,0.11702099282456187
0.003332140584597998,0.11707434180693004
0.0033337597005283176,0.11707434180693004
0.0033337597005283176,0.11715436528048227
0.003335378816458637,0.11715436528048227
0.003335378816458637,0.11718103977166636
0.003336997932388957,0.11718103977166636
0.003336997932388957,0.11720771426285044
0.003338617048319277,0.11720771426285044
0.003338617048319277,0.11728773773640268
0.0033450935120405557,0.11728773773640268
0.0033450935120405557,0.11736776120995492
0.0033467126279708753,0.11736776120995492
0.0033467126279708753,0.11750113366587532
0.003349950859831515,0.11750113366587532
0.003349950859831515,0.11779455306890022
0.0033515699757618346,0.11779455306890022
0.0033515699757618346,0.11784790205126837
0.003353189091692154,0.11784790205126837
0.003353189091692154,0.11800794899837286
0.003354808207622474,0.11800794899837286
0.003354808207622474,0.11816799594547733
0.0033580464394831135,0.11816799594547733
0.0033580464394831135,0.11819467043666142
0.003359665555413433,0.11819467043666142
0.003359665555413433,0.1183547173837659
0.0033612846713437527,0.1183547173837659
0.0033612846713437527,0.11838139187494999
0.0033645229032043924,0.11838139187494999
0.0033645229032043924,0.11878150924271119
0.003366142019134712,0.11878150924271119
0.003366142019134712,0.11894155618981568
0.003367761135065032,0.11894155618981568
0.003367761135065032,0.11896823068099976
0.0033709993669256712,0.11896823068099976
0.0033709993669256712,0.11899490517218383
0.003372618482855991,0.11899490517218383
0.003372618482855991,0.11907492864573609
