fpr,tpr
0.0,0.0
0.0,0.00031969309462915604
0.0,0.007352941176470588
1.6965830816735095e-05,0.007352941176470588
1.6965830816735095e-05,0.017263427109974423
3.393166163347019e-05,0.017263427109974423
3.393166163347019e-05,0.029411764705882353
5.0897492450205286e-05,0.029411764705882353
5.0897492450205286e-05,0.030690537084398978
6.786332326694038e-05,0.030690537084398978
6.786332326694038e-05,0.039322250639386186
8.482915408367548e-05,0.039322250639386186
8.482915408367548e-05,0.046675191815856776
0.00010179498490041057,0.046675191815856776
0.00010179498490041057,0.05115089514066496
0.00011876081571714567,0.05115089514066496
0.00011876081571714567,0.052429667519181586
0.00013572664653388076,0.052429667519181586
0.00013572664653388076,0.053388746803069057
0.00015269247735061586,0.053388746803069057
0.00015269247735061586,0.06841432225063938
0.00016965830816735095,0.06841432225063938
0.00016965830816735095,0.06905370843989769
0.00018662413898408605,0.06905370843989769
0.00018662413898408605,0.07289002557544758
0.00020358996980082114,0.07289002557544758
0.00020358996980082114,0.07608695652173914
0.00022055580061755624,0.07608695652173914
0.00022055580061755624,0.08120204603580562
0.00023752163143429133,0.08120204603580562
0.00023752163143429133,0.08152173913043478
0.00025448746225102643,0.08152173913043478
0.00025448746225102643,0.08184143222506395
0.0002714532930677615,0.08184143222506395
0.0002714532930677615,0.0879156010230179
0.0002884191238844966,0.0879156010230179
0.0002884191238844966,0.11540920716112532
0.0003053849547012317,0.11540920716112532
0.0003053849547012317,0.11604859335038363
0.0003223507855179668,0.11604859335038363
0.0003223507855179668,0.1198849104859335
0.0003393166163347019,0.1198849104859335
0.0003393166163347019,0.12084398976982097
0.000356282447151437,0.12084398976982097
0.000356282447151437,0.12148337595907928
0.0003732482779681721,0.12148337595907928
0.0003732482779681721,0.12276214833759591
0.0003902141087849072,0.12276214833759591
0.0003902141087849072,0.12627877237851662
0.0004071799396016423,0.12627877237851662
0.0004071799396016423,0.12819693094629156
0.0004241457704183774,0.12819693094629156
0.0004241457704183774,0.12947570332480818
0.0004411116012351125,0.12947570332480818
0.0004411116012351125,0.13554987212276215
0.00045807743205184757,0.13554987212276215
0.00045807743205184757,0.1358695652173913
0.00047504326286858267,0.1358695652173913
0.00047504326286858267,0.13650895140664962
0.0005089749245020529,0.13650895140664962
0.0005089749245020529,0.13714833759590792
0.000525940755318788,0.13714833759590792
0.000525940755318788,0.1374680306905371
0.000542906586135523,0.1374680306905371
0.000542906586135523,0.1387468030690537
0.0005598724169522582,0.1387468030690537
0.0005598724169522582,0.14801790281329924
0.0005768382477689932,0.14801790281329924
0.0005768382477689932,0.14865728900255754
0.0005938040785857284,0.14865728900255754
0.0005938040785857284,0.15025575447570333
0.0006107699094024634,0.15025575447570333
0.0006107699094024634,0.15089514066496162
0.0006277357402191986,0.15089514066496162
0.0006277357402191986,0.1534526854219949
0.0006277357402191986,0.15409207161125318
0.0006447015710359336,0.15409207161125318
0.0006447015710359336,0.15569053708439898
0.0006786332326694038,0.15569053708439898
0.0006786332326694038,0.15601023017902813
0.000695599063486139,0.15601023017902813
0.000695599063486139,0.15664961636828645
0.000712564894302874,0.15664961636828645
0.000712564894302874,0.15760869565217392
0.0007295307251196091,0.15760869565217392
0.0007295307251196091,0.15952685421994886
0.0007464965559363442,0.15952685421994886
0.0007464965559363442,0.159846547314578
0.0007634623867530793,0.159846547314578
0.0007634623867530793,0.16016624040920716
0.0007804282175698144,0.16016624040920716
0.0007804282175698144,0.16176470588235295
0.0008143598792032846,0.16176470588235295
0.0008143598792032846,0.1636828644501279
0.0008313257100200197,0.1636828644501279
0.0008313257100200197,0.16400255754475704
0.0008482915408367548,0.16400255754475704
0.0008482915408367548,0.16592071611253198
0.0008652573716534899,0.16592071611253198
0.0008652573716534899,0.16624040920716113
0.000882223202470225,0.16624040920716113
0.000882223202470225,0.16656010230179027
0.0008991890332869601,0.16656010230179027
0.0008991890332869601,0.16687979539641945
0.0009161548641036951,0.16687979539641945
0.0009161548641036951,0.1678388746803069
0.0009331206949204303,0.1678388746803069
0.0009331206949204303,0.1723145780051151
0.0009500865257371653,0.1723145780051151
0.0009500865257371653,0.1729539641943734
0.0010009840181873706,0.1729539641943734
0.0010009840181873706,0.17359335038363172
0.0010179498490041057,0.17359335038363172
0.0010179498490041057,0.17615089514066495
0.0010349156798208409,0.17615089514066495
0.0010349156798208409,0.17742966751918157
0.001051881510637576,0.17742966751918157
0.001051881510637576,0.17870843989769822
0.001068847341454311,0.17870843989769822
0.001068847341454311,0.17902813299232737
0.001085813172271046,0.17902813299232737
0.001085813172271046,0.1793478260869565
0.0011027790030877812,0.1793478260869565
0.0011027790030877812,0.17998721227621484
0.0011197448339045164,0.17998721227621484
0.0011197448339045164,0.18062659846547316
0.0011367106647212513,0.18062659846547316
0.0011367106647212513,0.1809462915601023
0.0011536764955379865,0.1809462915601023
0.0011536764955379865,0.18190537084398978
0.0011706423263547216,0.18190537084398978
0.0011706423263547216,0.1860613810741688
0.0011876081571714568,0.1860613810741688
0.0011876081571714568,0.18638107416879796
0.0012045739879881917,0.18638107416879796
0.0012045739879881917,0.19053708439897699
0.001238505649621662,0.19053708439897699
0.001238505649621662,0.19117647058823528
0.0012554714804383972,0.19117647058823528
0.0012554714804383972,0.19149616368286446
0.001272437311255132,0.19149616368286446
0.001272437311255132,0.1918158567774936
0.0013063689728886024,0.1918158567774936
0.0013063689728886024,0.19277493606138107
0.0013233348037053375,0.19277493606138107
0.0013233348037053375,0.1934143222506394
0.0013403006345220725,0.1934143222506394
0.0013403006345220725,0.19373401534526855
0.0013572664653388076,0.19373401534526855
0.0013572664653388076,0.19469309462915602
0.0013742322961555428,0.19469309462915602
0.0013742322961555428,0.1953324808184143
0.001391198126972278,0.1953324808184143
0.001391198126972278,0.20076726342711
0.0014420956194224831,0.20076726342711
0.0014420956194224831,0.20172634271099743
0.0014760272810559532,0.20172634271099743
0.0014760272810559532,0.20364450127877237
0.0014929931118726884,0.20364450127877237
0.0014929931118726884,0.20396419437340155
0.0015099589426894235,0.20396419437340155
0.0015099589426894235,0.20460358056265984
0.0015269247735061587,0.20460358056265984
0.0015269247735061587,0.20652173913043478
0.0015438906043228936,0.20652173913043478
0.0015438906043228936,0.2071611253196931
0.001577822265956364,0.2071611253196931
0.001577822265956364,0.2078005115089514
0.001594788096773099,0.2078005115089514
0.001594788096773099,0.20907928388746802
0.0016287197584065691,0.20907928388746802
0.0016287197584065691,0.2100383631713555
0.0016626514200400394,0.2100383631713555
0.0016626514200400394,0.21195652173913043
0.0016965830816735095,0.21195652173913043
0.0016965830816735095,0.2129156010230179
0.0017305147433069798,0.2129156010230179
0.0017305147433069798,0.21355498721227623
0.0017474805741237148,0.21355498721227623
0.0017474805741237148,0.21483375959079284
0.001781412235757185,0.21483375959079284
0.001781412235757185,0.2180306905370844
0.0018492755590241254,0.2180306905370844
0.0018492755590241254,0.21835038363171355
0.0018662413898408606,0.21835038363171355
0.0018662413898408606,0.2186700767263427
0.0018832072206575955,0.2186700767263427
0.0018832072206575955,0.22122762148337596
0.0019171388822910658,0.22122762148337596
0.0019171388822910658,0.2215473145780051
0.001934104713107801,0.2215473145780051
0.001934104713107801,0.2237851662404092
0.001951070543924536,0.2237851662404092
0.001951070543924536,0.22506393861892582
0.0019680363747412713,0.22506393861892582
0.0019680363747412713,0.22730179028132994
0.001985002205558006,0.22730179028132994
0.001985002205558006,0.22826086956521738
0.002001968036374741,0.22826086956521738
0.002001968036374741,0.22985933503836317
0.0020189338671914763,0.22985933503836317
0.0020189338671914763,0.23017902813299232
0.0020358996980082114,0.23017902813299232
0.0020358996980082114,0.23209718670076726
0.0020698313596416817,0.23209718670076726
0.0020698313596416817,0.23273657289002558
0.002086797190458417,0.23273657289002558
0.002086797190458417,0.23305626598465473
0.002103763021275152,0.23305626598465473
0.002103763021275152,0.23497442455242967
0.0021207288520918867,0.23497442455242967
0.0021207288520918867,0.23561381074168797
0.002137694682908622,0.23561381074168797
0.002137694682908622,0.23689258312020461
0.002154660513725357,0.23689258312020461
0.002154660513725357,0.23849104859335038
0.0021885921753588273,0.23849104859335038
0.0021885921753588273,0.23945012787723785
0.0022055580061755625,0.23945012787723785
0.0022055580061755625,0.2413682864450128
0.0022225238369922976,0.2413682864450128
0.0022225238369922976,0.2420076726342711
0.0022564554986257675,0.2420076726342711
0.0022564554986257675,0.2426470588235294
0.0022734213294425027,0.2426470588235294
0.0022734213294425027,0.24328644501278773
0.002290387160259238,0.24328644501278773
0.002290387160259238,0.24360613810741688
0.002307352991075973,0.24360613810741688
0.002307352991075973,0.2442455242966752
0.002324318821892708,0.2442455242966752
0.002324318821892708,0.24456521739130435
0.0023412846527094433,0.24456521739130435
0.0023412846527094433,0.24520460358056265
0.0023412846527094433,0.24584398976982097
0.0023412846527094433,0.24808184143222506
0.0023582504835261784,0.24808184143222506
0.0023582504835261784,0.25031969309462915
0.0023921821451596483,0.25031969309462915
0.0023921821451596483,0.2515984654731458
0.0024091479759763834,0.2515984654731458
0.0024091479759763834,0.2522378516624041
0.002477011299243324,0.2522378516624041
0.002477011299243324,0.25255754475703324
0.0025109429608767943,0.25255754475703324
0.0025109429608767943,0.2531969309462916
0.002527908791693529,0.2531969309462916
0.002527908791693529,0.25351662404092073
0.0025618404533269993,0.25351662404092073
0.0025618404533269993,0.2538363171355499
0.0025788062841437345,0.2538363171355499
0.0025788062841437345,0.2547953964194373
0.0025957721149604696,0.2547953964194373
0.0025957721149604696,0.2557544757033248
0.0026127379457772048,0.2557544757033248
0.0026127379457772048,0.2563938618925831
0.002646669607410675,0.2563938618925831
0.002646669607410675,0.25671355498721227
0.00266363543822741,0.25671355498721227
0.00266363543822741,0.26054987212276215
0.002680601269044145,0.26054987212276215
0.002680601269044145,0.2608695652173913
0.00269756709986088,0.2608695652173913
0.00269756709986088,0.2615089514066496
0.0027145329306776152,0.2615089514066496
0.0027145329306776152,0.2618286445012788
0.0027314987614943504,0.2618286445012788
0.0027314987614943504,0.26214833759590794
0.0027484645923110855,0.26214833759590794
0.0027484645923110855,0.26278772378516624
0.0027654304231278207,0.26278772378516624
0.0027654304231278207,0.2672634271099744
0.002782396253944556,0.2672634271099744
0.002782396253944556,0.2695012787723785
0.0027993620847612906,0.2695012787723785
0.0027993620847612906,0.26982097186700765
0.0028163279155780257,0.26982097186700765
0.0028163279155780257,0.270460358056266
0.0028163279155780257,0.2710997442455243
0.002850259577211496,0.2710997442455243
0.002850259577211496,0.27205882352941174
0.0028841912388449663,0.27205882352941174
0.0028841912388449663,0.27301790281329924
0.0029011570696617014,0.27301790281329924
0.0029011570696617014,0.2739769820971867
0.0029181229004784366,0.2739769820971867
0.0029181229004784366,0.27461636828644503
0.0029350887312951713,0.27461636828644503
0.0029350887312951713,0.2749360613810742
0.0029690203929286416,0.2749360613810742
0.0029690203929286416,0.2758951406649616
0.0029859862237453768,0.2758951406649616
0.0029859862237453768,0.27621483375959077
0.0030538495470123174,0.27621483375959077
0.0030538495470123174,0.27717391304347827
0.0030877812086457872,0.27717391304347827
0.0030877812086457872,0.2774936061381074
0.0031047470394625224,0.2774936061381074
0.0031047470394625224,0.2790920716112532
0.0031217128702792575,0.2790920716112532
0.0031217128702792575,0.27941176470588236
0.0031386787010959927,0.27941176470588236
0.0031386787010959927,0.28005115089514065
0.003155644531912728,0.28005115089514065
0.003155644531912728,0.2803708439897698
0.003172610362729463,0.2803708439897698
0.003172610362729463,0.28101023017902815
0.003189576193546198,0.28101023017902815
0.003189576193546198,0.2835677749360614
0.003206542024362933,0.2835677749360614
0.003206542024362933,0.28548593350383633
0.003223507855179668,0.28548593350383633
0.003223507855179668,0.2861253196930946
0.0032574395168131383,0.2861253196930946
0.0032574395168131383,0.2893222506393862
0.0032744053476298734,0.2893222506393862
0.0032744053476298734,0.29092071611253195
0.003342268670896814,0.29092071611253195
0.003342268670896814,0.29251918158567775
0.0033592345017135487,0.29251918158567775
0.0033592345017135487,0.29315856777493604
0.003376200332530284,0.29315856777493604
0.003376200332530284,0.29475703324808183
0.003393166163347019,0.29475703324808183
0.003393166163347019,0.2960358056265985
0.003410131994163754,0.2960358056265985
0.003410131994163754,0.2966751918158568
0.0034610294866139596,0.2966751918158568
0.0034610294866139596,0.2969948849104859
0.003477995317430695,0.2969948849104859
0.003477995317430695,0.29923273657289
0.0034949611482474295,0.29923273657289
0.0034949611482474295,0.30051150895140666
0.003545858640697635,0.30051150895140666
0.003545858640697635,0.3014705882352941
0.00356282447151437,0.3014705882352941
0.00356282447151437,0.30274936061381075
0.0036306877947813103,0.30274936061381075
0.0036306877947813103,0.3030690537084399
0.0036815852872315157,0.3030690537084399
0.0036815852872315157,0.3040281329923274
0.003698551118048251,0.3040281329923274
0.003698551118048251,0.30562659846547313
0.003732482779681721,0.30562659846547313
0.003732482779681721,0.3062659846547315
0.0037494486104984563,0.3062659846547315
0.0037494486104984563,0.30658567774936063
0.003766414441315191,0.30658567774936063
0.003766414441315191,0.30818414322250637
0.003783380272131926,0.30818414322250637
0.003783380272131926,0.30850383631713557
0.0038003461029486613,0.30850383631713557
0.0038003461029486613,0.3088235294117647
0.0038173119337653965,0.3088235294117647
0.0038173119337653965,0.31425831202046034
0.0038342777645821316,0.31425831202046034
0.0038342777645821316,0.315537084398977
0.0038512435953988668,0.315537084398977
0.0038512435953988668,0.31585677749360613
0.003868209426215602,0.31585677749360613
0.003868209426215602,0.31649616368286443
0.003902141087849072,0.31649616368286443
0.003902141087849072,0.3177749360613811
0.003953038580299277,0.3177749360613811
0.003953038580299277,0.3190537084398977
0.003970004411116012,0.3190537084398977
0.003970004411116012,0.31937340153452687
0.0039869702419327475,0.31937340153452687
0.0039869702419327475,0.319693094629156
0.004003936072749482,0.319693094629156
0.004003936072749482,0.3203324808184143
0.004020901903566218,0.3203324808184143
0.004020901903566218,0.3209718670076726
0.0040378677343829526,0.3209718670076726
0.0040378677343829526,0.32161125319693096
0.0040887652268331584,0.32161125319693096
0.0040887652268331584,0.32225063938618925
0.004105731057649893,0.32225063938618925
0.004105731057649893,0.32320971867007675
0.004122696888466628,0.32320971867007675
0.004122696888466628,0.32384910485933505
0.0041396627192833635,0.32384910485933505
0.0041396627192833635,0.3248081841432225
0.004156628550100098,0.3248081841432225
0.004156628550100098,0.3264066496163683
0.0041905602117335685,0.3264066496163683
0.0041905602117335685,0.3270460358056266
0.004207526042550304,0.3270460358056266
0.004207526042550304,0.3273657289002558
0.004224491873367039,0.3273657289002558
0.004224491873367039,0.3289641943734015
0.004258423535000509,0.3289641943734015
0.004258423535000509,0.33024296675191817
0.004275389365817244,0.33024296675191817
0.004275389365817244,0.3305626598465473
0.004309321027450714,0.3305626598465473
0.004309321027450714,0.33152173913043476
0.004343252689084184,0.33152173913043476
0.004343252689084184,0.33248081841432225
0.00436021851990092,0.33248081841432225
0.00436021851990092,0.33407928388746805
0.004377184350717655,0.33407928388746805
0.004377184350717655,0.335997442455243
0.004394150181534389,0.335997442455243
0.004394150181534389,0.33631713554987214
0.004411116012351125,0.33631713554987214
0.004411116012351125,0.3366368286445013
0.004529876828068271,0.3366368286445013
0.004529876828068271,0.3382352941176471
0.004563808489701741,0.3382352941176471
0.004563808489701741,0.3385549872122762
0.004580774320518476,0.3385549872122762
0.004580774320518476,0.3388746803069054
0.004614705982151946,0.3388746803069054
0.004614705982151946,0.33951406649616367
0.0046316718129686815,0.33951406649616367
0.0046316718129686815,0.340153452685422
0.004648637643785416,0.340153452685422
0.004648637643785416,0.34047314578005117
0.0046825693054188865,0.34047314578005117
0.0046825693054188865,0.3414322250639386
0.004716500967052357,0.3414322250639386
0.004716500967052357,0.34175191815856776
0.0047334667978690915,0.34175191815856776
0.0047334667978690915,0.3423913043478261
0.004750432628685827,0.3423913043478261
0.004750432628685827,0.34335038363171355
0.004767398459502562,0.34335038363171355
0.004767398459502562,0.34430946291560105
0.004801330121136032,0.34430946291560105
0.004801330121136032,0.3452685421994885
0.004818295951952767,0.3452685421994885
0.004835261782769502,0.34558823529411764
0.004835261782769502,0.3475063938618926
0.004852227613586237,0.3475063938618926
0.004852227613586237,0.3481457800511509
0.004903125106036443,0.3481457800511509
0.004903125106036443,0.3491048593350384
0.004920090936853178,0.3491048593350384
0.004920090936853178,0.3510230179028133
0.0049370567676699124,0.3510230179028133
0.0049370567676699124,0.35134271099744246
0.004954022598486648,0.35134271099744246
0.004954022598486648,0.3516624040920716
0.004970988429303383,0.3516624040920716
0.004970988429303383,0.3532608695652174
0.005004920090936853,0.3532608695652174
0.005004920090936853,0.35485933503836314
0.005038851752570323,0.35485933503836314
0.005038851752570323,0.35517902813299235
0.005055817583387058,0.35517902813299235
0.005055817583387058,0.35581841432225064
0.005089749245020528,0.35581841432225064
0.005089749245020528,0.35645780051150894
0.005106715075837264,0.35645780051150894
0.005106715075837264,0.3567774936061381
0.005140646737470734,0.3567774936061381
0.005140646737470734,0.3570971867007673
0.005208510060737674,0.3570971867007673
0.005208510060737674,0.358695652173913
0.0052254758915544096,0.358695652173913
0.0052254758915544096,0.3593350383631714
0.00525940755318788,0.3593350383631714
0.00525940755318788,0.36157289002557547
0.0052763733840046146,0.36157289002557547
0.0052763733840046146,0.3625319693094629
0.00529333921482135,0.3625319693094629
0.00529333921482135,0.36285166240409206
0.005310305045638085,0.36285166240409206
0.005310305045638085,0.36381074168797956
0.005344236707271555,0.36381074168797956
0.005344236707271555,0.3641304347826087
0.00539513419972176,0.3641304347826087
0.00539513419972176,0.36668797953964194
0.005412100030538496,0.36668797953964194
0.005412100030538496,0.3670076726342711
0.0054290658613552305,0.3670076726342711
0.0054290658613552305,0.36732736572890023
0.005446031692171966,0.36732736572890023
0.005446031692171966,0.36764705882352944
0.005462997522988701,0.36764705882352944
0.005462997522988701,0.3679667519181586
0.0054799633538054355,0.3679667519181586
0.0054799633538054355,0.3695652173913043
0.005496929184622171,0.3695652173913043
0.005513895015438906,0.3698849104859335
0.005513895015438906,0.3705242966751918
0.005530860846255641,0.3705242966751918
0.005530860846255641,0.37084398976982097
0.005564792507889112,0.37084398976982097
0.005564792507889112,0.37148337595907927
0.005598724169522581,0.37148337595907927
0.005598724169522581,0.37244245524296676
0.005632655831156051,0.37244245524296676
0.005632655831156051,0.3727621483375959
0.005649621661972787,0.3727621483375959
0.005649621661972787,0.3734015345268542
0.005666587492789522,0.3734015345268542
0.005666587492789522,0.37468030690537085
0.005700519154422992,0.37468030690537085
0.005700519154422992,0.3756393861892583
0.005717484985239728,0.3756393861892583
0.005717484985239728,0.37691815856777494
0.005734450816056462,0.37691815856777494
0.005734450816056462,0.37851662404092073
0.005751416646873197,0.37851662404092073
0.005751416646873197,0.3788363171355499
0.005785348308506667,0.3788363171355499
0.005785348308506667,0.3794757033248082
0.005819279970140138,0.3794757033248082
0.005819279970140138,0.3797953964194373
0.005836245800956873,0.3797953964194373
0.005836245800956873,0.3801150895140665
0.005853211631773608,0.3801150895140665
0.005853211631773608,0.3804347826086957
0.005887143293407078,0.3804347826086957
0.005887143293407078,0.3820332480818414
0.0059210749550405485,0.3820332480818414
0.0059210749550405485,0.38235294117647056
0.005955006616674019,0.38235294117647056
0.005955006616674019,0.38267263427109977
0.0059719724474907535,0.38267263427109977
0.0059719724474907535,0.3829923273657289
0.005988938278307489,0.3829923273657289
0.005988938278307489,0.38331202046035806
0.0060228699399409585,0.38331202046035806
0.0060228699399409585,0.38554987212276215
0.006056801601574429,0.38554987212276215
0.006056801601574429,0.38618925831202044
0.006090733263207899,0.38618925831202044
0.006090733263207899,0.3865089514066496
0.00615859658647484,0.3865089514066496
0.00615859658647484,0.3868286445012788
0.0061755624172915745,0.3868286445012788
0.0061755624172915745,0.38714833759590794
0.00619252824810831,0.38714833759590794
0.00619252824810831,0.3874680306905371
0.006209494078925045,0.3874680306905371
0.006209494078925045,0.3897058823529412
0.006277357402191985,0.3897058823529412
0.006277357402191985,0.3900255754475703
0.00629432323300872,0.3900255754475703
0.00629432323300872,0.3909846547314578
0.00632825489464219,0.3909846547314578
0.00632825489464219,0.39194373401534527
0.006396118217909131,0.39194373401534527
0.006396118217909131,0.3922634271099744
0.006447015710359336,0.3922634271099744
0.006447015710359336,0.3929028132992327
0.006480947371992806,0.3929028132992327
0.006480947371992806,0.3932225063938619
0.006514879033626277,0.3932225063938619
0.006514879033626277,0.39354219948849106
0.006548810695259747,0.39354219948849106
0.006548810695259747,0.39514066496163686
0.006582742356893217,0.39514066496163686
0.006582742356893217,0.39641943734015345
0.006599708187709952,0.39641943734015345
0.006599708187709952,0.39705882352941174
0.006633639849343422,0.39705882352941174
0.006633639849343422,0.3976982097186701
0.006650605680160158,0.3976982097186701
0.006650605680160158,0.3983375959079284
0.006684537341793628,0.3983375959079284
0.006684537341793628,0.39865728900255754
0.006701503172610363,0.39865728900255754
0.006701503172610363,0.4005754475703325
0.0067184690034270975,0.4005754475703325
0.0067184690034270975,0.40121483375959077
0.006735434834243833,0.40121483375959077
0.006735434834243833,0.40281329923273657
0.006752400665060568,0.40281329923273657
0.006752400665060568,0.4031329923273657
0.006769366495877303,0.4031329923273657
0.006769366495877303,0.40345268542199486
0.006803298157510774,0.40345268542199486
0.006803298157510774,0.40441176470588236
0.006820263988327508,0.40441176470588236
0.006820263988327508,0.40505115089514065
0.006837229819144243,0.40505115089514065
0.006837229819144243,0.4053708439897698
0.006854195649960979,0.4053708439897698
0.006854195649960979,0.40569053708439895
0.006871161480777713,0.40569053708439895
0.006871161480777713,0.40601023017902815
0.006939024804044654,0.40601023017902815
0.006939024804044654,0.4076086956521739
0.006972956465678124,0.4076086956521739
0.006972956465678124,0.40824808184143224
0.006989922296494859,0.40824808184143224
0.006989922296494859,0.4085677749360614
0.007023853958128329,0.4085677749360614
0.007023853958128329,0.40952685421994883
0.007040819788945065,0.40952685421994883
0.007040819788945065,0.4101662404092072
0.0070577856197618,0.4101662404092072
0.0070577856197618,0.4108056265984655
0.00709171728139527,0.4108056265984655
0.00709171728139527,0.4114450127877238
0.007108683112212005,0.4114450127877238
0.007108683112212005,0.4120843989769821
0.007108683112212005,0.41304347826086957
0.00712564894302874,0.41304347826086957
0.00712564894302874,0.41368286445012786
0.007193512266295681,0.41368286445012786
0.007193512266295681,0.414002557544757
0.0072104780971124155,0.414002557544757
0.0072104780971124155,0.41528132992327366
0.007227443927929151,0.41528132992327366
0.007227443927929151,0.41592071611253195
0.007244409758745886,0.41592071611253195
0.007244409758745886,0.4162404092071611
0.007278341420379356,0.4162404092071611
0.007278341420379356,0.4165601023017903
0.007312273082012826,0.4165601023017903
0.007312273082012826,0.41687979539641945
0.007329238912829561,0.41687979539641945
0.007329238912829561,0.41751918158567775
0.007346204743646297,0.41751918158567775
0.007346204743646297,0.4178388746803069
0.0073631705744630314,0.4178388746803069
0.0073631705744630314,0.41911764705882354
0.007397102236096502,0.41911764705882354
0.007397102236096502,0.41975703324808183
0.007447999728546707,0.41975703324808183
0.007447999728546707,0.4210358056265985
0.007481931390180177,0.4210358056265985
0.007481931390180177,0.42135549872122763
0.007600692205897323,0.42135549872122763
0.007600692205897323,0.4216751918158568
0.007668555529164263,0.4216751918158568
0.007668555529164263,0.4219948849104859
0.007685521359980998,0.4219948849104859
0.007685521359980998,0.42327365728900257
0.007719453021614468,0.42327365728900257
0.007719453021614468,0.4235933503836317
0.007770350514064674,0.4235933503836317
0.007770350514064674,0.42391304347826086
0.007787316344881409,0.42391304347826086
0.007787316344881409,0.42423273657289
0.007804282175698144,0.42423273657289
0.007804282175698144,0.42455242966751916
0.007872145498965085,0.42455242966751916
0.007872145498965085,0.42551150895140666
0.007906077160598554,0.42551150895140666
0.007906077160598554,0.4258312020460358
0.00792304299141529,0.4258312020460358
0.00792304299141529,0.42615089514066495
0.007940008822232024,0.42615089514066495
0.007940008822232024,0.42679028132992325
0.007973940483865495,0.42679028132992325
0.007973940483865495,0.42774936061381075
0.00799090631468223,0.42774936061381075
0.00799090631468223,0.42838874680306904
0.00805876963794917,0.42838874680306904
0.00805876963794917,0.42998721227621484
0.00809270129958264,0.42998721227621484
0.00809270129958264,0.430306905370844
0.008143598792032846,0.430306905370844
0.008143598792032846,0.4309462915601023
0.008160564622849581,0.4309462915601023
0.008160564622849581,0.4312659846547315
0.008177530453666317,0.4312659846547315
0.008177530453666317,0.43158567774936063
0.00819449628448305,0.43158567774936063
0.00819449628448305,0.4325447570332481
0.008228427946116522,0.4325447570332481
0.008228427946116522,0.43350383631713557
0.008262359607749991,0.43350383631713557
0.008262359607749991,0.4351023017902813
0.008279325438566727,0.4351023017902813
0.008279325438566727,0.43574168797953966
0.008296291269383462,0.43574168797953966
0.008296291269383462,0.43638107416879796
0.008330222931016932,0.43638107416879796
0.008330222931016932,0.4373401534526854
0.008347188761833668,0.4373401534526854
0.008347188761833668,0.4376598465473146
0.008364154592650401,0.4376598465473146
0.008364154592650401,0.43797953964194375
0.008381120423467137,0.43797953964194375
0.008381120423467137,0.4389386189258312
0.008398086254283873,0.4389386189258312
0.008398086254283873,0.4398976982097187
0.008415052085100608,0.4398976982097187
0.008448983746734078,0.4398976982097187
0.008448983746734078,0.44021739130434784
0.008499881239184283,0.44021739130434784
0.008499881239184283,0.440537084398977
0.008516847070001018,0.440537084398977
0.008516847070001018,0.44085677749360613
0.008550778731634488,0.44085677749360613
0.008550778731634488,0.4411764705882353
0.008567744562451223,0.4411764705882353
0.008567744562451223,0.4430946291560102
0.008618642054901428,0.4430946291560102
0.008618642054901428,0.44341432225063937
0.008635607885718164,0.44341432225063937
0.008635607885718164,0.4440537084398977
0.008686505378168369,0.4440537084398977
0.008686505378168369,0.444693094629156
0.008703471208985104,0.444693094629156
0.008703471208985104,0.44501278772378516
0.008737402870618574,0.44501278772378516
0.008737402870618574,0.44565217391304346
0.00875436870143531,0.44565217391304346
0.00875436870143531,0.4462915601023018
0.008805266193885514,0.4462915601023018
0.008805266193885514,0.44661125319693096
0.00882223202470225,0.44661125319693096
0.00882223202470225,0.4469309462915601
0.008839197855518986,0.4469309462915601
0.008839197855518986,0.4475703324808184
0.008873129517152455,0.4475703324808184
0.008873129517152455,0.44789002557544755
0.00889009534796919,0.44789002557544755
0.00889009534796919,0.44820971867007675
0.00892402700960266,0.44820971867007675
0.00892402700960266,0.4485294117647059
0.008974924502052865,0.4485294117647059
0.008974924502052865,0.4498081841432225
0.009008856163686336,0.4498081841432225
0.009008856163686336,0.45012787723785164
0.009059753656136541,0.45012787723785164
0.009059753656136541,0.45108695652173914
0.009076719486953277,0.45108695652173914
0.009076719486953277,0.45172634271099743
0.00909368531777001,0.45172634271099743
0.00909368531777001,0.4520460358056266
0.009127616979403482,0.4520460358056266
0.009127616979403482,0.4523657289002558
0.009144582810220216,0.4523657289002558
0.009144582810220216,0.45268542199488493
0.009161548641036951,0.45268542199488493
0.009161548641036951,0.4530051150895141
0.009212446133487156,0.4530051150895141
0.009212446133487156,0.45364450127877237
0.009229411964303892,0.45364450127877237
0.009229411964303892,0.45428388746803067
0.009263343625937363,0.45428388746803067
0.009263343625937363,0.45460358056265987
0.009280309456754097,0.45460358056265987
0.009280309456754097,0.454923273657289
0.009314241118387568,0.454923273657289
0.009314241118387568,0.4555626598465473
0.009331206949204302,0.4555626598465473
0.009331206949204302,0.45588235294117646
0.009348172780021037,0.45588235294117646
0.009348172780021037,0.45684143222506396
0.009348172780021037,0.45748081841432225
0.009348172780021037,0.4578005115089514
0.009399070272471242,0.4578005115089514
0.009399070272471242,0.45812020460358055
0.009416036103287978,0.45812020460358055
0.009416036103287978,0.4584398976982097
0.009449967764921447,0.4584398976982097
0.009449967764921447,0.45907928388746805
0.009517831088188388,0.45907928388746805
0.009517831088188388,0.4593989769820972
0.009534796919005124,0.4593989769820972
0.009534796919005124,0.4600383631713555
0.00955176274982186,0.4600383631713555
0.00955176274982186,0.46035805626598464
0.009568728580638593,0.46035805626598464
0.009568728580638593,0.4606777493606138
0.009585694411455329,0.4606777493606138
0.009585694411455329,0.460997442455243
0.0096196260730888,0.460997442455243
0.0096196260730888,0.46131713554987214
0.00965355773472227,0.46131713554987214
0.00965355773472227,0.4616368286445013
0.009704455227172474,0.4616368286445013
0.009704455227172474,0.4622762148337596
0.009738386888805945,0.4622762148337596
0.009738386888805945,0.4629156010230179
0.009772318550439415,0.4629156010230179
0.009772318550439415,0.4638746803069054
0.00982321604288962,0.4638746803069054
0.00982321604288962,0.4648337595907928
0.009840181873706355,0.4648337595907928
0.009840181873706355,0.465153452685422
0.00989107936615656,0.465153452685422
0.00989107936615656,0.46547314578005117
0.009925011027790032,0.46547314578005117
0.009925011027790032,0.4657928388746803
0.009941976858606765,0.4657928388746803
0.009941976858606765,0.4664322250639386
0.010060737674323911,0.4664322250639386
0.010060737674323911,0.46675191815856776
0.010094669335957382,0.46675191815856776
0.010094669335957382,0.4673913043478261
0.010128600997590852,0.4673913043478261
0.010128600997590852,0.4680306905370844
0.010162532659224323,0.4680306905370844
0.010162532659224323,0.4686700767263427
0.010179498490041057,0.4686700767263427
0.010179498490041057,0.4702685421994885
0.010213430151674528,0.4702685421994885
0.010213430151674528,0.47154731457800514
0.010264327644124733,0.47154731457800514
0.010264327644124733,0.47218670076726343
0.010281293474941468,0.47218670076726343
0.010281293474941468,0.4731457800511509
0.010366122629025143,0.4731457800511509
0.010366122629025143,0.47346547314578
0.010400054290658614,0.47346547314578
0.010400054290658614,0.47378516624040923
0.010450951783108819,0.47378516624040923
0.010450951783108819,0.4741048593350384
0.010484883444742289,0.4741048593350384
0.010484883444742289,0.4744245524296675
0.010501849275559024,0.4744245524296675
0.010501849275559024,0.47474424552429667
0.010535780937192494,0.47474424552429667
0.010535780937192494,0.4750639386189258
0.010552746768009229,0.4750639386189258
0.010552746768009229,0.47570332480818417
0.0105866784296427,0.47570332480818417
0.0105866784296427,0.4760230179028133
0.01065454175290964,0.4760230179028133
0.01065454175290964,0.47634271099744246
0.010671507583726375,0.47634271099744246
0.010671507583726375,0.4766624040920716
0.01068847341454311,0.4766624040920716
0.01068847341454311,0.47762148337595906
0.010705439245359846,0.47762148337595906
0.010705439245359846,0.47794117647058826
0.010773302568626787,0.47794117647058826
0.010773302568626787,0.4782608695652174
0.01079026839944352,0.4782608695652174
0.01079026839944352,0.4789002557544757
0.010858131722710461,0.4789002557544757
0.010858131722710461,0.479539641943734
0.010875097553527197,0.479539641943734
0.010875097553527197,0.47985933503836314
0.010925995045977402,0.47985933503836314
0.010925995045977402,0.4804987212276215
0.010942960876794137,0.4804987212276215
0.010942960876794137,0.4811381074168798
0.010976892538427607,0.4811381074168798
0.010976892538427607,0.48145780051150894
0.010993858369244342,0.48145780051150894
0.010993858369244342,0.4820971867007673
0.011044755861694547,0.4820971867007673
0.011044755861694547,0.4833759590792839
0.011163516677411693,0.4833759590792839
0.011163516677411693,0.483695652173913
0.011180482508228428,0.483695652173913
0.011180482508228428,0.4852941176470588
0.011214414169861898,0.4852941176470588
0.011248345831495369,0.4852941176470588
0.011248345831495369,0.4862531969309463
0.011282277493128838,0.4862531969309463
0.011282277493128838,0.4868925831202046
0.01131620915476231,0.4868925831202046
0.01131620915476231,0.4875319693094629
0.011350140816395779,0.4875319693094629
0.011350140816395779,0.48785166240409206
0.011367106647212515,0.48785166240409206
0.011367106647212515,0.4881713554987212
0.011401038308845984,0.4881713554987212
0.011401038308845984,0.4884910485933504
0.011434969970479455,0.4884910485933504
0.011434969970479455,0.48945012787723785
0.011468901632112925,0.48945012787723785
0.011468901632112925,0.489769820971867
0.011502833293746394,0.489769820971867
0.011502833293746394,0.4904092071611253
0.0115537307861966,0.4904092071611253
0.0115537307861966,0.4907289002557545
0.011604628278646806,0.4907289002557545
0.011604628278646806,0.49104859335038364
0.01162159410946354,0.49104859335038364
0.01162159410946354,0.4913682864450128
0.011638559940280275,0.4913682864450128
0.011638559940280275,0.49232736572890023
0.01165552577109701,0.49232736572890023
0.01165552577109701,0.49264705882352944
0.011672491601913746,0.49264705882352944
0.011672491601913746,0.4929667519181586
0.011706423263547216,0.4929667519181586
0.011706423263547216,0.49328644501278773
0.011723389094363951,0.49328644501278773
0.011723389094363951,0.4942455242966752
0.011842149910081097,0.4942455242966752
0.011842149910081097,0.4952046035805627
0.011859115740897833,0.4952046035805627
0.011859115740897833,0.4955242966751918
0.011893047402531302,0.4955242966751918
0.011893047402531302,0.49584398976982097
0.011926979064164771,0.49584398976982097
0.011926979064164771,0.4961636828644501
0.011943944894981507,0.4961636828644501
0.011943944894981507,0.49648337595907927
0.011977876556614978,0.49648337595907927
0.011977876556614978,0.4968030690537084
0.011994842387431712,0.4968030690537084
0.011994842387431712,0.4977621483375959
0.012011808218248448,0.4977621483375959
0.012011808218248448,0.49808184143222506
0.012045739879881917,0.49808184143222506
0.012045739879881917,0.49872122762148335
0.012130569033965593,0.49872122762148335
0.012130569033965593,0.4993606138107417
0.012181466526415798,0.4993606138107417
0.012181466526415798,0.49968030690537085
0.012232364018866003,0.49968030690537085
0.012232364018866003,0.5003196930946292
0.012266295680499474,0.5003196930946292
0.012266295680499474,0.5012787723785166
0.01231719317294968,0.5012787723785166
0.01231719317294968,0.5015984654731458
0.012334159003766415,0.5015984654731458
0.012334159003766415,0.5022378516624041
0.012402022327033356,0.5022378516624041
0.012402022327033356,0.5031969309462916
0.01241898815785009,0.5031969309462916
0.01241898815785009,0.5035166240409207
0.01245291981948356,0.5035166240409207
0.01245291981948356,0.5044757033248082
0.012469885650300295,0.5044757033248082
0.012469885650300295,0.5047953964194374
0.01255471480438397,0.5047953964194374
0.01255471480438397,0.5051150895140665
0.012571680635200706,0.5051150895140665
0.012571680635200706,0.506074168797954
0.01258864646601744,0.506074168797954
0.01258864646601744,0.5063938618925832
0.012690441450917852,0.5063938618925832
0.012690441450917852,0.5067135549872123
0.012724373112551321,0.5067135549872123
0.012724373112551321,0.5073529411764706
0.012758304774184792,0.5073529411764706
0.012758304774184792,0.5079923273657289
0.012775270605001526,0.5079923273657289
0.012775270605001526,0.5089514066496164
0.012792236435818262,0.5089514066496164
0.012792236435818262,0.5092710997442456
0.012809202266634998,0.5092710997442456
0.012809202266634998,0.510230179028133
0.012860099759085203,0.510230179028133
0.012860099759085203,0.5105498721227621
0.012877065589901938,0.5105498721227621
0.012877065589901938,0.5108695652173914
0.012894031420718672,0.5108695652173914
0.012894031420718672,0.5111892583120204
0.012995826405619084,0.5111892583120204
0.012995826405619084,0.5118286445012787
0.013012792236435818,0.5118286445012787
0.013012792236435818,0.5121483375959079
0.01311458722133623,0.5121483375959079
0.01311458722133623,0.5127877237851662
0.01318245054460317,0.5127877237851662
0.01318245054460317,0.5131074168797954
0.013233348037053375,0.5131074168797954
0.013233348037053375,0.5134271099744245
0.013250313867870109,0.5134271099744245
0.013250313867870109,0.5137468030690537
0.013267279698686844,0.5137468030690537
0.013267279698686844,0.514386189258312
0.013301211360320316,0.514386189258312
0.013301211360320316,0.5156649616368286
0.01331817719113705,0.5156649616368286
0.01331817719113705,0.5159846547314578
0.013335143021953785,0.5159846547314578
0.013335143021953785,0.5163043478260869
0.01335210885277052,0.5163043478260869
0.01335210885277052,0.5166240409207161
0.013436938006854195,0.5166240409207161
0.013436938006854195,0.5169437340153452
0.01345390383767093,0.5169437340153452
0.01345390383767093,0.5172634271099744
0.013470869668487666,0.5172634271099744
0.013470869668487666,0.5175831202046036
0.013504801330121136,0.5175831202046036
0.013504801330121136,0.5182225063938619
0.013538732991754607,0.5182225063938619
0.013538732991754607,0.5191815856777494
0.013589630484204812,0.5191815856777494
0.013589630484204812,0.5198209718670077
0.013623562145838281,0.5198209718670077
0.013623562145838281,0.5201406649616368
0.013640527976655017,0.5201406649616368
0.013640527976655017,0.520460358056266
0.013657493807471752,0.520460358056266
0.013657493807471752,0.5207800511508951
0.013691425469105222,0.5207800511508951
0.013691425469105222,0.5210997442455243
0.013708391299921957,0.5210997442455243
0.013708391299921957,0.5230179028132992
0.013725357130738693,0.5230179028132992
0.013725357130738693,0.5236572890025576
0.013810186284822367,0.5236572890025576
0.013810186284822367,0.5242966751918159
0.013844117946455839,0.5242966751918159
0.013844117946455839,0.524616368286445
0.013878049608089308,0.524616368286445
0.013878049608089308,0.5249360613810742
0.013895015438906044,0.5249360613810742
0.013895015438906044,0.5252557544757033
0.013945912931356249,0.5252557544757033
0.013945912931356249,0.5255754475703325
0.013996810423806454,0.5255754475703325
0.013996810423806454,0.5258951406649617
0.014030742085439925,0.5258951406649617
0.014030742085439925,0.5262148337595908
0.014064673747073394,0.5262148337595908
0.014098605408706864,0.5262148337595908
0.0141155712395236,0.5262148337595908
0.0141155712395236,0.52653452685422
0.01414950290115707,0.52653452685422
0.01414950290115707,0.5268542199488491
0.01418343456279054,0.5268542199488491
0.01418343456279054,0.5271739130434783
0.014200400393607275,0.5271739130434783
0.014200400393607275,0.5281329923273658
0.01425129788605748,0.5281329923273658
0.01425129788605748,0.5287723785166241
0.014268263716874216,0.5287723785166241
0.014268263716874216,0.5297314578005116
0.01428522954769095,0.5297314578005116
0.01428522954769095,0.5300511508951407
0.014319161209324421,0.5300511508951407
0.014319161209324421,0.530690537084399
0.014420956194224831,0.530690537084399
0.014420956194224831,0.5313299232736572
0.014437922025041567,0.5313299232736572
0.014437922025041567,0.532608695652174
0.014454887855858302,0.532608695652174
0.014454887855858302,0.532928388746803
0.014488819517491772,0.532928388746803
0.014488819517491772,0.5332480818414322
0.014522751179125241,0.5332480818414322
0.014522751179125241,0.5335677749360613
0.014573648671575448,0.5335677749360613
0.014573648671575448,0.5338874680306905
0.014607580333208917,0.5338874680306905
0.014607580333208917,0.534846547314578
0.014624546164025653,0.534846547314578
0.014624546164025653,0.5354859335038363
0.014658477825659122,0.5354859335038363
0.014658477825659122,0.5358056265984654
0.014726341148926063,0.5358056265984654
0.014726341148926063,0.5364450127877238
0.014895999457093414,0.5364450127877238
0.014895999457093414,0.5367647058823529
0.014929931118726885,0.5367647058823529
0.014929931118726885,0.5374040920716112
0.014963862780360354,0.5374040920716112
0.014963862780360354,0.5377237851662404
0.01498082861117709,0.5377237851662404
0.01498082861117709,0.5380434782608695
0.015014760272810559,0.5380434782608695
0.015014760272810559,0.5383631713554987
0.015031726103627295,0.5383631713554987
0.015031726103627295,0.5386828644501279
0.015133521088527705,0.5386828644501279
0.015133521088527705,0.539002557544757
0.01515048691934444,0.539002557544757
0.01515048691934444,0.5402813299232737
0.015218350242611381,0.5402813299232737
0.015218350242611381,0.5406010230179028
0.015235316073428117,0.5406010230179028
0.015235316073428117,0.5421994884910486
0.01525228190424485,0.5421994884910486
0.01525228190424485,0.5425191815856778
0.015269247735061586,0.5425191815856778
0.015269247735061586,0.5428388746803069
0.015286213565878322,0.5428388746803069
0.015286213565878322,0.5431585677749361
0.015303179396695055,0.5431585677749361
0.015303179396695055,0.5434782608695652
0.015337111058328527,0.5434782608695652
0.015337111058328527,0.5441176470588235
0.015354076889145262,0.5441176470588235
0.015354076889145262,0.545076726342711
0.015404974381595467,0.545076726342711
0.015404974381595467,0.5457161125319693
0.015421940212412201,0.5457161125319693
0.015421940212412201,0.5466751918158568
0.015591598520579553,0.5466751918158568
0.015591598520579553,0.546994884910486
0.015693393505479963,0.546994884910486
0.015693393505479963,0.5479539641943734
0.0157103593362967,0.5479539641943734
0.0157103593362967,0.5485933503836317
0.015778222659563638,0.5485933503836317
0.015778222659563638,0.5489130434782609
0.01581215432119711,0.5489130434782609
0.01581215432119711,0.5495524296675192
0.015829120152013845,0.5495524296675192
0.015829120152013845,0.5498721227621484
0.015880017644464048,0.5498721227621484
0.015880017644464048,0.5501918158567775
0.015896983475280783,0.5501918158567775
0.015896983475280783,0.5505115089514067
0.015930915136914255,0.5505115089514067
0.015930915136914255,0.551150895140665
0.015998778460181193,0.551150895140665
0.015998778460181193,0.5514705882352942
0.01601574429099793,0.5514705882352942
0.01601574429099793,0.5521099744245525
0.0160496759526314,0.5521099744245525
0.0160496759526314,0.5524296675191815
0.016134505106715075,0.5524296675191815
0.016134505106715075,0.55306905370844
0.016219334260798753,0.55306905370844
0.016219334260798753,0.553388746803069
0.016321129245699163,0.553388746803069
0.016321129245699163,0.5537084398976982
0.016355060907332634,0.5537084398976982
0.016355060907332634,0.5540281329923273
0.016372026738149366,0.5540281329923273
0.016372026738149366,0.5543478260869565
0.0163889925689661,0.5543478260869565
0.0163889925689661,0.5546675191815856
0.016439890061416308,0.5546675191815856
0.016439890061416308,0.5549872122762148
0.01649078755386651,0.5549872122762148
0.01649078755386651,0.555306905370844
0.016524719215499983,0.555306905370844
0.016524719215499983,0.5556265984654731
0.016541685046316718,0.5556265984654731
0.016541685046316718,0.5565856777493606
0.01657561670795019,0.5565856777493606
0.01657561670795019,0.5569053708439897
0.016609548369583657,0.5569053708439897
0.016609548369583657,0.5581841432225064
0.016660445862033864,0.5581841432225064
0.016660445862033864,0.5585038363171355
0.016694377523667335,0.5585038363171355
0.016694377523667335,0.5601023017902813
0.016728309185300803,0.5601023017902813
0.016728309185300803,0.5604219948849105
0.01681313833938448,0.5604219948849105
0.01681313833938448,0.5613810741687979
0.016864035831834684,0.5613810741687979
0.016864035831834684,0.5617007672634271
0.016897967493468155,0.5617007672634271
0.016897967493468155,0.5623401534526854
0.0170167283091853,0.5623401534526854
0.0170167283091853,0.5629795396419437
0.01708459163245224,0.5629795396419437
0.01708459163245224,0.5639386189258312
0.017101557463268975,0.5639386189258312
0.017101557463268975,0.5642583120204604
0.01711852329408571,0.5642583120204604
0.01711852329408571,0.5645780051150895
0.017135489124902446,0.5645780051150895
0.017135489124902446,0.5648976982097187
0.017169420786535917,0.5648976982097187
0.017169420786535917,0.5652173913043478
0.017271215771436327,0.5652173913043478
0.017271215771436327,0.565537084398977
0.017288181602253063,0.565537084398977
0.017288181602253063,0.5658567774936062
0.017322113263886534,0.5658567774936062
0.017322113263886534,0.5661764705882353
0.017373010756336738,0.5661764705882353
0.017373010756336738,0.5674552429667519
0.01740694241797021,0.5674552429667519
0.01740694241797021,0.5677749360613811
0.01744087407960368,0.5677749360613811
0.01744087407960368,0.5680946291560103
0.017457839910420412,0.5680946291560103
0.017457839910420412,0.5684143222506394
0.01761053238777103,0.5684143222506394
0.01761053238777103,0.5690537084398977
0.017627498218587764,0.5690537084398977
0.017627498218587764,0.5693734015345269
0.01771232737267144,0.5693734015345269
0.01771232737267144,0.569693094629156
0.017729293203488174,0.569693094629156
0.017729293203488174,0.5700127877237852
0.01784805401920532,0.5700127877237852
0.01784805401920532,0.5703324808184144
0.017865019850022056,0.5703324808184144
0.017865019850022056,0.5706521739130435
0.017966814834922466,0.5706521739130435
0.017966814834922466,0.5709718670076727
0.0179837806657392,0.5709718670076727
0.0179837806657392,0.57193094629156
0.018000746496555937,0.57193094629156
0.018000746496555937,0.5722506393861893
0.018017712327372672,0.5722506393861893
0.018017712327372672,0.573849104859335
0.018119507312273082,0.573849104859335
0.018119507312273082,0.5741687979539642
0.018255233958806964,0.5741687979539642
0.018255233958806964,0.5744884910485933
0.018340063112890638,0.5744884910485933
0.018340063112890638,0.5748081841432225
0.01847578975942452,0.5748081841432225
0.01847578975942452,0.5754475703324808
0.018492755590241255,0.5754475703324808
0.018492755590241255,0.5757672634271099
0.01864544806759187,0.5757672634271099
0.01864544806759187,0.5760869565217391
0.018662413898408604,0.5760869565217391
0.018662413898408604,0.5767263427109974
0.01878117471412575,0.5767263427109974
0.01878117471412575,0.5770460358056266
0.018832072206575956,0.5770460358056266
0.018832072206575956,0.5776854219948849
0.01884903803739269,0.5776854219948849
0.01884903803739269,0.5783248081841432
0.018866003868209427,0.5783248081841432
0.018866003868209427,0.5786445012787724
0.018899935529842895,0.5786445012787724
0.018899935529842895,0.5789641943734015
0.018933867191476366,0.5789641943734015
0.018933867191476366,0.5792838874680307
0.0189508330222931,0.5792838874680307
0.0189508330222931,0.5796035805626598
0.01901869634556004,0.5796035805626598
0.01901869634556004,0.579923273657289
0.019035662176376776,0.579923273657289
0.019035662176376776,0.5805626598465473
0.019069593838010247,0.5805626598465473
0.019069593838010247,0.5808823529411765
0.019120491330460454,0.5808823529411765
0.019120491330460454,0.5812020460358056
0.019188354653727393,0.5812020460358056
0.019188354653727393,0.5815217391304348
0.0192392521461776,0.5815217391304348
0.0192392521461776,0.5818414322250639
0.019273183807811067,0.5818414322250639
0.019273183807811067,0.5821611253196931
0.01930711546944454,0.5821611253196931
0.01930711546944454,0.5824808184143222
0.019374978792711477,0.5824808184143222
0.019374978792711477,0.5828005115089514
0.019391944623528213,0.5828005115089514
0.019391944623528213,0.5831202046035806
0.01940891045434495,0.5831202046035806
0.01940891045434495,0.5834398976982097
0.019425876285161684,0.5834398976982097
0.019425876285161684,0.584079283887468
0.019493739608428626,0.584079283887468
0.019493739608428626,0.5843989769820972
0.019527671270062094,0.5843989769820972
0.019527671270062094,0.5847186700767263
0.0195785687625123,0.5847186700767263
0.0195785687625123,0.5853580562659847
0.019731261239862918,0.5853580562659847
0.019731261239862918,0.5856777493606138
0.01978215873231312,0.5856777493606138
0.01978215873231312,0.585997442455243
0.019799124563129857,0.585997442455243
0.019799124563129857,0.5863171355498721
0.019900919548030267,0.5863171355498721
0.019900919548030267,0.5866368286445013
0.019934851209663738,0.5866368286445013
0.019934851209663738,0.5869565217391305
0.01996878287129721,0.5869565217391305
0.01996878287129721,0.5872762148337596
0.020019680363747412,0.5872762148337596
0.020019680363747412,0.5875959079283888
0.020053612025380883,0.5875959079283888
0.020053612025380883,0.5882352941176471
0.020155407010281293,0.5882352941176471
0.020155407010281293,0.5885549872122762
0.020189338671914765,0.5885549872122762
0.020189338671914765,0.5888746803069054
0.0202063045027315,0.5888746803069054
0.0202063045027315,0.5891943734015346
0.020223270333548232,0.5891943734015346
0.020223270333548232,0.5895140664961637
0.020240236164364968,0.5895140664961637
0.020240236164364968,0.5898337595907929
0.020257201995181703,0.5898337595907929
0.020257201995181703,0.5904731457800512
0.020358996980082113,0.5904731457800512
0.020358996980082113,0.5907928388746803
0.020392928641715585,0.5907928388746803
0.020392928641715585,0.5911125319693095
0.02044382613416579,0.5911125319693095
0.02044382613416579,0.5914322250639387
0.02047775779579926,0.5914322250639387
0.02047775779579926,0.592391304347826
0.0205456211190662,0.592391304347826
0.0205456211190662,0.5933503836317136
0.020579552780699673,0.5933503836317136
0.020579552780699673,0.5936700767263428
0.020630450273149876,0.5936700767263428
0.020630450273149876,0.594309462915601
0.020698313596416818,0.594309462915601
0.020698313596416818,0.5946291560102301
0.02085100607376743,0.5946291560102301
0.02085100607376743,0.5949488491048593
0.020918869397034374,0.5949488491048593
0.020918869397034374,0.5952685421994884
0.020969766889484577,0.5952685421994884
0.020969766889484577,0.5959079283887468
0.021054596043568255,0.5959079283887468
0.021054596043568255,0.5962276214833759
0.021122459366835194,0.5962276214833759
0.021122459366835194,0.5968670076726342
0.021156391028468665,0.5968670076726342
0.021156391028468665,0.5975063938618926
0.0211733568592854,0.5975063938618926
0.0211733568592854,0.5978260869565217
0.02120728852091887,0.5978260869565217
0.02120728852091887,0.5981457800511509
0.021258186013369075,0.5981457800511509
0.021258186013369075,0.5987851662404092
0.021393912659902956,0.5987851662404092
0.021393912659902956,0.5991048593350383
0.02147874181398663,0.5991048593350383
0.02147874181398663,0.5997442455242967
0.021563570968070305,0.5997442455242967
0.021563570968070305,0.6000639386189258
0.02158053679888704,0.6000639386189258
0.02158053679888704,0.6010230179028133
0.021597502629703776,0.6010230179028133
0.021597502629703776,0.6013427109974424
0.021631434291337247,0.6013427109974424
0.021631434291337247,0.6016624040920716
0.02166536595297072,0.6016624040920716
0.02166536595297072,0.6019820971867008
0.021733229276237657,0.6019820971867008
0.021733229276237657,0.6023017902813299
0.021784126768687864,0.6023017902813299
0.021784126768687864,0.6026214833759591
0.021953785076855213,0.6026214833759591
0.021953785076855213,0.6029411764705882
0.02207254589257236,0.6029411764705882
0.02207254589257236,0.6032608695652174
0.022225238369922976,0.6032608695652174
0.022225238369922976,0.6035805626598465
0.02224220420073971,0.6035805626598465
0.02224220420073971,0.6039002557544757
0.02231006752400665,0.6039002557544757
0.022327033354823386,0.6042199488491049
0.022360965016456857,0.6042199488491049
0.022360965016456857,0.6048593350383632
0.02244579417054053,0.6048593350383632
0.02244579417054053,0.6051790281329923
0.022462760001357267,0.6051790281329923
0.022462760001357267,0.6054987212276215
0.022598486647891148,0.6054987212276215
0.022598486647891148,0.6058184143222506
0.022615452478707884,0.6058184143222506
0.022615452478707884,0.606457800511509
0.022700281632791558,0.606457800511509
0.022700281632791558,0.6067774936061381
0.022717247463608294,0.6067774936061381
0.022717247463608294,0.6070971867007673
0.023022632418309524,0.6070971867007673
0.023022632418309524,0.6080562659846548
0.02307352991075973,0.6080562659846548
0.02307352991075973,0.6083759590792839
0.023090495741576466,0.6083759590792839
0.023090495741576466,0.6086956521739131
0.023124427403209934,0.6086956521739131
0.023124427403209934,0.6093350383631714
0.02314139323402667,0.6093350383631714
0.02314139323402667,0.6096547314578005
0.023158359064843405,0.6096547314578005
0.023158359064843405,0.6099744245524297
0.023361949034644225,0.6099744245524297
0.023361949034644225,0.6102941176470589
0.02348070985036137,0.6102941176470589
0.02348070985036137,0.6109335038363172
0.02351464151199484,0.6109335038363172
0.02351464151199484,0.6112531969309463
0.02356553900444505,0.6112531969309463
0.02356553900444505,0.6118925831202046
0.023718231481795665,0.6118925831202046
0.023718231481795665,0.6128516624040921
0.023820026466696075,0.6128516624040921
0.023820026466696075,0.6131713554987213
0.02383699229751281,0.6131713554987213
0.02383699229751281,0.6134910485933504
0.02387092395914628,0.6134910485933504
0.02387092395914628,0.6138107416879796
0.023887889789963014,0.6138107416879796
0.023887889789963014,0.6141304347826086
0.023921821451596485,0.6141304347826086
0.023921821451596485,0.6144501278772379
0.02404058226731363,0.6144501278772379
0.02404058226731363,0.614769820971867
0.024057548098130366,0.614769820971867
0.024057548098130366,0.6150895140664961
0.024125411421397305,0.6150895140664961
0.024125411421397305,0.6154092071611253
0.02414237725221404,0.6154092071611253
0.02414237725221404,0.6163682864450127
0.024176308913847512,0.6163682864450127
0.024176308913847512,0.6166879795396419
0.024227206406297715,0.6166879795396419
0.024227206406297715,0.6173273657289002
0.02424417223711445,0.6173273657289002
0.02424417223711445,0.6176470588235294
0.024413830545281803,0.6176470588235294
0.024413830545281803,0.6182864450127877
0.024600454684265888,0.6182864450127877
0.024600454684265888,0.6186061381074168
0.024685283838349566,0.6186061381074168
0.024685283838349566,0.618925831202046
0.024702249669166298,0.618925831202046
0.024702249669166298,0.6195652173913043
0.024719215499983033,0.6195652173913043
0.024719215499983033,0.6198849104859335
0.02473618133079977,0.6198849104859335
0.02473618133079977,0.6202046035805626
0.024854942146516915,0.6202046035805626
0.024854942146516915,0.6205242966751918
0.02487190797733365,0.6205242966751918
0.02487190797733365,0.620843989769821
0.024922805469783857,0.620843989769821
0.024922805469783857,0.6211636828644501
0.024990668793050796,0.6211636828644501
0.024990668793050796,0.6214833759590793
0.025024600454684267,0.6214833759590793
0.025058532116317735,0.6214833759590793
0.025058532116317735,0.6221227621483376
0.02517729293203488,0.6221227621483376
0.02517729293203488,0.6224424552429667
0.025194258762851616,0.6224424552429667
0.025194258762851616,0.6234015345268542
0.02531301957856876,0.6234015345268542
0.02531301957856876,0.6237212276214834
0.025329985409385497,0.6237212276214834
0.025329985409385497,0.6240409207161125
0.025550541210003053,0.6240409207161125
0.025550541210003053,0.6243606138107417
0.025567507040819788,0.6243606138107417
0.025567507040819788,0.6246803069053708
0.02563537036408673,0.6246803069053708
0.02563537036408673,0.625
0.02573716534898714,0.625
0.02573716534898714,0.6253196930946292
0.025771097010620612,0.6253196930946292
0.025771097010620612,0.6256393861892583
0.02583896033388755,0.6256393861892583
0.02583896033388755,0.6259590792838875
0.025855926164704286,0.6259590792838875
0.025855926164704286,0.6262787723785166
0.02594075531878796,0.6262787723785166
0.02594075531878796,0.6265984654731458
0.026008618642054903,0.6265984654731458
0.026008618642054903,0.6269181585677749
0.026161311119405516,0.6269181585677749
0.026161311119405516,0.6281969309462916
0.02622917444267246,0.6281969309462916
0.02622917444267246,0.6285166240409207
0.026314003596756133,0.6285166240409207
0.026314003596756133,0.6288363171355499
0.02636490108920634,0.6288363171355499
0.02636490108920634,0.629156010230179
0.026381866920023072,0.629156010230179
0.026381866920023072,0.6294757033248082
0.026398832750839808,0.6294757033248082
0.026398832750839808,0.6297953964194374
0.026415798581656543,0.6297953964194374
0.026415798581656543,0.6301150895140665
0.02643276441247328,0.6301150895140665
0.02643276441247328,0.6307544757033248
0.026483661904923485,0.6307544757033248
0.026483661904923485,0.631074168797954
0.026500627735740218,0.631074168797954
0.026500627735740218,0.6313938618925832
0.02656849105900716,0.6313938618925832
0.02656849105900716,0.6317135549872123
0.02660242272064063,0.6317135549872123
0.02660242272064063,0.6323529411764706
0.026721183536357777,0.6323529411764706
0.026721183536357777,0.6329923273657289
0.026755115197991244,0.6329923273657289
0.026755115197991244,0.6333120204603581
0.02677208102880798,0.6333120204603581
0.02677208102880798,0.6336317135549873
0.026822978521258187,0.6336317135549873
0.026822978521258187,0.6339514066496164
0.026839944352074922,0.6339514066496164
0.026839944352074922,0.6345907928388747
0.02687387601370839,0.6345907928388747
0.02687387601370839,0.6349104859335039
0.026958705167792068,0.6349104859335039
0.026958705167792068,0.635230179028133
0.02700960266024227,0.635230179028133
0.02700960266024227,0.6355498721227621
0.027060500152692478,0.6355498721227621
0.027060500152692478,0.6361892583120204
0.02711139764514268,0.6361892583120204
0.02711139764514268,0.6365089514066496
0.027230158460859827,0.6365089514066496
0.027230158460859827,0.6371483375959079
0.02729802178412677,0.6371483375959079
0.02729802178412677,0.637468030690537
0.027314987614943505,0.637468030690537
0.027314987614943505,0.6377877237851662
0.02743374843066065,0.6377877237851662
0.02743374843066065,0.6387468030690537
0.027518577584744325,0.6387468030690537
0.027518577584744325,0.6390664961636828
0.02767127006209494,0.6390664961636828
0.02767127006209494,0.6397058823529411
0.027688235892911677,0.6397058823529411
0.027688235892911677,0.6400255754475703
0.027756099216178616,0.6400255754475703
0.027756099216178616,0.6406649616368286
0.02777306504699535,0.6406649616368286
0.02777306504699535,0.6409846547314578
0.02784092837026229,0.6409846547314578
0.02784092837026229,0.6419437340153452
0.027857894201079026,0.6419437340153452
0.027857894201079026,0.6422634271099744
0.02787486003189576,0.6422634271099744
0.02787486003189576,0.6429028132992327
0.027959689185979436,0.6429028132992327
0.027959689185979436,0.6432225063938619
0.02812934749414679,0.6432225063938619
0.02812934749414679,0.643542199488491
0.028180244986596995,0.643542199488491
0.028180244986596995,0.6438618925831202
0.02826507414068067,0.6438618925831202
0.02826507414068067,0.6441815856777494
0.028383834956397815,0.6441815856777494
0.028383834956397815,0.6448209718670077
0.02850259577211496,0.6448209718670077
0.02850259577211496,0.6451406649616368
0.028536527433748432,0.6451406649616368
0.028536527433748432,0.645460358056266
0.02860439075701537,0.645460358056266
0.02860439075701537,0.6457800511508951
0.028689219911099045,0.6457800511508951
0.028689219911099045,0.6460997442455243
0.028740117403549252,0.6460997442455243
0.028740117403549252,0.6464194373401535
0.028841912388449662,0.6464194373401535
0.028841912388449662,0.6467391304347826
0.02889280988089987,0.6467391304347826
0.02889280988089987,0.6470588235294118
0.028909775711716604,0.6470588235294118
0.028909775711716604,0.6473785166240409
0.028943707373350072,0.6473785166240409
0.028943707373350072,0.6480179028132992
0.029249092328051306,0.6480179028132992
0.029249092328051306,0.6483375959079284
0.02929998982050151,0.6483375959079284
0.02929998982050151,0.6486572890025576
0.02933392148213498,0.6486572890025576
0.02933392148213498,0.6489769820971867
0.02943571646703539,0.6489769820971867
0.02943571646703539,0.6492966751918159
0.029758067252553356,0.6492966751918159
0.029758067252553356,0.649616368286445
0.029808964745003563,0.649616368286445
0.029808964745003563,0.6499360613810742
0.029842896406637034,0.6499360613810742
0.029842896406637034,0.6502557544757033
0.029876828068270505,0.6502557544757033
0.029876828068270505,0.6505754475703325
0.030182213022971735,0.6505754475703325
0.030182213022971735,0.6508951406649617
0.030216144684605206,0.6508951406649617
0.030216144684605206,0.6512148337595908
0.030250076346238674,0.6512148337595908
0.030250076346238674,0.65153452685422
0.03040276882358929,0.65153452685422
0.03040276882358929,0.6518542199488491
0.030487597977672965,0.6518542199488491
0.030487597977672965,0.6521739130434783
0.030521529639306436,0.6521739130434783
0.030521529639306436,0.6524936061381074
0.030572427131756643,0.6524936061381074
0.030572427131756643,0.6531329923273658
0.030759051270740728,0.6531329923273658
0.030759051270740728,0.6534526854219949
0.0307929829323742,0.6534526854219949
0.0307929829323742,0.6537723785166241
0.03092870957890808,0.6537723785166241
0.03092870957890808,0.6544117647058824
0.030979607071358283,0.6544117647058824
0.030979607071358283,0.6547314578005116
0.031183197041159107,0.6547314578005116
0.031183197041159107,0.6553708439897699
0.03130195785687625,0.6553708439897699
0.03130195785687625,0.655690537084399
0.03136982118014319,0.655690537084399
0.03136982118014319,0.6560102301790282
0.0314207186725934,0.6560102301790282
0.0314207186725934,0.6566496163682864
0.03148858199586034,0.6566496163682864
0.03148858199586034,0.6569693094629157
0.031505547826677076,0.6569693094629157
0.031505547826677076,0.6572890025575447
0.03172610362729463,0.6572890025575447
0.03172610362729463,0.657608695652174
0.031760035288928096,0.657608695652174
0.031760035288928096,0.657928388746803
0.03182789861219504,0.657928388746803
0.03182789861219504,0.6582480818414322
0.031844864443011774,0.6582480818414322
0.031844864443011774,0.6585677749360613
0.03194665942791219,0.6585677749360613
0.03194665942791219,0.6588874680306905
0.03201452275117912,0.6588874680306905
0.03201452275117912,0.6595268542199488
0.03213328356689627,0.6595268542199488
0.03213328356689627,0.659846547314578
0.032404736859964034,0.659846547314578
0.032404736859964034,0.6601662404092071
0.03247260018323097,0.6601662404092071
0.03247260018323097,0.6614450127877238
0.032523497675681176,0.6614450127877238
0.032523497675681176,0.6617647058823529
0.03257439516813138,0.6617647058823529
0.03257439516813138,0.6620843989769821
0.032879780122832616,0.6620843989769821
0.032879780122832616,0.6627237851662404
0.03291371178446609,0.6627237851662404
0.03294764344609956,0.6627237851662404
0.03294764344609956,0.6630434782608695
0.03296460927691629,0.6630434782608695
0.03296460927691629,0.6633631713554987
0.03310033592345017,0.6633631713554987
0.03310033592345017,0.6636828644501279
0.03333785755488446,0.6636828644501279
0.03333785755488446,0.664002557544757
0.033371789216517934,0.664002557544757
0.033371789216517934,0.6643222506393862
0.03350751586305181,0.6643222506393862
0.03350751586305181,0.6646419437340153
0.03367717417121917,0.6646419437340153
0.03367717417121917,0.6649616368286445
0.033897729971836724,0.6649616368286445
0.033897729971836724,0.6652813299232737
0.034016490787553866,0.6652813299232737
0.034016490787553866,0.6656010230179028
0.0340334566183706,0.6656010230179028
0.0340334566183706,0.665920716112532
0.03406738828000407,0.665920716112532
0.03406738828000407,0.6665601023017903
0.034101319941637544,0.6665601023017903
0.034101319941637544,0.6668797953964194
0.034135251603271015,0.6668797953964194
0.034135251603271015,0.6671994884910486
0.03416918326490448,0.6671994884910486
0.03416918326490448,0.6675191815856778
0.03427097824980489,0.6675191815856778
0.03427097824980489,0.6678388746803069
0.03428794408062163,0.6678388746803069
0.03428794408062163,0.6681585677749361
0.03435580740388857,0.6681585677749361
0.03435580740388857,0.6684782608695652
0.03447456821960571,0.6684782608695652
0.03447456821960571,0.6687979539641944
0.034508499881239184,0.6687979539641944
0.034508499881239184,0.6691176470588235
0.03452546571205592,0.6691176470588235
0.03452546571205592,0.6694373401534527
0.03459332903532286,0.6694373401534527
0.03459332903532286,0.6697570332480819
0.034712089851040004,0.6697570332480819
0.034712089851040004,0.670076726342711
0.034746021512673475,0.670076726342711
0.034746021512673475,0.6703964194373402
0.03488174815920736,0.6703964194373402
0.03488174815920736,0.6707161125319693
0.03501747480574124,0.6707161125319693
0.03501747480574124,0.6713554987212276
0.03508533812900818,0.6713554987212276
0.03508533812900818,0.6716751918158568
0.035153201452275115,0.6716751918158568
0.035153201452275115,0.671994884910486
0.035187133113908586,0.671994884910486
0.035187133113908586,0.6726342710997443
0.03520409894472532,0.6726342710997443
0.03520409894472532,0.6732736572890026
0.03522106477554206,0.6732736572890026
0.03522106477554206,0.6739130434782609
0.03532285976044247,0.6739130434782609
0.03532285976044247,0.6742327365728901
0.03533982559125921,0.6742327365728901
0.03533982559125921,0.6745524296675192
0.03537375725289267,0.6745524296675192
0.03537375725289267,0.6755115089514067
0.03554341556106003,0.6755115089514067
0.03554341556106003,0.676150895140665
0.0356282447151437,0.676150895140665
0.0356282447151437,0.6764705882352942
0.03569610803841064,0.6764705882352942
0.03569610803841064,0.6767902813299232
0.035882732177394724,0.6767902813299232
0.035882732177394724,0.6774296675191815
0.03593362966984493,0.6774296675191815
0.03593362966984493,0.678388746803069
0.036205082962912694,0.678388746803069
0.036205082962912694,0.6787084398976982
0.03635777544026331,0.6787084398976982
0.03635777544026331,0.6790281329923273
0.036442604594346985,0.6790281329923273
0.036442604594346985,0.6793478260869565
0.036476536255980456,0.6793478260869565
0.036476536255980456,0.6799872122762148
0.03649350208679719,0.6799872122762148
0.03649350208679719,0.680306905370844
0.03652743374843066,0.680306905370844
0.03652743374843066,0.6806265984654731
0.036561365410064134,0.6806265984654731
0.036561365410064134,0.6809462915601023
0.0365952970716976,0.6809462915601023
0.036680126225781276,0.6809462915601023
0.036680126225781276,0.6812659846547314
0.03671405788741475,0.6812659846547314
0.03671405788741475,0.6815856777493606
0.03673102371823148,0.6815856777493606
0.03673102371823148,0.6819053708439897
0.03678192121068169,0.6819053708439897
0.03681585287231516,0.6819053708439897
0.03686675036476536,0.6819053708439897
0.03686675036476536,0.6822250639386189
0.03701944284211598,0.6822250639386189
0.03701944284211598,0.6825447570332481
0.03715516948864986,0.6825447570332481
0.03715516948864986,0.6828644501278772
0.037239998642733536,0.6828644501278772
0.037239998642733536,0.6831841432225064
0.03746055444335109,0.6831841432225064
0.03746055444335109,0.6838235294117647
0.037528417766618034,0.6838235294117647
0.037528417766618034,0.6841432225063938
0.03754538359743476,0.6841432225063938
0.03754538359743476,0.684462915601023
0.037579315259068234,0.684462915601023
0.037579315259068234,0.6847826086956522
0.03768111024396865,0.6847826086956522
0.03768111024396865,0.6851023017902813
0.0379016660445862,0.6851023017902813
0.0379016660445862,0.6854219948849105
0.03791863187540294,0.6854219948849105
0.03791863187540294,0.6857416879795396
0.037969529367853146,0.6857416879795396
0.037969529367853146,0.6863810741687979
0.03798649519866988,0.6863810741687979
0.03798649519866988,0.6867007672634271
0.03803739269112008,0.6867007672634271
0.03803739269112008,0.6870204603580563
0.03810525601438702,0.6870204603580563
0.038139187676020495,0.6870204603580563
0.038139187676020495,0.6873401534526854
0.0381900851684707,0.6873401534526854
0.03822401683010417,0.6873401534526854
0.03827491432255437,0.6873401534526854
0.03827491432255437,0.6876598465473146
0.0384785042923552,0.6876598465473146
0.0384785042923552,0.6879795396419437
0.03864816260052255,0.6879795396419437
0.03864816260052255,0.6882992327365729
0.03883478673950663,0.6882992327365729
0.03883478673950663,0.6886189258312021
0.03891961589359031,0.6886189258312021
0.03891961589359031,0.6889386189258312
0.03895354755522378,0.6889386189258312
0.03895354755522378,0.6892583120204604
0.03902141087849072,0.6892583120204604
0.03902141087849072,0.6895780051150895
0.03905534254012419,0.6895780051150895
0.03905534254012419,0.6898976982097187
0.039072308370940924,0.6898976982097187
0.039072308370940924,0.6902173913043478
0.03919106918665807,0.6902173913043478
0.03919106918665807,0.690537084398977
0.03925893250992501,0.690537084398977
0.03925893250992501,0.6908567774936062
0.039275898340741744,0.6908567774936062
0.039275898340741744,0.6911764705882353
0.03929286417155848,0.6911764705882353
0.03929286417155848,0.6914961636828645
0.03932679583319195,0.6914961636828645
0.03932679583319195,0.6918158567774936
0.039632180787893184,0.6918158567774936
0.039632180787893184,0.6921355498721228
0.03964914661870992,0.6921355498721228
0.03964914661870992,0.6924552429667519
0.0397848732652438,0.6924552429667519
0.0397848732652438,0.6927749360613811
0.03990363408096095,0.6927749360613811
0.03990363408096095,0.6930946291560103
0.03992059991177768,0.6930946291560103
0.03992059991177768,0.6937340153452686
0.040039360727494824,0.6937340153452686
0.040039360727494824,0.6940537084398977
0.04009025821994503,0.6940537084398977
0.04009025821994503,0.6943734015345269
0.04031081402056259,0.6943734015345269
0.04031081402056259,0.694693094629156
0.04037867734382953,0.694693094629156
0.04037867734382953,0.6950127877237852
0.04049743815954667,0.6950127877237852
0.04049743815954667,0.6953324808184144
0.040565301482813614,0.6953324808184144
0.040565301482813614,0.6956521739130435
0.040633164806080556,0.6956521739130435
0.040633164806080556,0.6959718670076727
0.04078585728343117,0.6959718670076727
0.04078585728343117,0.6962915601023018
0.040921583929965054,0.6962915601023018
0.040921583929965054,0.696611253196931
0.04093854976078178,0.696611253196931
0.04093854976078178,0.69693094629156
0.041176071392216074,0.69693094629156
0.041176071392216074,0.6972506393861893
0.04127786637711649,0.6972506393861893
0.04127786637711649,0.6975703324808185
0.04166808048590139,0.6975703324808185
0.04166808048590139,0.6978900255754475
0.041803807132435276,0.6978900255754475
0.041803807132435276,0.6982097186700768
0.04192256794815242,0.6982097186700768
0.04192256794815242,0.6985294117647058
0.04199043127141936,0.6985294117647058
0.04199043127141936,0.698849104859335
0.042007397102236096,0.698849104859335
0.042007397102236096,0.6994884910485933
0.0420582945946863,0.6994884910485933
0.0420582945946863,0.6998081841432225
0.042092226256319774,0.6998081841432225
0.042092226256319774,0.7001278772378516
0.04210919208713651,0.7001278772378516
0.04210919208713651,0.7004475703324808
0.042177055410403445,0.7004475703324808
0.042177055410403445,0.7007672634271099
0.04224491873367039,0.7007672634271099
0.04224491873367039,0.7014066496163683
0.04227885039530386,0.7014066496163683
0.04227885039530386,0.7017263427109974
0.04241457704183774,0.7017263427109974
0.04241457704183774,0.7020460358056266
0.04244850870347121,0.7020460358056266
0.04248244036510468,0.7020460358056266
0.04248244036510468,0.7023657289002557
0.042533337857554886,0.7023657289002557
0.042533337857554886,0.7026854219948849
0.04260120118082183,0.7026854219948849
0.04260120118082183,0.703005115089514
0.042736927827355706,0.703005115089514
0.042736927827355706,0.7033248081841432
0.04283872281225612,0.7033248081841432
0.04283872281225612,0.7036445012787724
0.04285568864307285,0.7036445012787724
0.04285568864307285,0.7039641943734015
0.04304231278205694,0.7039641943734015
0.04304231278205694,0.7042838874680307
0.04307624444369041,0.7042838874680307
0.04307624444369041,0.7046035805626598
0.04338162939839164,0.7046035805626598
0.04338162939839164,0.704923273657289
0.043432526890841844,0.704923273657289
0.043432526890841844,0.7052429667519181
0.043703980183909606,0.7052429667519181
0.043703980183909606,0.7055626598465473
0.04372094601472634,0.7055626598465473
0.04372094601472634,0.7058823529411765
0.043873638492076955,0.7058823529411765
0.043873638492076955,0.7062020460358056
0.044026330969427575,0.7062020460358056
0.044026330969427575,0.7065217391304348
0.044195989277594924,0.7065217391304348
0.044195989277594924,0.7068414322250639
0.0443317159241288,0.7068414322250639
0.0443317159241288,0.7074808184143222
0.04441654507821248,0.7074808184143222
0.04441654507821248,0.7078005115089514
0.04445047673984595,0.7078005115089514
0.04445047673984595,0.7081202046035806
0.04455227172474636,0.7081202046035806
0.04455227172474636,0.7084398976982097
0.04468799837128024,0.7084398976982097
0.04468799837128024,0.709079283887468
0.04470496420209698,0.709079283887468
0.04470496420209698,0.7093989769820972
0.04472193003291371,0.7093989769820972
0.04472193003291371,0.7100383631713555
0.04489158834108106,0.7100383631713555
0.04489158834108106,0.7103580562659847
0.045163041634148825,0.7103580562659847
0.045163041634148825,0.7106777493606138
0.04518000746496556,0.7106777493606138
0.04518000746496556,0.710997442455243
0.04521393912659903,0.710997442455243
0.04521393912659903,0.7113171355498721
0.04534966577313291,0.7113171355498721
0.04534966577313291,0.7116368286445013
0.04543449492721659,0.7116368286445013
0.04543449492721659,0.7119565217391305
0.04546842658885006,0.7119565217391305
0.04546842658885006,0.7122762148337596
0.045485392419666794,0.7122762148337596
0.045485392419666794,0.7129156010230179
0.04555325574293373,0.7129156010230179
0.04555325574293373,0.7132352941176471
0.045926504020901905,0.7132352941176471
0.045926504020901905,0.7135549872122762
0.04604526483661905,0.7135549872122762
0.04604526483661905,0.7138746803069054
0.04606223066743578,0.7138746803069054
0.04606223066743578,0.7141943734015346
0.0462149231447864,0.7141943734015346
0.0462149231447864,0.7145140664961637
0.04624885480641987,0.7145140664961637
0.04624885480641987,0.7148337595907929
0.04643547894540396,0.7148337595907929
0.04643547894540396,0.715153452685422
0.04652030809948763,0.715153452685422
0.04652030809948763,0.7154731457800512
0.04679176139255539,0.7154731457800512
0.04679176139255539,0.7157928388746803
0.046893556377455806,0.7157928388746803
0.046893556377455806,0.7161125319693095
0.04699535136235621,0.7161125319693095
0.04699535136235621,0.7164322250639387
0.047097146347256626,0.7164322250639387
0.047097146347256626,0.717071611253197
0.04716500967052357,0.717071611253197
0.04716500967052357,0.717391304347826
0.04728377048624071,0.717391304347826
0.04728377048624071,0.7180306905370843
0.047300736317057446,0.7180306905370843
0.047300736317057446,0.7183503836317136
0.04731770214787418,0.7183503836317136
0.04731770214787418,0.7186700767263428
0.04733466797869092,0.7186700767263428
0.04733466797869092,0.719309462915601
0.048030267042177055,0.719309462915601
0.048030267042177055,0.7196291560102301
0.048098130365444,0.7196291560102301
0.048098130365444,0.7199488491048593
0.04825082284279461,0.7199488491048593
0.04825082284279461,0.7202685421994884
0.048437446981778695,0.7202685421994884
0.048437446981778695,0.7209079283887468
0.04862407112076279,0.7209079283887468
0.04862407112076279,0.7215473145780051
0.04869193444402972,0.7215473145780051
0.04869193444402972,0.7218670076726342
0.048793729428930135,0.7218670076726342
0.048793729428930135,0.7221867007672634
0.04884462692138034,0.7221867007672634
0.04884462692138034,0.7228260869565217
0.04892945607546401,0.7228260869565217
0.04892945607546401,0.72346547314578
0.048963387737097484,0.72346547314578
0.048963387737097484,0.7237851662404092
0.049489328492416274,0.7237851662404092
0.049489328492416274,0.7241048593350383
0.0497438159546673,0.7241048593350383
0.0497438159546673,0.7247442455242967
0.049930440093651385,0.7247442455242967
0.049930440093651385,0.7250639386189258
0.05001526924773506,0.7250639386189258
0.050049200909368534,0.7250639386189258
0.05020189338671915,0.7250639386189258
0.05020189338671915,0.725383631713555
0.05026975670998609,0.725383631713555
0.05026975670998609,0.7257033248081841
0.05054121000305385,0.7257033248081841
0.05054121000305385,0.7260230179028133
0.05059210749550405,0.7260230179028133
0.05059210749550405,0.7263427109974424
0.05064300498795426,0.7263427109974424
0.05064300498795426,0.7266624040920716
0.05076176580367141,0.7266624040920716
0.05076176580367141,0.7269820971867008
0.05077873163448814,0.7269820971867008
0.05077873163448814,0.7273017902813299
0.051135014081639577,0.7273017902813299
0.051135014081639577,0.7276214833759591
0.051253774897356726,0.7276214833759591
0.051253774897356726,0.7279411764705882
0.05127074072817346,0.7279411764705882
0.05127074072817346,0.7285805626598465
0.0513895015438906,0.7285805626598465
0.0513895015438906,0.7289002557544757
0.051660954836958366,0.7289002557544757
0.051660954836958366,0.7292199488491049
0.05171185232940857,0.7292199488491049
0.05171185232940857,0.729539641943734
0.05172881816022531,0.729539641943734
0.05172881816022531,0.7301790281329923
0.05184757897594245,0.7301790281329923
0.05184757897594245,0.7304987212276215
0.05193240813002613,0.7304987212276215
0.05193240813002613,0.7311381074168798
0.05216992976146042,0.7311381074168798
0.05220386142309389,0.7311381074168798
0.05223779308472736,0.7311381074168798
0.05223779308472736,0.731457800511509
0.05245834888534492,0.731457800511509
0.05245834888534492,0.7324168797953964
0.05252621220861185,0.7324168797953964
0.05252621220861185,0.7327365728900256
0.053035187133113906,0.7327365728900256
0.053035187133113906,0.7330562659846548
0.05317091377964779,0.7330562659846548
0.05317091377964779,0.7336956521739131
0.05345933290353229,0.7336956521739131
0.05345933290353229,0.7340153452685422
0.05349326456516575,0.7340153452685422
0.05349326456516575,0.7343350383631714
0.053561127888432696,0.7343350383631714
0.053561127888432696,0.7349744245524297
0.05359505955006617,0.7349744245524297
0.05359505955006617,0.735613810741688
0.053713820365783316,0.735613810741688
0.053713820365783316,0.7359335038363172
0.053730786196600044,0.7359335038363172
0.053730786196600044,0.7362531969309463
0.05378168368905025,0.7362531969309463
0.05378168368905025,0.7365728900255755
0.05383258118150046,0.7365728900255755
0.05383258118150046,0.7372122762148338
0.05447728275253639,0.7372122762148338
0.05447728275253639,0.737531969309463
0.054680872722337216,0.737531969309463
0.054680872722337216,0.7378516624040921
0.054697838553153945,0.7378516624040921
0.054697838553153945,0.7381713554987213
0.05476570187642089,0.7381713554987213
0.05476570187642089,0.7388107416879796
0.05479963353805436,0.7388107416879796
0.05479963353805436,0.7391304347826086
0.054850531030504565,0.7391304347826086
0.054850531030504565,0.7400895140664961
0.05490142852295477,0.7400895140664961
0.05490142852295477,0.7404092071611253
0.05491839435377151,0.7404092071611253
0.05491839435377151,0.7407289002557544
0.05507108683112212,0.7407289002557544
0.05507108683112212,0.7410485933503836
0.055257710970106205,0.7410485933503836
0.055291642631739676,0.7410485933503836
0.05534254012418988,0.7410485933503836
0.05534254012418988,0.7413682864450127
0.055495232601540496,0.7413682864450127
0.055495232601540496,0.7416879795396419
0.0555461300939907,0.7416879795396419
0.0555461300939907,0.7423273657289002
0.05556309592480744,0.7423273657289002
0.05556309592480744,0.7426470588235294
0.05559702758644091,0.7426470588235294
0.05559702758644091,0.7429667519181585
0.055613993417257646,0.7429667519181585
0.055613993417257646,0.7436061381074168
0.05568185674052458,0.7436061381074168
0.05568185674052458,0.743925831202046
0.055783651725424994,0.743925831202046
0.055783651725424994,0.7442455242966752
0.05595331003359234,0.7442455242966752
0.05595331003359234,0.7445652173913043
0.055987241695225815,0.7445652173913043
0.056021173356859286,0.7445652173913043
0.05668284075871195,0.7445652173913043
0.05668284075871195,0.7448849104859335
0.056716772420345424,0.7448849104859335
0.056716772420345424,0.7452046035805626
0.05703912320586339,0.7452046035805626
0.05703912320586339,0.7455242966751918
0.057480234807098504,0.7455242966751918
0.057480234807098504,0.745843989769821
0.05763292728444912,0.745843989769821
0.05763292728444912,0.7461636828644501
0.05780258559261647,0.7461636828644501
0.05780258559261647,0.7464833759590793
0.05793831223915035,0.7464833759590793
0.05793831223915035,0.7468030690537084
0.05800617556241729,0.7468030690537084
0.05800617556241729,0.7471227621483376
0.05802314139323403,0.7471227621483376
0.05802314139323403,0.7474424552429667
0.05831156051711852,0.7474424552429667
0.05834549217875199,0.7474424552429667
0.058413355502018934,0.7474424552429667
0.058413355502018934,0.7477621483375959
0.05846425299446914,0.7477621483375959
0.05846425299446914,0.7480818414322251
0.058769637949170374,0.7480818414322251
0.058769637949170374,0.7484015345268542
0.058854467103254045,0.7484015345268542
0.058854467103254045,0.7487212276214834
0.05892233042652099,0.7487212276214834
0.05892233042652099,0.7490409207161125
0.05922771538122222,0.7490409207161125
0.05922771538122222,0.7493606138107417
0.059244681212038956,0.7493606138107417
0.059244681212038956,0.7496803069053708
0.05946523701265651,0.7496803069053708
0.05946523701265651,0.7509590792838875
0.05955006616674018,0.7509590792838875
0.05955006616674018,0.7512787723785166
0.05971972447490754,0.7512787723785166
0.05971972447490754,0.7515984654731458
0.059787587798174474,0.7515984654731458
0.059787587798174474,0.7519181585677749
0.05980455362899121,0.7519181585677749
0.05980455362899121,0.7522378516624041
0.05983848529062468,0.7522378516624041
0.05983848529062468,0.7525575447570333
0.05992331444470836,0.7525575447570333
0.05992331444470836,0.7531969309462916
0.059940280275525094,0.7531969309462916
0.059940280275525094,0.7535166240409207
0.0599911777679753,0.7535166240409207
0.0599911777679753,0.7538363171355499
0.06000814359879203,0.7538363171355499
0.06000814359879203,0.754156010230179
0.06009297275287571,0.754156010230179
0.06009297275287571,0.7544757033248082
0.060177801906959386,0.7544757033248082
0.060177801906959386,0.7547953964194374
0.06031352855349326,0.7547953964194374
0.06031352855349326,0.7551150895140665
0.060584981846561026,0.7551150895140665
0.060584981846561026,0.7554347826086957
0.06089036680126226,0.7554347826086957
0.06089036680126226,0.7557544757033248
0.06102609344779614,0.7557544757033248
0.06102609344779614,0.7563938618925832
0.061314512571680635,0.7563938618925832
0.061348444233314106,0.7563938618925832
0.06139934172576431,0.7563938618925832
0.06139934172576431,0.7567135549872123
0.06145023921821451,0.7567135549872123
0.06145023921821451,0.7570332480818415
0.06150113671066472,0.7570332480818415
0.06150113671066472,0.7573529411764706
0.06173865834209901,0.7573529411764706
0.06173865834209901,0.7576726342710998
0.0619761799735333,0.7576726342710998
0.0619761799735333,0.7579923273657289
0.06202707746598351,0.7579923273657289
0.06202707746598351,0.7583120204603581
0.06212887245088392,0.7583120204603581
0.06212887245088392,0.7586317135549873
0.06214583828170066,0.7586317135549873
0.06214583828170066,0.7589514066496164
0.0625530182213023,0.7589514066496164
0.0625530182213023,0.7595907928388747
0.0626039157137525,0.7595907928388747
0.0626039157137525,0.7599104859335039
0.06262088154456924,0.7599104859335039
0.06262088154456924,0.760230179028133
0.06273964236028638,0.760230179028133
0.06273964236028638,0.7605498721227621
0.06280750568355332,0.7605498721227621
0.06280750568355332,0.7608695652173914
0.06304502731498761,0.7608695652173914
0.06304502731498761,0.7611892583120204
0.06311289063825455,0.7611892583120204
0.06311289063825455,0.7615089514066496
0.06319771979233824,0.7615089514066496
0.06319771979233824,0.7618286445012787
0.06340130976213905,0.7618286445012787
0.06340130976213905,0.7621483375959079
0.06346917308540599,0.7621483375959079
0.06350310474703946,0.7621483375959079
0.06363883139357335,0.7621483375959079
0.06363883139357335,0.762468030690537
0.06379152387092396,0.762468030690537
0.06379152387092396,0.7627877237851662
0.06392725051745785,0.7627877237851662
0.06392725051745785,0.7631074168797954
0.06404601133317499,0.7631074168797954
0.06404601133317499,0.7634271099744245
0.06431746462624274,0.7634271099744245
0.06431746462624274,0.7637468030690537
0.06460588375012724,0.7637468030690537
0.06460588375012724,0.7640664961636828
0.06470767873502765,0.7640664961636828
0.06470767873502765,0.7650255754475703
0.06474161039666113,0.7650255754475703
0.06474161039666113,0.7653452685421995
0.06542024362933054,0.7653452685421995
0.06542024362933054,0.7656649616368286
0.06552203861423093,0.7656649616368286
0.06552203861423093,0.7659846547314578
0.06558990193749788,0.7659846547314578
0.06558990193749788,0.7663043478260869
0.06569169692239829,0.7663043478260869
0.06569169692239829,0.7666240409207161
0.0657934919072987,0.7666240409207161
0.0657934919072987,0.7669437340153452
0.0658443893997489,0.7669437340153452
0.0658443893997489,0.7672634271099744
0.06591225272301585,0.7672634271099744
0.06594618438464932,0.7672634271099744
0.06598011604628279,0.7672634271099744
0.06598011604628279,0.7675831202046036
0.06621763767771707,0.7675831202046036
0.06621763767771707,0.7679028132992327
0.06623460350853382,0.7679028132992327
0.06623460350853382,0.7682225063938619
0.0663703301550677,0.7682225063938619
0.0663703301550677,0.768542199488491
0.06648909097078484,0.768542199488491
0.06648909097078484,0.7688618925831202
0.06650605680160157,0.7688618925831202
0.06650605680160157,0.7691815856777494
0.06672661260221913,0.7691815856777494
0.06672661260221913,0.7695012787723785
0.06706592921855384,0.7695012787723785
0.06706592921855384,0.7698209718670077
0.06715075837263751,0.7698209718670077
0.06715075837263751,0.7701406649616368
0.06720165586508771,0.7701406649616368
0.06720165586508771,0.7707800511508951
0.0672864850191714,0.7707800511508951
0.0672864850191714,0.7710997442455243
0.06730345084998812,0.7710997442455243
0.06730345084998812,0.7714194373401535
0.06742221166570526,0.7714194373401535
0.06742221166570526,0.7717391304347826
0.06782939160530692,0.7717391304347826
0.06782939160530692,0.7720588235294118
0.06791422075939059,0.7720588235294118
0.06791422075939059,0.7723785166240409
0.06794815242102406,0.7723785166240409
0.06794815242102406,0.7726982097186701
0.06820263988327509,0.7726982097186701
0.06820263988327509,0.7730179028132992
0.06827050320654203,0.7730179028132992
0.06827050320654203,0.7733375959079284
0.0684062298530759,0.7733375959079284
0.0684062298530759,0.7736572890025576
0.06859285399205999,0.7736572890025576
0.06859285399205999,0.7739769820971867
0.06889823894676123,0.7739769820971867
0.06889823894676123,0.7742966751918159
0.06901699976247837,0.7742966751918159
0.06901699976247837,0.7749360613810742
0.06911879474737878,0.7749360613810742
0.06911879474737878,0.7752557544757033
0.06918665807064572,0.7752557544757033
0.06918665807064572,0.7755754475703325
0.06920362390146245,0.7755754475703325
0.06920362390146245,0.7758951406649617
0.06928845305554614,0.7758951406649617
0.06928845305554614,0.7762148337595908
0.0693223847171796,0.7762148337595908
0.0693223847171796,0.77653452685422
0.06945811136371348,0.77653452685422
0.06945811136371348,0.7768542199488491
0.06969563299514778,0.7768542199488491
0.06969563299514778,0.7771739130434783
0.06989922296494859,0.7771739130434783
0.06989922296494859,0.7774936061381074
0.06996708628821553,0.7774936061381074
0.06996708628821553,0.7778132992327366
0.06998405211903228,0.7778132992327366
0.06998405211903228,0.7781329923273658
0.070001017949849,0.7781329923273658
0.070001017949849,0.7784526854219949
0.07003494961148247,0.7784526854219949
0.07003494961148247,0.7787723785166241
0.07010281293474942,0.7787723785166241
0.07010281293474942,0.7790920716112532
0.0702385395812833,0.7790920716112532
0.0702385395812833,0.7794117647058824
0.07042516372026739,0.7794117647058824
0.07042516372026739,0.7797314578005116
0.07088324115231923,0.7797314578005116
0.07088324115231923,0.7800511508951407
0.07110379695293678,0.7800511508951407
0.07110379695293678,0.7803708439897699
0.07135828441518781,0.7803708439897699
0.07135828441518781,0.780690537084399
0.0714431135692715,0.780690537084399
0.0714431135692715,0.7810102301790282
0.0715449085541719,0.7810102301790282
0.0715449085541719,0.7813299232736572
0.07190119100132333,0.7813299232736572
0.07190119100132333,0.7816496163682864
0.07201995181704048,0.7816496163682864
0.07201995181704048,0.7819693094629157
0.07208781514030742,0.7819693094629157
0.07208781514030742,0.782608695652174
0.07213871263275763,0.782608695652174
0.07213871263275763,0.782928388746803
0.07249499507990906,0.782928388746803
0.07249499507990906,0.7832480818414322
0.0730887991584948,0.7832480818414322
0.0730887991584948,0.7835677749360613
0.073139696650945,0.7835677749360613
0.073139696650945,0.7838874680306905
0.07315666248176173,0.7838874680306905
0.07315666248176173,0.7842071611253197
0.07317362831257847,0.7842071611253197
0.07317362831257847,0.7845268542199488
0.07332632078992908,0.7845268542199488
0.07332632078992908,0.784846547314578
0.07334328662074582,0.784846547314578
0.07334328662074582,0.7851662404092071
0.07385226154524788,0.7851662404092071
0.07385226154524788,0.7854859335038363
0.07398798819178175,0.7854859335038363
0.07402191985341522,0.7854859335038363
0.07414068066913236,0.7854859335038363
0.07414068066913236,0.7858056265984654
0.07431033897729972,0.7858056265984654
0.07431033897729972,0.7864450127877238
0.07446303145465033,0.7864450127877238
0.07446303145465033,0.7867647058823529
0.07456482643955074,0.7867647058823529
0.07456482643955074,0.7870843989769821
0.07461572393200094,0.7870843989769821
0.07461572393200094,0.7874040920716112
0.07470055308608463,0.7874040920716112
0.07470055308608463,0.7877237851662404
0.0747853822401683,0.7877237851662404
0.0747853822401683,0.7883631713554987
0.07492110888670218,0.7883631713554987
0.07492110888670218,0.789002557544757
0.07526042550303688,0.789002557544757
0.07526042550303688,0.7896419437340153
0.07549794713447118,0.7896419437340153
0.07549794713447118,0.7899616368286445
0.07551491296528791,0.7899616368286445
0.07551491296528791,0.7906010230179028
0.07592209290488955,0.7906010230179028
0.07592209290488955,0.790920716112532
0.07600692205897323,0.790920716112532
0.07600692205897323,0.7915601023017903
0.07607478538224016,0.7915601023017903
0.07607478538224016,0.7918797953964194
0.07634623867530793,0.7918797953964194
0.07634623867530793,0.7921994884910486
0.07636320450612466,0.7921994884910486
0.07636320450612466,0.7925191815856778
0.0764310678293916,0.7925191815856778
0.0764310678293916,0.7931585677749361
0.07648196532184182,0.7931585677749361
0.07648196532184182,0.7934782608695652
0.07649893115265854,0.7934782608695652
0.07649893115265854,0.7937979539641944
0.07660072613755896,0.7937979539641944
0.07660072613755896,0.7941176470588235
0.07694004275389366,0.7941176470588235
0.07694004275389366,0.7944373401534527
0.07697397441552713,0.7944373401534527
0.07697397441552713,0.7947570332480819
0.07702487190797733,0.7947570332480819
0.07702487190797733,0.795076726342711
0.07712666689287774,0.795076726342711
0.07712666689287774,0.7953964194373402
0.07716059855451121,0.7953964194373402
0.07716059855451121,0.7957161125319693
0.07722846187777815,0.7957161125319693
0.07722846187777815,0.7963554987212276
0.07726239353941163,0.7963554987212276
0.07726239353941163,0.7966751918158568
0.07738115435512877,0.7966751918158568
0.07738115435512877,0.796994884910486
0.07765260764819654,0.796994884910486
0.07765260764819654,0.7973145780051151
0.07766957347901327,0.7973145780051151
0.07770350514064674,0.7973145780051151
0.07804282175698143,0.7973145780051151
0.07804282175698143,0.7976342710997443
0.07821248006514879,0.7976342710997443
0.07821248006514879,0.7982736572890026
0.07843303586576635,0.7982736572890026
0.07843303586576635,0.7985933503836317
0.0786026941739337,0.7985933503836317
0.0786026941739337,0.7989130434782609
0.07907773743680228,0.7989130434782609
0.07907773743680228,0.7992327365728901
0.07911166909843576,0.7992327365728901
0.07914560076006923,0.7992327365728901
0.07965457568457128,0.7992327365728901
0.07965457568457128,0.7995524296675192
0.07985816565437209,0.7995524296675192
0.07985816565437209,0.7998721227621484
0.0799090631468223,0.7998721227621484
0.0799090631468223,0.8001918158567775
0.07992602897763904,0.8001918158567775
0.07992602897763904,0.8005115089514067
0.07999389230090598,0.8005115089514067
0.07999389230090598,0.8008312020460358
0.08006175562417292,0.8008312020460358
0.08006175562417292,0.801150895140665
0.08016355060907332,0.801150895140665
0.08016355060907332,0.8014705882352942
0.08026534559397373,0.8014705882352942
0.08026534559397373,0.8021099744245525
0.08065555970275864,0.8021099744245525
0.08065555970275864,0.8024296675191815
0.08072342302602559,0.8024296675191815
0.08072342302602559,0.8027493606138107
0.080825218010926,0.8027493606138107
0.080825218010926,0.80306905370844
0.08094397882664314,0.80306905370844
0.08094397882664314,0.803388746803069
0.08097791048827661,0.803388746803069
0.08097791048827661,0.8037084398976982
0.08119846628889417,0.8037084398976982
0.08119846628889417,0.8040281329923273
0.08131722710461131,0.8040281329923273
0.08131722710461131,0.8043478260869565
0.08204675782973092,0.8043478260869565
0.08204675782973092,0.8046675191815856
0.08211462115299786,0.8046675191815856
0.08211462115299786,0.805306905370844
0.08225034779953175,0.805306905370844
0.08225034779953175,0.8056265984654731
0.08231821112279869,0.8056265984654731
0.08231821112279869,0.8062659846547314
0.0824709036001493,0.8062659846547314
0.0824709036001493,0.8065856777493606
0.08299684435546809,0.8065856777493606
0.08299684435546809,0.8069053708439897
0.08318346849445217,0.8069053708439897
0.08318346849445217,0.8072250639386189
0.08340402429506973,0.8072250639386189
0.08340402429506973,0.8075447570332481
0.0834379559567032,0.8075447570332481
0.08357368260323708,0.8075447570332481
0.08357368260323708,0.8078644501278772
0.08365851175732075,0.8078644501278772
0.08365851175732075,0.8081841432225064
0.08386210172712158,0.8081841432225064
0.08386210172712158,0.8085038363171355
0.08392996505038852,0.8085038363171355
0.08392996505038852,0.8088235294117647
0.08428624749753995,0.8088235294117647
0.08428624749753995,0.8091432225063938
0.08433714498999016,0.8091432225063938
0.08433714498999016,0.809462915601023
0.08447287163652405,0.809462915601023
0.08447287163652405,0.8097826086956522
0.0845068032981575,0.8097826086956522
0.0845068032981575,0.8101023017902813
0.08521936819246038,0.8101023017902813
0.08521936819246038,0.8107416879795396
0.08523633402327711,0.8107416879795396
0.08525329985409386,0.8110613810741688
0.08525329985409386,0.8113810741687979
0.08527026568491058,0.8113810741687979
0.08527026568491058,0.8117007672634271
0.08549082148552814,0.8117007672634271
0.08549082148552814,0.8123401534526854
0.0856604797936955,0.8123401534526854
0.0856604797936955,0.8126598465473146
0.08613552305656408,0.8126598465473146
0.08613552305656408,0.8129795396419437
0.0864409080112653,0.8129795396419437
0.0864409080112653,0.8132992327365729
0.08645787384208205,0.8132992327365729
0.08645787384208205,0.8136189258312021
0.08661056631943266,0.8136189258312021
0.08661056631943266,0.8139386189258312
0.08676325879678327,0.8139386189258312
0.08676325879678327,0.8145780051150895
0.08691595127413389,0.8145780051150895
0.08694988293576736,0.8145780051150895
0.08713650707475146,0.8145780051150895
0.08717043873638491,0.8145780051150895
0.08762851616843677,0.8145780051150895
0.08762851616843677,0.8148976982097187
0.08779817447660412,0.8148976982097187
0.08779817447660412,0.8152173913043478
0.08786603779987107,0.8152173913043478
0.08786603779987107,0.815537084398977
0.08800176444640494,0.815537084398977
0.08800176444640494,0.8161764705882353
0.08812052526212209,0.8161764705882353
0.08812052526212209,0.8168158567774936
0.08818838858538902,0.8168158567774936
0.08818838858538902,0.8171355498721228
0.0889518509721421,0.8171355498721228
0.0889518509721421,0.8174552429667519
0.08907061178785926,0.8174552429667519
0.08907061178785926,0.8177749360613811
0.08913847511112619,0.8177749360613811
0.08917240677275966,0.8177749360613811
0.08937599674256048,0.8177749360613811
0.08940992840419396,0.8177749360613811
0.08940992840419396,0.8180946291560103
0.08964745003562824,0.8180946291560103
0.08964745003562824,0.8184143222506394
0.09007159580604662,0.8184143222506394
0.09007159580604662,0.8187340153452686
0.09013945912931356,0.8187340153452686
0.09013945912931356,0.8190537084398977
0.09036001492993112,0.8190537084398977
0.09036001492993112,0.8193734015345269
0.090495741576465,0.8193734015345269
0.090495741576465,0.819693094629156
0.09102168233178379,0.819693094629156
0.09102168233178379,0.8200127877237852
0.09137796477893523,0.8200127877237852
0.09137796477893523,0.8203324808184144
0.09153065725628584,0.8203324808184144
0.09154762308710257,0.8206521739130435
0.0918021105493536,0.8206521739130435
0.0918021105493536,0.8209718670076727
0.09185300804180381,0.8209718670076727
0.09185300804180381,0.8212915601023018
0.09188693970343728,0.8212915601023018
0.09192087136507075,0.8212915601023018
0.09326117199959282,0.8212915601023018
0.09326117199959282,0.82193094629156
0.09351565946184384,0.82193094629156
0.09354959112347731,0.82193094629156
0.09387194190899528,0.82193094629156
0.09387194190899528,0.8222506393861893
0.09390587357062875,0.8222506393861893
0.09390587357062875,0.8228900255754475
0.09409249770961284,0.8228900255754475
0.09412642937124631,0.8228900255754475
0.09416036103287978,0.8228900255754475
0.09416036103287978,0.8232097186700768
0.09424519018696345,0.8232097186700768
0.09424519018696345,0.8235294117647058
0.09427912184859692,0.8235294117647058
0.09427912184859692,0.823849104859335
0.09439788266431408,0.823849104859335
0.09439788266431408,0.8244884910485933
0.09449967764921448,0.8244884910485933
0.09449967764921448,0.8248081841432225
0.09460147263411489,0.8248081841432225
0.09460147263411489,0.8251278772378516
0.09495775508126633,0.8251278772378516
0.09495775508126633,0.8254475703324808
0.09511044755861695,0.8254475703324808
0.09511044755861695,0.8257672634271099
0.09539886668250144,0.8257672634271099
0.09539886668250144,0.8260869565217391
0.09555155915985206,0.8260869565217391
0.09555155915985206,0.8270460358056266
0.09570425163720267,0.8270460358056266
0.09570425163720267,0.8273657289002557
0.09589087577618675,0.8273657289002557
0.09589087577618675,0.8276854219948849
0.09655254317803943,0.8276854219948849
0.09655254317803943,0.8283248081841432
0.09684096230192392,0.8283248081841432
0.09684096230192392,0.8286445012787724
0.09685792813274066,0.8286445012787724
0.09685792813274066,0.8292838874680307
0.09774015133521088,0.8292838874680307
0.09774015133521088,0.8296035805626598
0.09811339961317905,0.8296035805626598
0.09811339961317905,0.829923273657289
0.09816429710562927,0.829923273657289
0.09816429710562927,0.8302429667519181
0.09869023786094805,0.8302429667519181
0.09869023786094805,0.8308823529411765
0.09875810118421499,0.8308823529411765
0.09875810118421499,0.8315217391304348
0.09887686199993213,0.8315217391304348
0.09887686199993213,0.8318414322250639
0.09892775949238235,0.8318414322250639
0.09892775949238235,0.8321611253196931
0.0991483152929999,0.8321611253196931
0.0991483152929999,0.8324808184143222
0.0991992127854501,0.8324808184143222
0.0991992127854501,0.8328005115089514
0.09928404193953377,0.8328005115089514
0.09928404193953377,0.8331202046035806
0.09931797360116724,0.8331202046035806
0.09931797360116724,0.8337595907928389
0.09962335855586849,0.8337595907928389
0.09962335855586849,0.834079283887468
0.09979301686403583,0.834079283887468
0.09979301686403583,0.8347186700767263
0.09994570934138645,0.8347186700767263
0.09994570934138645,0.8350383631713555
0.1000644701571036,0.8350383631713555
0.1000644701571036,0.8353580562659847
0.10074310338977299,0.8353580562659847
0.10074310338977299,0.8356777493606138
0.10103152251365749,0.8356777493606138
0.10103152251365749,0.835997442455243
0.10109938583692443,0.835997442455243
0.10109938583692443,0.8363171355498721
0.10115028332937465,0.8363171355498721
0.10115028332937465,0.8366368286445013
0.10131994163754199,0.8366368286445013
0.10131994163754199,0.8369565217391305
0.10143870245325913,0.8369565217391305
0.10143870245325913,0.8375959079283888
0.1014726341148926,0.8375959079283888
0.1014726341148926,0.8379156010230179
0.10179498490041057,0.8379156010230179
0.10179498490041057,0.8382352941176471
0.1020494723626616,0.8382352941176471
0.10208340402429507,0.8382352941176471
0.10208340402429507,0.8385549872122762
0.10210036985511181,0.8385549872122762
0.10213430151674527,0.8385549872122762
0.10240575480981304,0.8385549872122762
0.10240575480981304,0.8388746803069054
0.10242272064062977,0.8388746803069054
0.10242272064062977,0.8391943734015346
0.10247361813307998,0.8391943734015346
0.10250754979471345,0.8391943734015346
0.10303349055003223,0.8391943734015346
0.10303349055003223,0.8395140664961637
0.10401750873740287,0.8395140664961637
0.10401750873740287,0.8398337595907929
0.10405144039903634,0.8398337595907929
0.10405144039903634,0.840153452685422
0.10413626955312001,0.840153452685422
0.10413626955312001,0.8404731457800512
0.1046113128159886,0.8404731457800512
0.1046113128159886,0.8407928388746803
0.10476400529333922,0.8407928388746803
0.10479793695497268,0.8407928388746803
0.10486580027823962,0.8407928388746803
0.10486580027823962,0.8411125319693095
0.10517118523294086,0.8411125319693095
0.10517118523294086,0.8414322250639387
0.10532387771029147,0.8414322250639387
0.10532387771029147,0.8417519181585678
0.10535780937192495,0.8417519181585678
0.10535780937192495,0.842391304347826
0.10547657018764209,0.842391304347826
0.10547657018764209,0.8427109974424553
0.1056292626649927,0.8427109974424553
0.1056292626649927,0.8430306905370843
0.10564622849580944,0.8430306905370843
0.10564622849580944,0.8433503836317136
0.10569712598825964,0.8433503836317136
0.10569712598825964,0.8436700767263428
0.10624003257439517,0.8436700767263428
0.10624003257439517,0.8439897698209718
0.10639272505174578,0.8439897698209718
0.10639272505174578,0.844309462915601
0.10656238335991314,0.844309462915601
0.10656238335991314,0.8446291560102301
0.10664721251399681,0.8446291560102301
0.10664721251399681,0.8449488491048593
0.10666417834481355,0.8449488491048593
0.10666417834481355,0.8452685421994884
0.10668114417563028,0.8452685421994884
0.10668114417563028,0.8455882352941176
0.10673204166808048,0.8455882352941176
0.10673204166808048,0.8459079283887468
0.10681687082216416,0.8459079283887468
0.10681687082216416,0.8462276214833759
0.10690169997624784,0.8462276214833759
0.10690169997624784,0.8465473145780051
0.10691866580706458,0.8465473145780051
0.10691866580706458,0.8468670076726342
0.10707135828441519,0.8468670076726342
0.10707135828441519,0.8471867007672634
0.10737674323911642,0.8471867007672634
0.10737674323911642,0.8475063938618926
0.10744460656238336,0.8475063938618926
0.10747853822401683,0.8475063938618926
0.10774999151708459,0.8475063938618926
0.10774999151708459,0.8478260869565217
0.10781785484035153,0.8478260869565217
0.10781785484035153,0.8481457800511509
0.10783482067116827,0.8481457800511509
0.10783482067116827,0.84846547314578
0.10786875233280174,0.84846547314578
0.10786875233280174,0.8487851662404092
0.10830986393403685,0.8487851662404092
0.10830986393403685,0.8491048593350383
0.10844559058057072,0.8491048593350383
0.10844559058057072,0.8494245524296675
0.10846255641138747,0.8494245524296675
0.10846255641138747,0.8497442455242967
0.10890366801262258,0.8497442455242967
0.10890366801262258,0.8500639386189258
0.10897153133588952,0.8500639386189258
0.10897153133588952,0.850383631713555
0.10903939465915646,0.850383631713555
0.10903939465915646,0.8507033248081841
0.10939567710630789,0.8507033248081841
0.10939567710630789,0.8510230179028133
0.10946354042957483,0.8510230179028133
0.10946354042957483,0.8513427109974424
0.10953140375284177,0.8513427109974424
0.10953140375284177,0.8516624040920716
0.10966713039937566,0.8516624040920716
0.10966713039937566,0.8519820971867008
0.10976892538427607,0.8519820971867008
0.10976892538427607,0.8523017902813299
0.1097858912150928,0.8523017902813299
0.1097858912150928,0.8526214833759591
0.10995554952326016,0.8526214833759591
0.10995554952326016,0.8529411764705882
0.11017610532387771,0.8529411764705882
0.11017610532387771,0.8532608695652174
0.1103627294628618,0.8532608695652174
0.1103627294628618,0.8535805626598465
0.11075294357164671,0.8535805626598465
0.11075294357164671,0.8539002557544757
0.11078687523328018,0.8539002557544757
0.11078687523328018,0.8542199488491049
0.1110413626955312,0.8542199488491049
0.1110413626955312,0.854539641943734
0.11129585015778223,0.854539641943734
0.11129585015778223,0.8548593350383632
0.11139764514268263,0.8548593350383632
0.11139764514268263,0.8551790281329923
0.11170303009738387,0.8551790281329923
0.11170303009738387,0.8554987212276215
0.11182179091310102,0.8554987212276215
0.11182179091310102,0.8558184143222506
0.11214414169861898,0.8558184143222506
0.11214414169861898,0.8561381074168798
0.11217807336025246,0.8561381074168798
0.11217807336025246,0.8567774936061381
0.11290760408537207,0.8567774936061381
0.11290760408537207,0.8570971867007673
0.11306029656272268,0.8570971867007673
0.11306029656272268,0.8574168797953964
0.11338264734824065,0.8574168797953964
0.11338264734824065,0.8577365728900256
0.11380679311865902,0.8577365728900256
0.11380679311865902,0.8580562659846548
0.11387465644192596,0.8580562659846548
0.11387465644192596,0.8583759590792839
0.11392555393437617,0.8583759590792839
0.11392555393437617,0.8586956521739131
0.11426487055071087,0.8586956521739131
0.11426487055071087,0.8590153452685422
0.11441756302806148,0.8590153452685422
0.11441756302806148,0.8593350383631714
0.11489260629093007,0.8593350383631714
0.11489260629093007,0.8596547314578005
0.11540158121543212,0.8596547314578005
0.11540158121543212,0.8599744245524297
0.1158257269858505,0.8599744245524297
0.1158257269858505,0.8602941176470589
0.11597841946320112,0.8602941176470589
0.11597841946320112,0.860613810741688
0.11604628278646806,0.860613810741688
0.11604628278646806,0.8609335038363172
0.116114146109735,0.8609335038363172
0.116114146109735,0.8612531969309463
0.11641953106443623,0.8612531969309463
0.11641953106443623,0.8615728900255755
0.11687760849648807,0.8615728900255755
0.11687760849648807,0.8618925831202046
0.1170303009738387,0.8618925831202046
0.1170303009738387,0.8622122762148338
0.11714906178955584,0.8622122762148338
0.11714906178955584,0.8628516624040921
0.11735265175935665,0.8628516624040921
0.11735265175935665,0.8631713554987213
0.11750534423670728,0.8631713554987213
0.11750534423670728,0.8634910485933504
0.11770893420650809,0.8634910485933504
0.11770893420650809,0.8638107416879796
0.11777679752977503,0.8638107416879796
0.11777679752977503,0.8641304347826086
0.11787859251467545,0.8641304347826086
0.11787859251467545,0.8644501278772379
0.1180482508228428,0.8644501278772379
0.1180482508228428,0.864769820971867
0.11808218248447626,0.864769820971867
0.11808218248447626,0.8650895140664961
0.11826880662346036,0.8650895140664961
0.11826880662346036,0.8654092071611253
0.11837060160836076,0.8654092071611253
0.11837060160836076,0.8657289002557544
0.11855722574734484,0.8657289002557544
0.11855722574734484,0.8660485933503836
0.11874384988632894,0.8660485933503836
0.11874384988632894,0.8663682864450127
0.1190662006718469,0.8663682864450127
0.1190662006718469,0.8666879795396419
0.11921889314919752,0.8666879795396419
0.11925282481083099,0.8666879795396419
0.11938855145736486,0.8666879795396419
0.11942248311899833,0.8666879795396419
0.11949034644226528,0.8666879795396419
0.11949034644226528,0.8670076726342711
0.11962607308879916,0.8670076726342711
0.11962607308879916,0.8673273657289002
0.11993145804350039,0.8673273657289002
0.11993145804350039,0.8676470588235294
0.12005021885921753,0.8676470588235294
0.12005021885921753,0.8679667519181585
0.12013504801330122,0.8679667519181585
0.12013504801330122,0.8682864450127877
0.12025380882901836,0.8682864450127877
0.12025380882901836,0.8686061381074168
0.12035560381391877,0.8686061381074168
0.12035560381391877,0.8692455242966752
0.12086457873842082,0.8692455242966752
0.12086457873842082,0.8695652173913043
0.1208985104000543,0.8695652173913043
0.1208985104000543,0.8698849104859335
0.12093244206168777,0.8698849104859335
0.12093244206168777,0.8702046035805626
0.1216789386176241,0.8702046035805626
0.1216789386176241,0.8705242966751918
0.12169590444844083,0.8705242966751918
0.12169590444844083,0.870843989769821
0.12198432357232533,0.870843989769821
0.12198432357232533,0.8711636828644501
0.12213701604967596,0.8711636828644501
0.12213701604967596,0.8714833759590793
0.12257812765091107,0.8714833759590793
0.12257812765091107,0.8721227621483376
0.12281564928234535,0.8721227621483376
0.12281564928234535,0.8724424552429667
0.12307013674459638,0.8724424552429667
0.12307013674459638,0.8727621483375959
0.12410505242441722,0.8727621483375959
0.12410505242441722,0.8730818414322251
0.12420684740931763,0.8730818414322251
0.12420684740931763,0.8734015345268542
0.12432560822503479,0.8734015345268542
0.12432560822503479,0.8737212276214834
0.12466492484136948,0.8737212276214834
0.12466492484136948,0.8740409207161125
0.12468189067218621,0.8740409207161125
0.12468189067218621,0.8743606138107417
0.12490244647280377,0.8743606138107417
0.12490244647280377,0.8746803069053708
0.12505513895015438,0.8746803069053708
0.12505513895015438,0.875
0.1251569339350548,0.875
0.1251569339350548,0.8753196930946292
0.12519086559668827,0.8753196930946292
0.12519086559668827,0.8756393861892583
0.1253944555664891,0.8756393861892583
0.1253944555664891,0.8762787723785166
0.12575073801364053,0.8762787723785166
0.12575073801364053,0.8765984654731458
0.12619184961487565,0.8765984654731458
0.12619184961487565,0.8769181585677749
0.12624274710732586,0.8769181585677749
0.12627667876895932,0.8769181585677749
0.12637847375385972,0.8769181585677749
0.12637847375385972,0.8772378516624041
0.12648026873876014,0.8772378516624041
0.12648026873876014,0.8775575447570333
0.1268026195242781,0.8775575447570333
0.1268026195242781,0.8778772378516624
0.12697227783244547,0.8778772378516624
0.12697227783244547,0.8785166240409207
0.1269892436632622,0.8785166240409207
0.1269892436632622,0.8788363171355499
0.12715890197142954,0.8788363171355499
0.12715890197142954,0.879156010230179
0.12726069695632994,0.879156010230179
0.12726069695632994,0.8794757033248082
0.12773574021919853,0.8794757033248082
0.12773574021919853,0.8797953964194374
0.127769671880832,0.8797953964194374
0.127769671880832,0.8801150895140665
0.12788843269654915,0.8801150895140665
0.12788843269654915,0.8804347826086957
0.1282956126361508,0.8804347826086957
0.1282956126361508,0.8807544757033248
0.12846527094431814,0.8807544757033248
0.12846527094431814,0.8813938618925832
0.12866886091411897,0.8813938618925832
0.12866886091411897,0.8817135549872123
0.1291269383461708,0.8817135549872123
0.1291269383461708,0.8820332480818415
0.1296528791014896,0.8820332480818415
0.1296528791014896,0.8823529411764706
0.12966984493230632,0.8823529411764706
0.12966984493230632,0.8826726342710998
0.12972074242475654,0.8826726342710998
0.12972074242475654,0.8829923273657289
0.12995826405619082,0.8829923273657289
0.12995826405619082,0.8833120204603581
0.13007702487190798,0.8833120204603581
0.13007702487190798,0.8836317135549873
0.13014488819517492,0.8836317135549873
0.13017881985680838,0.8836317135549873
0.13033151233415902,0.8836317135549873
0.13033151233415902,0.8839514066496164
0.13080655559702759,0.8839514066496164
0.13080655559702759,0.8842710997442456
0.13084048725866107,0.8842710997442456
0.13084048725866107,0.8845907928388747
0.13090835058192798,0.8845907928388747
0.13090835058192798,0.8849104859335039
0.13121373553662924,0.8849104859335039
0.13121373553662924,0.885230179028133
0.13224865121645007,0.885230179028133
0.13224865121645007,0.8855498721227621
0.13316480608055375,0.8855498721227621
0.13316480608055375,0.8858695652173914
0.13379254182077296,0.8858695652173914
0.13379254182077296,0.8861892583120204
0.13418275592955786,0.8861892583120204
0.13418275592955786,0.8865089514066496
0.13486138916222729,0.8865089514066496
0.13486138916222729,0.8868286445012787
0.13489532082386074,0.8868286445012787
0.13489532082386074,0.8871483375959079
0.13509891079366157,0.8871483375959079
0.13509891079366157,0.887468030690537
0.1357436123646975,0.887468030690537
0.1357436123646975,0.8877877237851662
0.13582844151878118,0.8877877237851662
0.13582844151878118,0.8881074168797954
0.1359472023344983,0.8881074168797954
0.1359472023344983,0.8884271099744245
0.13615079230429913,0.8884271099744245
0.13615079230429913,0.8887468030690537
0.13643921142818363,0.8887468030690537
0.13643921142818363,0.8890664961636828
0.13647314308981712,0.8890664961636828
0.13662583556716773,0.8890664961636828
0.13662583556716773,0.889386189258312
0.13676156221370162,0.889386189258312
0.13676156221370162,0.8897058823529411
0.1368124597061518,0.8897058823529411
0.1368124597061518,0.8900255754475703
0.13694818635268569,0.8900255754475703
0.13694818635268569,0.8906649616368286
0.13713481049166978,0.8906649616368286
0.13716874215330324,0.8906649616368286
0.1377286145702555,0.8906649616368286
0.1377286145702555,0.8909846547314578
0.13776254623188897,0.8909846547314578
0.13776254623188897,0.8913043478260869
0.1393234026670286,0.8913043478260869
0.1393234026670286,0.8916240409207161
0.1398154117607139,0.8916240409207161
0.1398154117607139,0.8919437340153452
0.1399511384072478,0.8919437340153452
0.1399511384072478,0.8922634271099744
0.14015472837704862,0.8922634271099744
0.14015472837704862,0.8925831202046036
0.14022259170031556,0.8925831202046036
0.14022259170031556,0.8929028132992327
0.14078246411726783,0.8929028132992327
0.14078246411726783,0.8932225063938619
0.14083336160971802,0.8932225063938619
0.14083336160971802,0.893542199488491
0.14098605408706866,0.893542199488491
0.14098605408706866,0.8938618925831202
0.14180041396627194,0.8938618925831202
0.14180041396627194,0.8941815856777494
0.14325947541651116,0.8941815856777494
0.14325947541651116,0.8945012787723785
0.14331037290896134,0.8945012787723785
0.14331037290896134,0.8948209718670077
0.14334430457059483,0.8948209718670077
0.14334430457059483,0.8951406649616368
0.14337823623222828,0.8951406649616368
0.14337823623222828,0.895460358056266
0.14373451867937972,0.895460358056266
0.14373451867937972,0.8957800511508951
0.14378541617182994,0.8957800511508951
0.14378541617182994,0.8960997442455243
0.14403990363408095,0.8960997442455243
0.14407383529571444,0.8960997442455243
0.14437922025041566,0.8960997442455243
0.14437922025041566,0.8967391304347826
0.1443961860812324,0.8967391304347826
0.14443011774286588,0.8967391304347826
0.144871229344101,0.8967391304347826
0.144871229344101,0.8970588235294118
0.14594007668555528,0.8970588235294118
0.14594007668555528,0.8973785166240409
0.1460927691629059,0.8973785166240409
0.1460927691629059,0.8976982097186701
0.14612670082453938,0.8976982097186701
0.14612670082453938,0.8980179028132992
0.1470089240270096,0.8980179028132992
0.1470089240270096,0.8983375959079284
0.14736520647416104,0.8983375959079284
0.14736520647416104,0.8986572890025576
0.14743306979742798,0.8986572890025576
0.14743306979742798,0.8989769820971867
0.147687557259679,0.8989769820971867
0.147687557259679,0.8992966751918159
0.14834922466153166,0.8992966751918159
0.14834922466153166,0.899616368286445
0.14872247293949983,0.899616368286445
0.14872247293949983,0.8999360613810742
0.14968952529605375,0.8999360613810742
0.14968952529605375,0.9002557544757033
0.15067354348342438,0.9002557544757033
0.15067354348342438,0.9005754475703325
0.15096196260730887,0.9005754475703325
0.15096196260730887,0.9008951406649617
0.15121645006955992,0.9008951406649617
0.15121645006955992,0.90153452685422
0.15152183502426114,0.90153452685422
0.15152183502426114,0.9018542199488491
0.15223439991856402,0.9018542199488491
0.15223439991856402,0.9021739130434783
0.15252281904244852,0.9021739130434783
0.15252281904244852,0.9024936061381074
0.15269247735061586,0.9024936061381074
0.15269247735061586,0.9028132992327366
0.15308269145940076,0.9028132992327366
0.15308269145940076,0.9031329923273658
0.15330324726001832,0.9031329923273658
0.15330324726001832,0.9034526854219949
0.15352380306063587,0.9034526854219949
0.15352380306063587,0.9037723785166241
0.15355773472226936,0.9037723785166241
0.15355773472226936,0.9040920716112532
0.15428726544738897,0.9040920716112532
0.15428726544738897,0.9044117647058824
0.15466051372535713,0.9044117647058824
0.1546944453869906,0.9044117647058824
0.15471141121780735,0.9044117647058824
0.15471141121780735,0.9047314578005116
0.15501679617250858,0.9047314578005116
0.15501679617250858,0.9050511508951407
0.15544094194292696,0.9050511508951407
0.15547487360456042,0.9050511508951407
0.1556614977435445,0.9050511508951407
0.1556614977435445,0.9053708439897699
0.15596688269824574,0.9053708439897699
0.1560008143598792,0.9053708439897699
0.15649282345356452,0.9053708439897699
0.15649282345356452,0.905690537084399
0.1570187642088833,0.905690537084399
0.1570526958705168,0.905690537084399
0.15706966170133352,0.905690537084399
0.15706966170133352,0.9060102301790282
0.15740897831766823,0.9060102301790282
0.15740897831766823,0.9063299232736572
0.15766346577991924,0.9063299232736572
0.15766346577991924,0.9066496163682864
0.15773132910318619,0.9066496163682864
0.15773132910318619,0.9069693094629157
0.15902073224525806,0.9069693094629157
0.15902073224525806,0.9072890025575447
0.15949577550812663,0.9072890025575447
0.15952970716976012,0.9072890025575447
0.15988598961691153,0.9072890025575447
0.15988598961691153,0.907608695652174
