fpr,tpr
0.0,0.0
5.037732617303604e-06,0.0
0.0012896595500297226,0.0
0.0012997350152643297,0.0
0.001360187806671973,0.0
0.001360187806671973,9.150805270863836e-05
0.0018236592074639046,9.150805270863836e-05
0.0018236592074639046,0.00018301610541727673
0.0019798289186003164,0.00018301610541727673
0.0019798289186003164,0.0002745241581259151
0.002508790843417195,0.0002745241581259151
0.002508790843417195,0.00036603221083455345
0.002518866308651802,0.00036603221083455345
0.002518866308651802,0.0004575402635431918
0.002619620960997874,0.0004575402635431918
0.002619620960997874,0.0005490483162518302
0.0026901492176401244,0.0005490483162518302
0.0026901492176401244,0.0006405563689604685
0.0027254133459612495,0.0006405563689604685
0.0027254133459612495,0.0007320644216691069
0.0027506020090477677,0.0007320644216691069
0.0027506020090477677,0.0008235724743777453
0.002775790672134286,0.0008235724743777453
0.002775790672134286,0.0009150805270863836
0.0028412811961592327,0.0009150805270863836
0.00285135666139384,0.0009150805270863836
0.00285135666139384,0.001006588579795022
0.002901733987566876,0.001006588579795022
0.002901733987566876,0.0010980966325036604
0.002911809452801483,0.0010980966325036604
0.002911809452801483,0.0011896046852122987
0.0031032432922590203,0.0011896046852122987
0.0031032432922590203,0.001281112737920937
0.003360167655741504,0.001281112737920937
0.003360167655741504,0.0013726207906295754
0.003470997773322183,0.0013726207906295754
0.003470997773322183,0.0014641288433382138
0.0035163373668779157,0.0014641288433382138
0.0035163373668779157,0.0015556368960468522
0.0035314505647298265,0.0015556368960468522
0.0035314505647298265,0.0016471449487554905
0.0035566392278163442,0.0016471449487554905
0.0035566392278163442,0.001738653001464129
0.0037077712063354525,0.001738653001464129
0.0037077712063354525,0.0018301610541727673
0.003727922136804667,0.0018301610541727673
0.003727922136804667,0.0019216691068814056
0.0038085258586815244,0.0019216691068814056
0.0038085258586815244,0.002013177159590044
0.003818601323916132,0.002013177159590044
0.003818601323916132,0.0021046852122986823
0.00384378998700265,0.0021046852122986823
0.00384378998700265,0.0021961932650073207
0.003858903184854561,0.0021961932650073207
0.003858903184854561,0.0023792093704245974
0.004085601152633223,0.0023792093704245974
0.004085601152633223,0.002470717423133236
0.004171242607127384,0.002470717423133236
0.004171242607127384,0.002562225475841874
0.004181318072361991,0.002562225475841874
0.004181318072361991,0.0026537335285505125
0.004226657665917724,0.0026537335285505125
0.004226657665917724,0.002745241581259151
0.004236733131152331,0.002745241581259151
0.004236733131152331,0.0028367496339677892
0.004357638713967617,0.0028367496339677892
0.004357638713967617,0.0029282576866764276
0.004458393366313689,0.0029282576866764276
0.004458393366313689,0.003019765739385066
0.004659902671005834,0.003019765739385066
0.004659902671005834,0.0031112737920937043
0.004669978136240441,0.0031112737920937043
0.004669978136240441,0.0032027818448023427
0.0046901290667096555,0.0032027818448023427
0.0046901290667096555,0.003294289897510981
0.0047002045319442624,0.003294289897510981
0.0047002045319442624,0.0033857979502196194
0.004735468660265388,0.0033857979502196194
0.004735468660265388,0.003477306002928258
0.004770732788586513,0.003477306002928258
0.004770732788586513,0.003568814055636896
0.004816072382142245,0.003568814055636896
0.004816072382142245,0.003751830161054173
0.004972242093278657,0.003751830161054173
0.004972242093278657,0.0038433382137628112
0.004982317558513264,0.0038433382137628112
0.004982317558513264,0.00393484626647145
0.00501758168683439,0.00393484626647145
0.00501758168683439,0.004026354319180088
0.005067959013007425,0.004026354319180088
0.005067959013007425,0.004117862371888726
0.005093147676093944,0.004117862371888726
0.005093147676093944,0.004209370424597365
0.005103223141328551,0.004209370424597365
0.005103223141328551,0.004300878477306003
0.005178789130588105,0.004300878477306003
0.005178789130588105,0.004392386530014641
0.005188864595822712,0.004392386530014641
0.005188864595822712,0.00448389458272328
0.005193902328440016,0.00448389458272328
0.005193902328440016,0.004575402635431918
0.005239241921995748,0.004575402635431918
0.005239241921995748,0.0046669106881405565
0.005244279654613051,0.0046669106881405565
0.005244279654613051,0.004758418740849195
0.005264430585082266,0.004758418740849195
0.005264430585082266,0.004849926793557833
0.00526946831769957,0.004849926793557833
0.00526946831769957,0.004941434846266472
0.005274506050316873,0.004941434846266472
0.005274506050316873,0.00503294289897511
0.0053198456438726055,0.00503294289897511
0.0053198456438726055,0.005215959004392387
0.0053248833764899094,0.005215959004392387
0.0053248833764899094,0.005307467057101025
0.005350072039576427,0.005307467057101025
0.005350072039576427,0.005398975109809663
0.005400449365749464,0.005398975109809663
0.005400449365749464,0.005490483162518302
0.0054054870983667675,0.005490483162518302
0.0054054870983667675,0.00558199121522694
0.005445788959305196,0.00558199121522694
0.005445788959305196,0.0056734992679355785
0.005470977622391714,0.0056734992679355785
0.005470977622391714,0.005765007320644217
0.005506241750712839,0.005765007320644217
0.005506241750712839,0.005948023426061494
0.005541505879033964,0.005948023426061494
0.005541505879033964,0.006039531478770132
0.005551581344268572,0.006039531478770132
0.005551581344268572,0.00613103953147877
0.005561656809503179,0.00613103953147877
0.005561656809503179,0.006222547584187409
0.005612034135676215,0.006222547584187409
0.005612034135676215,0.006314055636896047
0.00564729826399734,0.006314055636896047
0.00564729826399734,0.006405563689604685
0.005682562392318465,0.006405563689604685
0.005682562392318465,0.006497071742313324
0.00570271332278768,0.006497071742313324
0.00570271332278768,0.0066800878477306005
0.005743015183726109,0.0066800878477306005
0.005743015183726109,0.006771595900439239
0.00577324157942993,0.006771595900439239
0.00577324157942993,0.006863103953147877
0.005783317044664537,0.006863103953147877
0.005783317044664537,0.006954612005856516
0.005813543440368359,0.006954612005856516
0.005813543440368359,0.007046120058565154
0.005833694370837574,0.007046120058565154
0.005833694370837574,0.007137628111273792
0.005838732103454877,0.007137628111273792
0.005838732103454877,0.007229136163982431
0.005873996231776002,0.007229136163982431
0.005873996231776002,0.007320644216691069
0.005924373557949039,0.007320644216691069
0.005924373557949039,0.007503660322108346
0.005964675418887467,0.007503660322108346
0.005964675418887467,0.007595168374816984
0.005979788616739378,0.007595168374816984
0.005979788616739378,0.0076866764275256225
0.006004977279825896,0.0076866764275256225
0.006004977279825896,0.007778184480234261
0.0060100150124432,0.007778184480234261
0.0060100150124432,0.0078696925329429
0.006015052745060503,0.0078696925329429
0.006015052745060503,0.007961200585651538
0.006050316873381628,0.007961200585651538
0.006050316873381628,0.008052708638360176
0.006055354605998932,0.008052708638360176
0.006055354605998932,0.008144216691068814
0.006075505536468146,0.008144216691068814
0.006075505536468146,0.008327232796486091
0.006130920595258486,0.008327232796486091
0.006130920595258486,0.00841874084919473
0.006166184723579611,0.00841874084919473
0.006166184723579611,0.008693265007320644
0.0062064865845180405,0.008693265007320644
0.0062064865845180405,0.008784773060029283
0.006266939375925683,0.008784773060029283
0.006266939375925683,0.008876281112737921
0.006277014841160291,0.008876281112737921
0.006277014841160291,0.00896778916544656
0.006292128039012202,0.00896778916544656
0.006292128039012202,0.009059297218155198
0.006347543097802541,0.009059297218155198
0.006347543097802541,0.009242313323572475
0.0063928826913582735,0.009242313323572475
0.0063928826913582735,0.009333821376281113
0.006407995889210184,0.009333821376281113
0.006407995889210184,0.009425329428989751
0.006418071354444791,0.009425329428989751
0.006418071354444791,0.00951683748169839
0.00644326001753131,0.00951683748169839
0.00644326001753131,0.009608345534407028
0.006448297750148613,0.009608345534407028
0.006448297750148613,0.009791361639824305
0.006453335482765917,0.009791361639824305
0.006453335482765917,0.009882869692532943
0.006488599611087042,0.009882869692532943
0.006488599611087042,0.010248901903367497
0.006493637343704345,0.010248901903367497
0.006493637343704345,0.010340409956076135
0.006503712808938953,0.010340409956076135
0.006503712808938953,0.010431918008784773
0.006518826006790863,0.010431918008784773
0.006518826006790863,0.010523426061493412
0.006528901472025471,0.010523426061493412
0.006528901472025471,0.01061493411420205
0.006609505193902328,0.01061493411420205
0.006609505193902328,0.010706442166910688
0.006624618391754239,0.010706442166910688
0.006624618391754239,0.010797950219619327
0.00663973158960615,0.010797950219619327
0.00663973158960615,0.010980966325036604
0.0066598825200753645,0.010980966325036604
0.0066598825200753645,0.011072474377745242
0.006685071183161882,0.011072474377745242
0.006685071183161882,0.011346998535871157
0.006720335311483008,0.011346998535871157
0.006720335311483008,0.011438506588579795
0.006725373044100312,0.011438506588579795
0.006725373044100312,0.011621522693997072
0.00676567490503874,0.011621522693997072
0.00676567490503874,0.01171303074670571
0.006816052231211776,0.01171303074670571
0.006816052231211776,0.011896046852122987
0.0068412408942982944,0.011896046852122987
0.0068412408942982944,0.011987554904831626
0.006871467290002116,0.011987554904831626
0.006871467290002116,0.012079062957540264
0.006906731418323241,0.012079062957540264
0.006906731418323241,0.01226207906295754
0.0069369578140270624,0.01226207906295754
0.0069369578140270624,0.012445095168374817
0.006952071011878973,0.012445095168374817
0.006952071011878973,0.012536603221083456
0.006982297407582795,0.012536603221083456
0.006982297407582795,0.012628111273792094
0.006997410605434706,0.012628111273792094
0.006997410605434706,0.012719619326500732
0.00700244833805201,0.012719619326500732
0.00700244833805201,0.01290263543191801
0.007078014327311564,0.01290263543191801
0.007078014327311564,0.012994143484626648
0.007088089792546171,0.012994143484626648
0.007088089792546171,0.013177159590043924
0.007128391653484599,0.013177159590043924
0.007128391653484599,0.013268667642752563
0.007148542583953814,0.013268667642752563
0.007148542583953814,0.013360175695461201
0.007188844444892243,0.013360175695461201
0.007188844444892243,0.01345168374816984
0.0071938821775095465,0.01345168374816984
0.0071938821775095465,0.013543191800878478
0.007208995375361457,0.013543191800878478
0.007208995375361457,0.013634699853587116
0.007214033107978761,0.013634699853587116
0.007214033107978761,0.013726207906295754
0.007244259503682583,0.013726207906295754
0.007244259503682583,0.013817715959004393
0.007249297236299886,0.013817715959004393
0.007249297236299886,0.013909224011713031
0.007319825492942136,0.013909224011713031
0.007319825492942136,0.014092240117130308
0.00732486322555944,0.014092240117130308
0.00732486322555944,0.014183748169838946
0.007385316016967083,0.014183748169838946
0.007385316016967083,0.014366764275256223
0.007405466947436298,0.014366764275256223
0.007405466947436298,0.014458272327964861
0.007420580145288209,0.014458272327964861
0.007420580145288209,0.0145497803806735
0.007425617877905512,0.0145497803806735
0.007425617877905512,0.014641288433382138
0.007486070669313155,0.014641288433382138
0.007486070669313155,0.014732796486090776
0.007491108401930459,0.014732796486090776
0.007491108401930459,0.014915812591508053
0.007496146134547763,0.014915812591508053
0.007496146134547763,0.015007320644216691
0.007521334797634281,0.015007320644216691
0.007521334797634281,0.01509882869692533
0.007526372530251585,0.01509882869692533
0.007526372530251585,0.015190336749633968
0.007541485728103496,0.015190336749633968
0.007541485728103496,0.015281844802342607
0.007586825321659227,0.015281844802342607
0.007586825321659227,0.015373352855051245
0.0076422403804495675,0.015373352855051245
0.0076422403804495675,0.015464860907759883
0.007667429043536085,0.015464860907759883
0.007667429043536085,0.015556368960468522
0.007682542241387996,0.015556368960468522
0.007682542241387996,0.015830893118594435
0.007697655439239907,0.015830893118594435
0.007697655439239907,0.015922401171303075
0.007702693171857211,0.015922401171303075
0.007702693171857211,0.016013909224011712
0.007773221428499461,0.016013909224011712
0.007773221428499461,0.01619692532942899
0.007818561022055193,0.01619692532942899
0.007818561022055193,0.01628843338213763
0.0078286364872898,0.01628843338213763
0.0078286364872898,0.016379941434846265
0.007894127011314747,0.016379941434846265
0.007894127011314747,0.016471449487554905
0.007899164743932052,0.016471449487554905
0.007899164743932052,0.016562957540263542
0.007934428872253176,0.016562957540263542
0.007934428872253176,0.016654465592972182
0.007964655267956998,0.016654465592972182
0.007964655267956998,0.01674597364568082
0.007979768465808909,0.01674597364568082
0.007979768465808909,0.01683748169838946
0.008035183524599249,0.01683748169838946
0.008035183524599249,0.016928989751098095
0.008060372187685766,0.016928989751098095
0.008060372187685766,0.017020497803806735
0.00806540992030307,0.017020497803806735
0.00806540992030307,0.017112005856515372
0.008070447652920374,0.017112005856515372
0.008070447652920374,0.01729502196193265
0.008080523118154982,0.01729502196193265
0.008080523118154982,0.017569546120058566
0.008095636316006892,0.017569546120058566
0.008095636316006892,0.017661054172767202
0.008100674048624195,0.017661054172767202
0.008100674048624195,0.017752562225475842
0.008151051374797231,0.017752562225475842
0.008151051374797231,0.01784407027818448
0.008166164572649142,0.01784407027818448
0.008166164572649142,0.01793557833089312
0.008186315503118357,0.01793557833089312
0.008186315503118357,0.018210102489019032
0.008196390968352963,0.018210102489019032
0.008196390968352963,0.01839311859443631
0.008211504166204874,0.01839311859443631
0.008211504166204874,0.018576134699853586
0.008221579631439482,0.018576134699853586
0.008221579631439482,0.018667642752562226
0.008236692829291393,0.018667642752562226
0.008236692829291393,0.018850658857979503
0.008251806027143304,0.018850658857979503
0.008251806027143304,0.01903367496339678
0.008266919224995214,0.01903367496339678
0.008266919224995214,0.019125183016105416
0.008347522946872072,0.019125183016105416
0.008347522946872072,0.019216691068814056
0.008397900273045107,0.019216691068814056
0.008397900273045107,0.019308199121522693
0.008418051203514323,0.019308199121522693
0.008418051203514323,0.019399707174231333
0.008473466262304661,0.019399707174231333
0.008473466262304661,0.01958272327964861
0.008478503994921966,0.01958272327964861
0.008478503994921966,0.019765739385065886
0.008493617192773877,0.019765739385065886
0.008493617192773877,0.019857247437774523
0.008503692658008483,0.019857247437774523
0.008503692658008483,0.0200402635431918
0.008518805855860394,0.0200402635431918
0.008518805855860394,0.02013177159590044
0.00853895678632961,0.02013177159590044
0.00853895678632961,0.020223279648609076
0.00855406998418152,0.020223279648609076
0.00855406998418152,0.02058931185944363
0.008574220914650734,0.02058931185944363
0.008574220914650734,0.02068081991215227
0.008579258647268037,0.02068081991215227
0.008579258647268037,0.020772327964860907
0.008589334112502645,0.020772327964860907
0.008589334112502645,0.020955344070278183
0.008629635973441074,0.020955344070278183
0.008629635973441074,0.021046852122986823
0.008634673706058377,0.021046852122986823
0.008634673706058377,0.02113836017569546
0.008644749171292985,0.02113836017569546
0.008644749171292985,0.021321376281112737
0.008674975566996807,0.021321376281112737
0.008674975566996807,0.021412884333821377
0.00868001329961411,0.021412884333821377
0.00868001329961411,0.021504392386530014
0.008685051032231413,0.021504392386530014
0.008685051032231413,0.021595900439238654
0.00869512649746602,0.021595900439238654
0.00869512649746602,0.02168740849194729
0.008705201962700629,0.02168740849194729
0.008705201962700629,0.02177891654465593
0.008710239695317932,0.02177891654465593
0.008710239695317932,0.021870424597364567
0.008715277427935235,0.021870424597364567
0.008715277427935235,0.021961932650073207
0.008730390625787145,0.021961932650073207
0.008730390625787145,0.022144948755490484
0.008740466091021753,0.022144948755490484
0.008740466091021753,0.02232796486090776
0.008745503823639056,0.02232796486090776
0.008745503823639056,0.022419472913616397
0.008750541556256361,0.022419472913616397
0.008750541556256361,0.022602489019033674
0.008760617021490967,0.022602489019033674
0.008760617021490967,0.022693997071742314
0.008785805684577486,0.022693997071742314
0.008785805684577486,0.02278550512445095
0.008790843417194789,0.02278550512445095
0.008790843417194789,0.022968521229868227
0.008795881149812092,0.022968521229868227
0.008795881149812092,0.023151537335285504
0.008826107545515913,0.023151537335285504
0.008826107545515913,0.02333455344070278
0.008831145278133218,0.02333455344070278
0.008831145278133218,0.02342606149341142
0.008846258475985129,0.02342606149341142
0.008846258475985129,0.023517569546120057
0.008856333941219735,0.023517569546120057
0.008856333941219735,0.023609077598828698
0.008871447139071646,0.023609077598828698
0.008871447139071646,0.023700585651537334
0.008891598069540861,0.023700585651537334
0.008891598069540861,0.02397510980966325
0.008916786732627378,0.02397510980966325
0.008916786732627378,0.024066617862371888
0.008936937663096594,0.024066617862371888
0.008936937663096594,0.024158125915080528
0.0089470131283312,0.024158125915080528
0.0089470131283312,0.024249633967789164
0.008952050860948505,0.024249633967789164
0.008952050860948505,0.02443265007320644
0.008967164058800416,0.02443265007320644
0.008967164058800416,0.02452415812591508
0.008972201791417719,0.02452415812591508
0.008972201791417719,0.024798682284040995
0.008982277256652326,0.024798682284040995
0.008982277256652326,0.025164714494875548
0.009007465919738843,0.025164714494875548
0.009007465919738843,0.025256222547584188
0.009017541384973451,0.025256222547584188
0.009017541384973451,0.0255307467057101
0.00905784324591188,0.0255307467057101
0.00905784324591188,0.02562225475841874
0.009062880978529184,0.02562225475841874
0.009062880978529184,0.025713762811127378
0.009072956443763791,0.025713762811127378
0.009072956443763791,0.025896778916544655
0.009083031908998397,0.025896778916544655
0.009083031908998397,0.025988286969253295
0.009103182839467613,0.025988286969253295
0.009103182839467613,0.026171303074670572
0.009108220572084916,0.026171303074670572
0.009108220572084916,0.026445827232796485
0.009123333769936827,0.026445827232796485
0.009123333769936827,0.026628843338213762
0.009138446967788738,0.026628843338213762
0.009138446967788738,0.026720351390922402
0.00914348470040604,0.026720351390922402
0.00914348470040604,0.02690336749633968
0.009173711096109862,0.02690336749633968
0.009173711096109862,0.027269399707174232
0.00918378656134447,0.027269399707174232
0.00918378656134447,0.02736090775988287
0.009188824293961773,0.02736090775988287
0.009188824293961773,0.027543923865300145
0.009193862026579078,0.027543923865300145
0.009193862026579078,0.027635431918008786
0.009198899759196381,0.027635431918008786
0.009198899759196381,0.027726939970717422
0.009203937491813684,0.027726939970717422
0.009203937491813684,0.027818448023426062
0.009214012957048292,0.027818448023426062
0.009214012957048292,0.0279099560761347
0.009219050689665595,0.0279099560761347
0.009219050689665595,0.02800146412884334
0.009284541213690543,0.02800146412884334
0.009284541213690543,0.028184480234260616
0.009294616678925149,0.028184480234260616
0.009294616678925149,0.028367496339677892
0.009304692144159757,0.028367496339677892
0.009304692144159757,0.02855051244509517
0.00932484307462897,0.02855051244509517
0.00932484307462897,0.028642020497803806
0.009329880807246274,0.028642020497803806
0.009329880807246274,0.028825036603221083
0.009339956272480882,0.028825036603221083
0.009339956272480882,0.028916544655929723
0.00935003173771549,0.028916544655929723
0.00935003173771549,0.029099560761347
0.009360107202950095,0.029099560761347
0.009360107202950095,0.029282576866764276
0.0093651449355674,0.029282576866764276
0.0093651449355674,0.029374084919472913
0.009375220400802006,0.029374084919472913
0.009375220400802006,0.029465592972181553
0.009385295866036614,0.029465592972181553
0.009385295866036614,0.029923133235724743
0.009395371331271222,0.029923133235724743
0.009395371331271222,0.03010614934114202
0.009405446796505828,0.03010614934114202
0.009405446796505828,0.03019765739385066
0.009425597726975043,0.03019765739385066
0.009425597726975043,0.030563689604685213
0.00943567319220965,0.030563689604685213
0.00943567319220965,0.03065519765739385
0.009445748657444257,0.03065519765739385
0.009445748657444257,0.03074670571010249
0.00945078639006156,0.03074670571010249
0.00945078639006156,0.031021229868228403
0.009460861855296168,0.031021229868228403
0.009460861855296168,0.031112737920937043
0.009465899587913471,0.031112737920937043
0.009465899587913471,0.03120424597364568
0.009470937320530776,0.03120424597364568
0.009470937320530776,0.03129575402635432
0.009481012785765382,0.03129575402635432
0.009481012785765382,0.03138726207906296
0.00949108825099999,0.03138726207906296
0.00949108825099999,0.0314787701317716
0.0095062014488519,0.0314787701317716
0.0095062014488519,0.03157027818448024
0.009511239181469204,0.03157027818448024
0.009511239181469204,0.03166178623718887
0.009541465577173025,0.03166178623718887
0.009541465577173025,0.03175329428989751
0.009581767438111455,0.03175329428989751
0.009581767438111455,0.03184480234260615
0.009586805170728758,0.03184480234260615
0.009586805170728758,0.03193631039531479
0.009591842903346063,0.03193631039531479
0.009591842903346063,0.032119326500732064
0.009596880635963366,0.032119326500732064
0.009596880635963366,0.03239385065885798
0.009611993833815276,0.03239385065885798
0.009611993833815276,0.03248535871156662
0.00961703156643258,0.03248535871156662
0.00961703156643258,0.03275988286969253
0.009622069299049884,0.03275988286969253
0.009622069299049884,0.03285139092240117
0.009637182496901795,0.03285139092240117
0.009637182496901795,0.03294289897510981
0.009642220229519098,0.03294289897510981
0.009642220229519098,0.03303440702781845
0.009647257962136401,0.03303440702781845
0.009647257962136401,0.033125915080527084
0.009657333427371009,0.033125915080527084
0.009657333427371009,0.033217423133235724
0.009667408892605617,0.033217423133235724
0.009667408892605617,0.033308931185944364
0.00967244662522292,0.033308931185944364
0.00967244662522292,0.033400439238653004
0.009692597555692134,0.033400439238653004
0.009692597555692134,0.03367496339677892
0.009697635288309438,0.03367496339677892
0.009697635288309438,0.03376647144948756
0.009702673020926741,0.03376647144948756
0.009702673020926741,0.03385797950219619
0.009717786218778652,0.03385797950219619
0.009717786218778652,0.03394948755490483
0.009742974881865171,0.03394948755490483
0.009742974881865171,0.03404099560761347
0.009748012614482474,0.03404099560761347
0.009748012614482474,0.03413250366032211
0.009768163544951688,0.03413250366032211
0.009768163544951688,0.034224011713030744
0.009788314475420903,0.034224011713030744
0.009788314475420903,0.034315519765739384
0.00979838994065551,0.034315519765739384
0.00979838994065551,0.034407027818448024
0.009803427673272814,0.034407027818448024
0.009803427673272814,0.0345900439238653
0.009808465405890117,0.0345900439238653
0.009808465405890117,0.03468155197657394
0.009818540871124725,0.03468155197657394
0.009818540871124725,0.03477306002928258
0.009828616336359331,0.03477306002928258
0.009828616336359331,0.03486456808199122
0.009833654068976634,0.03486456808199122
0.009833654068976634,0.03504758418740849
0.009863880464680456,0.03504758418740849
0.009863880464680456,0.03513909224011713
0.009878993662532367,0.03513909224011713
0.009878993662532367,0.035322108345534405
0.009889069127766974,0.035322108345534405
0.009889069127766974,0.035413616398243045
0.009899144593001582,0.035413616398243045
0.009899144593001582,0.035505124450951685
0.009909220058236188,0.035505124450951685
0.009909220058236188,0.03568814055636896
0.009919295523470796,0.03568814055636896
0.009919295523470796,0.03587115666178624
0.009929370988705404,0.03587115666178624
0.009929370988705404,0.03596266471449488
0.009959597384409226,0.03596266471449488
0.009959597384409226,0.03605417276720351
0.009969672849643832,0.03605417276720351
0.009969672849643832,0.03614568081991215
0.009984786047495742,0.03614568081991215
0.009984786047495742,0.03623718887262079
0.009989823780113047,0.03623718887262079
0.009989823780113047,0.03632869692532943
0.00999486151273035,0.03632869692532943
0.00999486151273035,0.036420204978038065
0.010020050175816869,0.036420204978038065
0.010020050175816869,0.036603221083455345
0.010055314304137994,0.036603221083455345
0.010055314304137994,0.036694729136163985
0.010070427501989904,0.036694729136163985
0.010070427501989904,0.03678623718887262
0.010085540699841815,0.03678623718887262
0.010085540699841815,0.0369692532942899
0.01012080482816294,0.0369692532942899
0.01012080482816294,0.03706076134699854
0.010130880293397548,0.03706076134699854
0.010130880293397548,0.03724377745241581
0.010140955758632155,0.03724377745241581
0.010140955758632155,0.03733528550512445
0.010181257619570583,0.03733528550512445
0.010181257619570583,0.037701317715959005
0.01021652174789171,0.037701317715959005
0.01021652174789171,0.037792825768667646
0.010246748143595531,0.037792825768667646
0.010246748143595531,0.03788433382137628
0.010251785876212834,0.03788433382137628
0.010251785876212834,0.03797584187408492
0.010266899074064745,0.03797584187408492
0.010266899074064745,0.03806734992679356
0.01031727640023778,0.03806734992679356
0.01031727640023778,0.0381588579795022
0.010327351865472388,0.0381588579795022
0.010327351865472388,0.03852489019033675
0.010347502795941602,0.03852489019033675
0.010347502795941602,0.038616398243045386
0.01035757826117621,0.038616398243045386
0.01035757826117621,0.038707906295754026
0.010362615993793513,0.038707906295754026
0.010362615993793513,0.038890922401171306
0.010377729191645424,0.038890922401171306
0.010377729191645424,0.03907393850658858
0.010382766924262727,0.03907393850658858
0.010382766924262727,0.03916544655929722
0.010423068785201156,0.03916544655929722
0.010423068785201156,0.03925695461200586
0.01042810651781846,0.03925695461200586
0.01042810651781846,0.03934846266471449
0.010433144250435764,0.03934846266471449
0.010433144250435764,0.03953147877013177
0.010448257448287675,0.03953147877013177
0.010448257448287675,0.03962298682284041
0.010463370646139586,0.03962298682284041
0.010463370646139586,0.039714494875549046
0.010468408378756889,0.039714494875549046
0.010468408378756889,0.039897510980966326
0.010473446111374192,0.039897510980966326
0.010473446111374192,0.039989019033674966
0.010508710239695318,0.039989019033674966
0.010508710239695318,0.0400805270863836
0.010533898902781835,0.0400805270863836
0.010533898902781835,0.04026354319180088
0.01053893663539914,0.04026354319180088
0.01053893663539914,0.04035505124450952
0.010543974368016443,0.04035505124450952
0.010543974368016443,0.04044655929721815
0.010549012100633746,0.04044655929721815
0.01055404983325105,0.04053806734992679
0.01055404983325105,0.04072108345534407
0.010569163031102962,0.04072108345534407
0.010569163031102962,0.04108711566617863
0.010594351694189479,0.04108711566617863
0.010594351694189479,0.04117862371888726
0.010619540357275997,0.04117862371888726
0.010619540357275997,0.0412701317715959
0.010654804485597122,0.0412701317715959
0.010654804485597122,0.04136163982430454
0.010730370474856676,0.04136163982430454
0.010730370474856676,0.04163616398243045
0.010745483672708587,0.04163616398243045
0.010745483672708587,0.041819180087847733
0.010780747801029713,0.041819180087847733
0.010780747801029713,0.04191068814055637
0.010785785533647016,0.04191068814055637
0.010785785533647016,0.04200219619326501
0.01079082326626432,0.04200219619326501
0.01079082326626432,0.04209370424597365
0.01080593646411623,0.04209370424597365
0.01080593646411623,0.04218521229868229
0.010831125127202749,0.04218521229868229
0.010831125127202749,0.04227672035139092
0.010866389255523873,0.04227672035139092
0.010866389255523873,0.04236822840409956
0.010891577918610392,0.04236822840409956
0.010891577918610392,0.0424597364568082
0.010896615651227695,0.0424597364568082
0.010896615651227695,0.042642752562225474
0.010906691116462303,0.042642752562225474
0.010906691116462303,0.042734260614934114
0.010911728849079606,0.042734260614934114
0.010911728849079606,0.042825768667642754
0.010926842046931517,0.042825768667642754
0.010926842046931517,0.04310029282576867
0.01093187977954882,0.04310029282576867
0.01093187977954882,0.04319180087847731
0.01094699297740073,0.04319180087847731
0.01094699297740073,0.04346632503660322
0.010982257105721857,0.04346632503660322
0.010982257105721857,0.04355783308931186
0.011017521234042982,0.04355783308931186
0.011017521234042982,0.0436493411420205
0.01102759669927759,0.0436493411420205
0.01102759669927759,0.043740849194729134
0.011047747629746803,0.043740849194729134
0.011047747629746803,0.043923865300146414
0.011052785362364106,0.043923865300146414
0.011052785362364106,0.04410688140556369
0.011062860827598714,0.04410688140556369
0.011062860827598714,0.04419838945827233
0.011067898560216017,0.04419838945827233
0.011067898560216017,0.04428989751098097
0.011093087223302536,0.04428989751098097
0.011093087223302536,0.04438140556368961
0.011103162688537144,0.04438140556368961
0.011103162688537144,0.04456442166910688
0.011108200421154447,0.04456442166910688
0.011108200421154447,0.04465592972181552
0.011123313619006358,0.04465592972181552
0.011123313619006358,0.044838945827232794
0.01112835135162366,0.044838945827232794
0.01112835135162366,0.045113469985358715
0.011138426816858268,0.045113469985358715
0.011138426816858268,0.04520497803806735
0.011143464549475571,0.04520497803806735
0.011143464549475571,0.04529648609077599
0.01116865321256209,0.04529648609077599
0.01116865321256209,0.04538799414348463
0.011183766410414001,0.04538799414348463
0.011183766410414001,0.04547950219619327
0.01122406827135243,0.04547950219619327
0.01122406827135243,0.0455710102489019
0.011244219201821644,0.0455710102489019
0.011244219201821644,0.04566251830161054
0.011249256934438947,0.04566251830161054
0.011249256934438947,0.04575402635431918
0.011254294667056252,0.04575402635431918
0.011254294667056252,0.04584553440702782
0.011269407864908163,0.04584553440702782
0.011269407864908163,0.045937042459736455
0.011279483330142769,0.045937042459736455
0.011279483330142769,0.046028550512445095
0.01129459652799468,0.046028550512445095
0.01129459652799468,0.046211566617862375
0.011314747458463895,0.046211566617862375
0.011314747458463895,0.04630307467057101
0.011319785191081198,0.04630307467057101
0.011319785191081198,0.04639458272327965
0.01135001158678502,0.04639458272327965
0.01135001158678502,0.04657759882869693
0.011355049319402323,0.04657759882869693
0.011355049319402323,0.04666910688140556
0.011385275715106145,0.04666910688140556
0.011385275715106145,0.04694363103953148
0.011445728506513788,0.04694363103953148
0.011445728506513788,0.047035139092240115
0.011465879436983002,0.047035139092240115
0.011465879436983002,0.047218155197657395
0.011486030367452217,0.047218155197657395
0.011486030367452217,0.047309663250366035
0.011496105832686824,0.047309663250366035
0.011496105832686824,0.04740117130307467
0.011521294495773342,0.04740117130307467
0.011521294495773342,0.04749267935578331
0.011526332228390645,0.04749267935578331
0.011526332228390645,0.04758418740849195
0.01153136996100795,0.04758418740849195
0.01153136996100795,0.04767569546120059
0.011541445426242556,0.04767569546120059
0.011541445426242556,0.04776720351390922
0.01154648315885986,0.04776720351390922
0.01154648315885986,0.04785871156661786
0.011571671821946378,0.04785871156661786
0.011571671821946378,0.0479502196193265
0.011576709554563682,0.0479502196193265
0.011576709554563682,0.04804172767203514
0.0116018982176502,0.04804172767203514
0.0116018982176502,0.048133235724743775
0.011622049148119415,0.048133235724743775
0.011622049148119415,0.048224743777452415
0.011632124613354021,0.048224743777452415
0.011632124613354021,0.04849926793557833
0.011652275543823237,0.04849926793557833
0.011652275543823237,0.04859077598828697
0.011662351009057843,0.04859077598828697
0.011662351009057843,0.04868228404099561
0.011667388741675147,0.04868228404099561
0.011667388741675147,0.04877379209370425
0.011687539672144361,0.04877379209370425
0.011687539672144361,0.04886530014641288
0.011737916998317397,0.04886530014641288
0.011737916998317397,0.04895680819912152
0.011763105661403915,0.04895680819912152
0.011763105661403915,0.04904831625183016
0.011793332057107737,0.04904831625183016
0.011793332057107737,0.0491398243045388
0.011823558452811559,0.0491398243045388
0.011823558452811559,0.049322840409956076
0.011843709383280773,0.049322840409956076
0.011843709383280773,0.04959736456808199
0.011848747115898077,0.04959736456808199
0.011848747115898077,0.04968887262079063
0.01189408670945381,0.04968887262079063
0.01189408670945381,0.04978038067349927
0.011899124442071113,0.04978038067349927
0.011899124442071113,0.04987188872620791
0.011924313105157631,0.04987188872620791
0.011924313105157631,0.04996339677891654
0.011929350837774935,0.04996339677891654
0.011929350837774935,0.05005490483162518
0.011944464035626845,0.05005490483162518
0.011944464035626845,0.05014641288433382
0.011969652698713362,0.05014641288433382
0.011969652698713362,0.05023792093704246
0.012004916827034489,0.05023792093704246
0.012004916827034489,0.050420937042459736
0.012009954559651792,0.050420937042459736
0.012009954559651792,0.050512445095168376
0.012040180955355613,0.050512445095168376
0.012040180955355613,0.050603953147877016
0.012045218687972916,0.050603953147877016
0.012045218687972916,0.05078696925329429
0.012050256420590221,0.05078696925329429
0.012050256420590221,0.05115300146412884
0.012070407351059435,0.05115300146412884
0.012070407351059435,0.05124450951683748
0.01212078467723247,0.05124450951683748
0.01212078467723247,0.05133601756954612
0.012171162003405508,0.05133601756954612
0.012171162003405508,0.051427525622254756
0.012181237468640114,0.051427525622254756
0.012181237468640114,0.051519033674963396
0.012196350666492025,0.051519033674963396
0.012196350666492025,0.05188506588579795
0.01220138839910933,0.05188506588579795
0.01220138839910933,0.05197657393850659
0.012236652527430454,0.05197657393850659
0.012236652527430454,0.05206808199121523
0.012256803457899668,0.05206808199121523
0.012256803457899668,0.05215959004392386
0.012292067586220794,0.05215959004392386
0.012292067586220794,0.0522510980966325
0.012312218516690008,0.0522510980966325
0.012312218516690008,0.052434114202049784
0.012332369447159222,0.052434114202049784
0.012332369447159222,0.05252562225475842
0.012347482645011133,0.05252562225475842
0.012347482645011133,0.05261713030746706
0.012367633575480349,0.05261713030746706
0.012367633575480349,0.0527086383601757
0.01238274677333226,0.0527086383601757
0.01238274677333226,0.05280014641288434
0.012392822238566865,0.05280014641288434
0.012392822238566865,0.05289165446559297
0.012402897703801473,0.05289165446559297
0.012402897703801473,0.05298316251830161
0.012433124099505295,0.05298316251830161
0.012433124099505295,0.05307467057101025
0.012443199564739903,0.05307467057101025
0.012443199564739903,0.05316617862371889
0.012448237297357206,0.05316617862371889
0.012448237297357206,0.053257686676427524
0.012453275029974509,0.053257686676427524
0.012453275029974509,0.053349194729136164
0.012473425960443724,0.053349194729136164
0.012473425960443724,0.05362371888726208
0.012478463693061027,0.05362371888726208
0.012478463693061027,0.05371522693997072
0.012503652356147544,0.05371522693997072
0.012503652356147544,0.05398975109809663
0.012533878751851366,0.05398975109809663
0.012533878751851366,0.05408125915080527
0.01253891648446867,0.05408125915080527
0.01253891648446867,0.05426427525622255
0.012564105147555188,0.05426427525622255
0.012564105147555188,0.054355783308931184
0.012574180612789795,0.054355783308931184
0.012574180612789795,0.054538799414348464
0.012584256078024403,0.054538799414348464
0.012584256078024403,0.05481332357247438
0.012604407008493617,0.05481332357247438
0.012604407008493617,0.05490483162518302
0.01260944474111092,0.05490483162518302
0.01260944474111092,0.05508784773060029
0.012614482473728225,0.05508784773060029
0.012614482473728225,0.05527086383601757
0.012624557938962831,0.05527086383601757
0.012624557938962831,0.05536237188872621
0.012644708869432046,0.05536237188872621
0.012644708869432046,0.055545387994143484
0.01264974660204935,0.055545387994143484
0.01264974660204935,0.0558199121522694
0.012674935265135868,0.0558199121522694
0.012674935265135868,0.05591142020497804
0.012685010730370474,0.05591142020497804
0.012685010730370474,0.05600292825768668
0.012690048462987779,0.05600292825768668
0.012690048462987779,0.05609443631039532
0.012730350323926207,0.05609443631039532
0.012730350323926207,0.05618594436310395
0.012735388056543511,0.05618594436310395
0.012735388056543511,0.05636896046852123
0.012755538987012725,0.05636896046852123
0.012755538987012725,0.05646046852122987
0.012780727650099244,0.05646046852122987
0.012780727650099244,0.056551976573938505
0.01279080311533385,0.056551976573938505
0.01279080311533385,0.056643484626647145
0.012795840847951155,0.056643484626647145
0.012795840847951155,0.056734992679355785
0.012800878580568458,0.056734992679355785
0.012800878580568458,0.056826500732064425
0.012815991778420369,0.056826500732064425
0.012815991778420369,0.05691800878477306
0.012836142708889582,0.05691800878477306
0.012836142708889582,0.0570095168374817
0.01284621817412419,0.0570095168374817
0.01284621817412419,0.05710102489019034
0.012856293639358798,0.05710102489019034
0.012856293639358798,0.05719253294289898
0.012861331371976101,0.05719253294289898
0.012861331371976101,0.05737554904831625
0.01288652003506262,0.05737554904831625
0.01288652003506262,0.05746705710102489
0.012936897361235655,0.05746705710102489
0.012936897361235655,0.057741581259150805
0.012941935093852958,0.057741581259150805
0.012941935093852958,0.057924597364568085
0.012957048291704869,0.057924597364568085
0.012957048291704869,0.05801610541727672
0.012962086024322174,0.05801610541727672
0.012962086024322174,0.05810761346998536
0.012982236954791388,0.05810761346998536
0.012982236954791388,0.058199121522694
0.012992312420025996,0.058199121522694
0.012992312420025996,0.05829062957540264
0.013002387885260602,0.05829062957540264
0.013002387885260602,0.05838213762811127
0.01301246335049521,0.05838213762811127
0.01301246335049521,0.05856515373352855
0.013032614280964423,0.05856515373352855
0.013032614280964423,0.05865666178623719
0.013042689746199031,0.05865666178623719
0.013042689746199031,0.058839677891654465
0.013072916141902853,0.058839677891654465
0.013072916141902853,0.058931185944363106
0.013093067072372067,0.058931185944363106
0.013093067072372067,0.059022693997071746
0.013118255735458585,0.059022693997071746
0.013118255735458585,0.05911420204978038
0.013123293468075888,0.05911420204978038
0.013123293468075888,0.05920571010248902
0.013128331200693191,0.05920571010248902
0.013128331200693191,0.05929721815519766
0.013133368933310496,0.05929721815519766
0.013133368933310496,0.0593887262079063
0.013148482131162407,0.0593887262079063
0.013148482131162407,0.05957174231332357
0.013173670794248924,0.05957174231332357
0.013173670794248924,0.05975475841874085
0.013178708526866229,0.05975475841874085
0.013178708526866229,0.059846266471449486
0.013213972655187353,0.059846266471449486
0.013213972655187353,0.059937774524158126
0.013219010387804656,0.059937774524158126
0.013219010387804656,0.060029282576866766
0.013229085853039264,0.060029282576866766
0.013229085853039264,0.060120790629575406
0.013239161318273872,0.060120790629575406
0.013239161318273872,0.06021229868228404
0.013249236783508478,0.06021229868228404
0.013249236783508478,0.06030380673499268
0.013264349981360389,0.06030380673499268
0.013264349981360389,0.06039531478770132
0.013274425446594997,0.06039531478770132
0.013274425446594997,0.06066983894582723
0.013284500911829604,0.06066983894582723
0.013284500911829604,0.06076134699853587
0.013289538644446907,0.06076134699853587
0.013289538644446907,0.060944363103953146
0.013329840505385337,0.060944363103953146
0.013329840505385337,0.061035871156661786
0.013360066901089158,0.061035871156661786
0.013360066901089158,0.061218887262079066
0.01337518009894107,0.061218887262079066
0.01337518009894107,0.0613103953147877
0.013380217831558372,0.0613103953147877
0.013380217831558372,0.06149341142020498
0.013385255564175675,0.06149341142020498
0.013385255564175675,0.06158491947291362
0.013395331029410283,0.06158491947291362
0.013395331029410283,0.06167642752562225
0.013415481959879497,0.06167642752562225
0.013415481959879497,0.06176793557833089
0.013435632890348713,0.06176793557833089
0.013435632890348713,0.06195095168374817
0.01346082155343523,0.06195095168374817
0.01346082155343523,0.06213396778916545
0.013470897018669837,0.06213396778916545
0.013470897018669837,0.06222547584187409
0.01347593475128714,0.06222547584187409
0.01347593475128714,0.06231698389458273
0.013491047949139051,0.06231698389458273
0.013491047949139051,0.06268301610541728
0.013501123414373659,0.06268301610541728
0.013501123414373659,0.06286603221083455
0.01351623661222557,0.06286603221083455
0.01351623661222557,0.0629575402635432
0.013566613938398605,0.0629575402635432
0.013566613938398605,0.06314055636896047
0.013576689403633213,0.06314055636896047
0.013576689403633213,0.06378111273792093
0.013591802601485124,0.06378111273792093
0.013591802601485124,0.06387262079062958
0.013596840334102427,0.06387262079062958
0.013596840334102427,0.06396412884333821
0.01360187806671973,0.06396412884333821
0.01360187806671973,0.06405563689604685
0.013611953531954338,0.06405563689604685
0.013611953531954338,0.0641471449487555
0.01364217992765816,0.0641471449487555
0.01364217992765816,0.06423865300146413
0.013647217660275462,0.06423865300146413
0.013647217660275462,0.06433016105417276
0.01365729312551007,0.06433016105417276
0.01365729312551007,0.06442166910688141
0.013692557253831195,0.06442166910688141
0.013692557253831195,0.06451317715959004
0.013717745916917714,0.06451317715959004
0.013717745916917714,0.06460468521229869
0.013753010045238838,0.06460468521229869
0.013753010045238838,0.0648792093704246
0.013793311906177268,0.0648792093704246
0.013793311906177268,0.06506222547584187
0.01379834963879457,0.06506222547584187
0.01379834963879457,0.06515373352855051
0.013853764697584911,0.06515373352855051
0.013853764697584911,0.06524524158125915
0.013868877895436822,0.06524524158125915
0.013868877895436822,0.0653367496339678
0.013873915628054125,0.0653367496339678
0.013873915628054125,0.06561127379209371
0.01387895336067143,0.06561127379209371
0.01387895336067143,0.06579428989751097
0.013889028825906036,0.06579428989751097
0.013889028825906036,0.06588579795021962
0.013899104291140644,0.06588579795021962
0.013899104291140644,0.06597730600292825
0.013904142023757947,0.06597730600292825
0.013904142023757947,0.0660688140556369
0.013914217488992554,0.0660688140556369
0.013914217488992554,0.06616032210834553
0.013944443884696376,0.06616032210834553
0.013944443884696376,0.06625183016105417
0.013974670280400198,0.06625183016105417
0.013974670280400198,0.06643484626647145
0.0139797080130175,0.06643484626647145
0.0139797080130175,0.06652635431918008
0.013989783478252108,0.06652635431918008
0.013989783478252108,0.06670937042459736
0.014025047606573233,0.06670937042459736
0.014025047606573233,0.06680087847730601
0.01406031173489436,0.06680087847730601
0.01406031173489436,0.06689238653001464
0.014065349467511663,0.06689238653001464
0.014065349467511663,0.06698389458272327
0.014070387200128966,0.06698389458272327
0.014070387200128966,0.06707540263543192
0.01407542493274627,0.06707540263543192
0.01407542493274627,0.06716691068814055
0.01409053813059818,0.06716691068814055
0.01409053813059818,0.06734992679355783
0.01414595318938852,0.06734992679355783
0.01414595318938852,0.06744143484626647
0.014156028654623128,0.06744143484626647
0.014156028654623128,0.06753294289897512
0.014181217317709644,0.06753294289897512
0.014181217317709644,0.06762445095168375
0.014221519178648074,0.06762445095168375
0.014221519178648074,0.06771595900439238
0.014246707841734593,0.06771595900439238
0.014246707841734593,0.06780746705710103
0.014266858772203806,0.06780746705710103
0.014266858772203806,0.06817349926793558
0.014337387028846058,0.06817349926793558
0.014337387028846058,0.06826500732064422
0.01434242476146336,0.06826500732064422
0.01434242476146336,0.06835651537335286
0.014352500226697968,0.06835651537335286
0.014352500226697968,0.06853953147877014
0.014357537959315271,0.06853953147877014
0.014357537959315271,0.0687225475841874
0.01436761342454988,0.0687225475841874
0.01436761342454988,0.06881405563689605
0.0143978398202537,0.06881405563689605
0.0143978398202537,0.06899707174231333
0.014412953018105612,0.06899707174231333
0.014412953018105612,0.06908857979502196
0.014423028483340218,0.06908857979502196
0.014423028483340218,0.06927159590043924
0.014443179413809433,0.06927159590043924
0.014443179413809433,0.06936310395314788
0.014478443542130558,0.06936310395314788
0.014478443542130558,0.06954612005856516
0.014538896333538201,0.06954612005856516
0.014538896333538201,0.06963762811127379
0.014584235927093934,0.06963762811127379
0.014584235927093934,0.06972913616398244
0.014599349124945845,0.06972913616398244
0.014599349124945845,0.0699121522693997
0.014609424590180452,0.0699121522693997
0.014609424590180452,0.07000366032210835
0.014619500055415059,0.07000366032210835
0.014619500055415059,0.07009516837481698
0.014624537788032362,0.07009516837481698
0.014624537788032362,0.07018667642752562
0.014639650985884272,0.07018667642752562
0.014639650985884272,0.0703696925329429
0.014654764183736183,0.0703696925329429
0.014654764183736183,0.07046120058565154
0.014659801916353488,0.07046120058565154
0.014659801916353488,0.07055270863836018
0.014684990579440005,0.07055270863836018
0.014684990579440005,0.07064421669106881
0.014700103777291916,0.07064421669106881
0.014700103777291916,0.07073572474377746
0.014750481103464953,0.07073572474377746
0.014750481103464953,0.07082723279648609
0.014770632033934167,0.07082723279648609
0.014770632033934167,0.07091874084919472
0.014795820697020685,0.07091874084919472
0.014795820697020685,0.07101024890190337
0.014800858429637988,0.07101024890190337
0.014800858429637988,0.07119326500732065
0.014805896162255291,0.07119326500732065
0.014805896162255291,0.07137628111273792
0.014810933894872596,0.07137628111273792
0.014810933894872596,0.07146778916544656
0.014826047092724507,0.07146778916544656
0.014826047092724507,0.0715592972181552
0.014861311221045632,0.0715592972181552
0.014861311221045632,0.07165080527086383
0.01487138668628024,0.07165080527086383
0.01487138668628024,0.07174231332357248
0.014896575349366756,0.07174231332357248
0.014896575349366756,0.07183382137628111
0.014926801745070578,0.07183382137628111
0.014926801745070578,0.07201683748169839
0.014946952675539794,0.07201683748169839
0.014946952675539794,0.07210834553440702
0.0149570281407744,0.07210834553440702
0.0149570281407744,0.0722913616398243
0.014962065873391705,0.0722913616398243
0.014962065873391705,0.07238286969253294
0.01497214133862631,0.07238286969253294
0.01497214133862631,0.07247437774524158
0.015002367734330132,0.07247437774524158
0.015002367734330132,0.07265739385065886
0.01501244319956474,0.07265739385065886
0.01501244319956474,0.0727489019033675
0.015032594130033954,0.0727489019033675
0.015032594130033954,0.07284040995607613
0.015088009188824294,0.07284040995607613
0.015088009188824294,0.07293191800878478
0.015103122386676205,0.07293191800878478
0.015103122386676205,0.07302342606149341
0.015123273317145419,0.07302342606149341
0.015123273317145419,0.07311493411420204
0.015133348782380027,0.07311493411420204
0.015133348782380027,0.07320644216691069
0.01515349971284924,0.07320644216691069
0.01515349971284924,0.07329795021961932
0.01517868837593576,0.07329795021961932
0.01517868837593576,0.07357247437774524
0.015213952504256884,0.07357247437774524
0.015213952504256884,0.07375549048316252
0.015218990236874187,0.07375549048316252
0.015218990236874187,0.0739385065885798
0.015269367563047224,0.0739385065885798
0.015269367563047224,0.07403001464128843
0.015274405295664527,0.07403001464128843
0.015274405295664527,0.07412152269399708
0.015294556226133741,0.07412152269399708
0.015294556226133741,0.07430453879941434
0.015360046750158689,0.07430453879941434
0.015360046750158689,0.07439604685212299
0.0153751599480106,0.07439604685212299
0.0153751599480106,0.07448755490483162
0.015405386343714422,0.07448755490483162
0.015405386343714422,0.07476207906295754
0.015435612739418243,0.07476207906295754
0.015435612739418243,0.07485358711566618
0.01544568820465285,0.07485358711566618
0.01544568820465285,0.07503660322108345
0.01546080140250476,0.07503660322108345
0.01546080140250476,0.07521961932650073
0.015475914600356671,0.07521961932650073
0.015475914600356671,0.07531112737920936
0.015496065530825887,0.07531112737920936
0.015496065530825887,0.07540263543191801
0.015526291926529708,0.07540263543191801
0.015526291926529708,0.07549414348462664
0.015536367391764314,0.07549414348462664
0.015536367391764314,0.07558565153733529
0.015566593787468136,0.07558565153733529
0.015566593787468136,0.07567715959004392
0.015632084311493082,0.07567715959004392
0.015632084311493082,0.07604319180087847
0.0156572729745796,0.07604319180087847
0.0156572729745796,0.07613469985358712
0.015672386172431513,0.07613469985358712
0.015672386172431513,0.07622620790629575
0.01568246163766612,0.07622620790629575
0.01568246163766612,0.0763177159590044
0.015687499370283423,0.0763177159590044
0.015687499370283423,0.07640922401171303
0.01576810309216028,0.07640922401171303
0.01576810309216028,0.07659224011713031
0.015798329487864103,0.07659224011713031
0.015798329487864103,0.07668374816983894
0.015868857744506353,0.07668374816983894
0.015868857744506353,0.07677525622254758
0.015883970942358265,0.07677525622254758
0.015883970942358265,0.07686676427525622
0.01590915960544478,0.07686676427525622
0.01590915960544478,0.07695827232796486
0.015954499199000514,0.07695827232796486
0.015954499199000514,0.0770497803806735
0.015974650129469727,0.0770497803806735
0.015974650129469727,0.07714128843338214
0.016004876525173548,0.07714128843338214
0.016004876525173548,0.07723279648609077
0.01601998972302546,0.07723279648609077
0.01601998972302546,0.07732430453879942
0.01604517838611198,0.07732430453879942
0.01604517838611198,0.07741581259150805
0.016050216118729282,0.07741581259150805
0.016050216118729282,0.07750732064421668
0.016105631177519623,0.07750732064421668
0.016105631177519623,0.07759882869692533
0.016110668910136926,0.07759882869692533
0.016110668910136926,0.07769033674963396
0.01613081984060614,0.07769033674963396
0.01613081984060614,0.07778184480234261
0.016191272632013785,0.07778184480234261
0.016191272632013785,0.07787335285505124
0.01620134809724839,0.07787335285505124
0.016211423562482997,0.07787335285505124
0.016211423562482997,0.07796486090775988
0.01622653676033491,0.07796486090775988
0.01622653676033491,0.07805636896046853
0.01624668769080412,0.07805636896046853
0.01624668769080412,0.07823938506588579
0.01628195181912525,0.07823938506588579
0.01628195181912525,0.07833089311859444
0.016307140482211765,0.07833089311859444
0.016307140482211765,0.07851390922401172
0.01632729141268098,0.07851390922401172
0.01632729141268098,0.07860541727672035
0.016337366877915586,0.07860541727672035
0.016337366877915586,0.07869692532942898
0.016367593273619408,0.07869692532942898
0.016367593273619408,0.07887994143484627
0.01638270647147132,0.07887994143484627
0.01638270647147132,0.07906295754026355
0.016387744204088624,0.07906295754026355
0.016387744204088624,0.07915446559297218
0.016412932867175142,0.07915446559297218
0.016412932867175142,0.07924597364568083
0.016433083797644358,0.07924597364568083
0.016433083797644358,0.07933748169838946
0.016473385658582786,0.07933748169838946
0.016473385658582786,0.07942898975109809
0.016488498856434695,0.07942898975109809
0.016488498856434695,0.07952049780380674
0.01653383844999043,0.07952049780380674
0.01653383844999043,0.07961200585651537
0.016569102578311554,0.07961200585651537
0.016569102578311554,0.079703513909224
0.016574140310928857,0.079703513909224
0.016574140310928857,0.07988653001464129
0.016594291241398072,0.07988653001464129
0.016594291241398072,0.0801610541727672
0.016614442171867284,0.0801610541727672
0.016614442171867284,0.08025256222547585
0.016629555369719197,0.08025256222547585
0.016629555369719197,0.08034407027818448
0.016710159091596056,0.08034407027818448
0.016710159091596056,0.08043557833089311
0.016720234556830662,0.08043557833089311
0.016720234556830662,0.08052708638360176
0.016730310022065268,0.08052708638360176
0.016730310022065268,0.08061859443631039
0.016750460952534484,0.08061859443631039
0.016750460952534484,0.08071010248901904
0.016775649615621002,0.08071010248901904
0.016775649615621002,0.0808931185944363
0.016810913743942127,0.0808931185944363
0.016810913743942127,0.08098462664714495
0.016836102407028646,0.08098462664714495
0.016836102407028646,0.08107613469985359
0.01684617787226325,0.08107613469985359
0.01684617787226325,0.08116764275256222
0.016861291070115164,0.08116764275256222
0.016861291070115164,0.0813506588579795
0.016866328802732467,0.0813506588579795
0.016866328802732467,0.08162518301610541
0.016957007989843932,0.08162518301610541
0.016957007989843932,0.08180819912152269
0.016962045722461235,0.08180819912152269
0.016962045722461235,0.08199121522693997
0.01697212118769584,0.08199121522693997
0.01697212118769584,0.0820827232796486
0.016977158920313144,0.0820827232796486
0.016977158920313144,0.08217423133235725
0.017002347583399663,0.08217423133235725
0.017002347583399663,0.08226573938506589
0.01702249851386888,0.08226573938506589
0.01702249851386888,0.08235724743777452
0.017032573979103485,0.08235724743777452
0.017032573979103485,0.08244875549048317
0.017037611711720788,0.08244875549048317
0.017037611711720788,0.0825402635431918
0.017062800374807306,0.0825402635431918
0.017062800374807306,0.08263177159590043
0.01706783810742461,0.08263177159590043
0.01706783810742461,0.08272327964860908
0.01707791357265922,0.08272327964860908
0.01707791357265922,0.08281478770131771
0.017087989037893825,0.08281478770131771
0.017087989037893825,0.08290629575402636
0.01709806450312843,0.08290629575402636
0.01709806450312843,0.08308931185944363
0.01710813996836304,0.08308931185944363
0.01710813996836304,0.0832723279648609
0.017118215433597646,0.0832723279648609
0.017118215433597646,0.08345534407027819
0.017163555027153377,0.08345534407027819
0.017163555027153377,0.08354685212298682
0.017168592759770684,0.08354685212298682
0.017168592759770684,0.08363836017569547
0.017173630492387987,0.08363836017569547
0.017173630492387987,0.0837298682284041
0.01717866822500529,0.0837298682284041
0.01717866822500529,0.08382137628111273
0.0171937814228572,0.08382137628111273
0.0171937814228572,0.08391288433382138
0.017269347412116755,0.08391288433382138
0.017269347412116755,0.08400439238653001
0.01727942287735136,0.08400439238653001
0.01727942287735136,0.08409590043923865
0.017284460609968664,0.0841874084919473
0.017294536075203273,0.0841874084919473
0.017294536075203273,0.08427891654465593
0.01730461154043788,0.08427891654465593
0.01730461154043788,0.08455344070278184
0.017324762470907095,0.08455344070278184
0.017324762470907095,0.08464494875549049
0.017329800203524398,0.08464494875549049
0.017329800203524398,0.08473645680819912
0.017339875668759004,0.08473645680819912
0.017339875668759004,0.0849194729136164
0.017344913401376307,0.0849194729136164
0.017344913401376307,0.08501098096632503
0.017365064331845523,0.08501098096632503
0.017365064331845523,0.08510248901903368
0.017370102064462826,0.08510248901903368
0.017370102064462826,0.08519399707174231
0.01737513979708013,0.08519399707174231
0.01737513979708013,0.08528550512445095
0.01739025299493204,0.08528550512445095
0.01739025299493204,0.08546852122986823
0.017496045379895415,0.08546852122986823
0.017496045379895415,0.08556002928257686
0.017511158577747328,0.08556002928257686
0.017511158577747328,0.08565153733528551
0.017521234042981934,0.08565153733528551
0.017521234042981934,0.08592606149341142
0.01757161136915497,0.08592606149341142
0.01757161136915497,0.08601756954612005
0.01759680003224149,0.08601756954612005
0.01759680003224149,0.0861090775988287
0.017601837764858793,0.0861090775988287
0.017601837764858793,0.08629209370424597
0.017616950962710702,0.08629209370424597
0.017616950962710702,0.08647510980966325
0.017632064160562615,0.08647510980966325
0.017632064160562615,0.0865666178623719
0.017707630149822167,0.0865666178623719
0.017707630149822167,0.08665812591508053
0.017727781080291383,0.08665812591508053
0.017727781080291383,0.08674963396778916
0.017758007475995204,0.08674963396778916
0.017758007475995204,0.08684114202049781
0.01779327160431633,0.08684114202049781
0.01779327160431633,0.08693265007320644
0.01784868666310667,0.08693265007320644
0.01784868666310667,0.08702415812591507
0.017853724395723972,0.08702415812591507
0.017853724395723972,0.08711566617862372
0.017873875326193188,0.08711566617862372
0.017873875326193188,0.08720717423133235
0.017964554513304653,0.08720717423133235
0.017964554513304653,0.087298682284041
0.01797462997853926,0.087298682284041
0.01797462997853926,0.08739019033674963
0.0180300450373296,0.08739019033674963
0.0180300450373296,0.08748169838945827
0.018040120502564205,0.08748169838945827
0.018040120502564205,0.08766471449487555
0.01804515823518151,0.08766471449487555
0.01804515823518151,0.08775622254758418
0.018065309165650724,0.08775622254758418
0.018065309165650724,0.08793923865300146
0.018095535561354546,0.08793923865300146
0.018095535561354546,0.08803074670571011
0.01810057329397185,0.08803074670571011
0.01810057329397185,0.08812225475841874
0.018110648759206455,0.08812225475841874
0.018110648759206455,0.08821376281112737
0.018150950620144886,0.08821376281112737
0.018150950620144886,0.08830527086383602
0.018191252481083314,0.08830527086383602
0.018191252481083314,0.08839677891654465
0.01820132794631792,0.08839677891654465
0.01820132794631792,0.08848828696925329
0.018206365678935226,0.08848828696925329
0.018206365678935226,0.08857979502196194
0.01822651660940444,0.08857979502196194
0.01822651660940444,0.08867130307467057
0.01823155434202174,0.08867130307467057
0.01823155434202174,0.08876281112737922
0.018236592074639048,0.08876281112737922
0.018236592074639048,0.08885431918008785
0.018251705272490957,0.08885431918008785
0.018251705272490957,0.08894582723279648
0.01825674300510826,0.08894582723279648
0.01825674300510826,0.08903733528550513
0.01828193166819478,0.08903733528550513
0.01828193166819478,0.08912884333821376
0.018292007133429385,0.08912884333821376
0.018292007133429385,0.08931185944363104
0.018317195796515903,0.08931185944363104
0.018317195796515903,0.08940336749633968
0.01833734672698512,0.08940336749633968
0.01833734672698512,0.08949487554904832
0.018352459924837028,0.08949487554904832
0.018352459924837028,0.08958638360175696
0.01836757312268894,0.08958638360175696
0.01836757312268894,0.08967789165446559
0.018397799518392762,0.08967789165446559
0.018397799518392762,0.0899524158125915
0.018402837251010065,0.0899524158125915
0.018402837251010065,0.09013543191800878
0.018407874983627368,0.09013543191800878
0.018407874983627368,0.09022693997071743
0.018433063646713887,0.09022693997071743
0.018433063646713887,0.09031844802342606
0.01843810137933119,0.09031844802342606
0.01843810137933119,0.0904099560761347
0.018443139111948493,0.0904099560761347
0.018443139111948493,0.09050146412884334
0.01846832777503501,0.09050146412884334
0.01846832777503501,0.09068448023426061
0.018488478705504227,0.09068448023426061
0.018488478705504227,0.09077598828696926
0.018498554170738833,0.09077598828696926
0.018498554170738833,0.09095900439238654
0.018503591903356136,0.09095900439238654
0.018503591903356136,0.0911420204978038
0.018528780566442655,0.0911420204978038
0.018528780566442655,0.09123352855051245
0.01857412015999839,0.09123352855051245
0.01857412015999839,0.09132503660322108
0.0185942710904676,0.09132503660322108
0.0185942710904676,0.09150805270863836
0.01864464841664064,0.09150805270863836
0.01864464841664064,0.09169106881405564
0.01864968614925794,0.09169106881405564
0.01864968614925794,0.09178257686676428
0.018684950277579066,0.09178257686676428
0.018684950277579066,0.09187408491947291
0.01875547853422132,0.09187408491947291
0.01875547853422132,0.09196559297218156
0.018790742662542444,0.09196559297218156
0.018790742662542444,0.09205710102489019
0.01880081812777705,0.09205710102489019
0.01880081812777705,0.09214860907759882
0.018815931325628962,0.09214860907759882
0.018815931325628962,0.09224011713030747
0.018836082256098174,0.09224011713030747
0.018836082256098174,0.09242313323572475
0.018851195453950087,0.09242313323572475
0.018851195453950087,0.09251464128843338
0.01885623318656739,0.09251464128843338
0.01885623318656739,0.09260614934114202
0.01893683690844425,0.09260614934114202
0.01893683690844425,0.0927891654465593
0.018972101036765374,0.0927891654465593
0.018972101036765374,0.09288067349926793
0.01898217650199998,0.09288067349926793
0.01898217650199998,0.09297218155197658
0.018997289699851892,0.09297218155197658
0.018997289699851892,0.09306368960468521
0.01906781795649414,0.09306368960468521
0.01906781795649414,0.09315519765739386
0.01909300661958066,0.09315519765739386
0.01909300661958066,0.09324670571010249
0.019203836737161337,0.09324670571010249
0.019203836737161337,0.09333821376281112
0.019284440459038196,0.09333821376281112
0.019284440459038196,0.09342972181551977
0.019339855517828537,0.09342972181551977
0.019339855517828537,0.0935212298682284
0.019354968715680446,0.0935212298682284
0.019354968715680446,0.09361273792093704
0.019365044180915055,0.09361273792093704
0.019365044180915055,0.09370424597364568
0.019420459239705392,0.09370424597364568
0.019420459239705392,0.09379575402635432
0.019440610170174608,0.09379575402635432
0.019440610170174608,0.09388726207906296
0.01944564790279191,0.09388726207906296
0.01944564790279191,0.09407027818448023
0.01945572336802652,0.09407027818448023
0.01945572336802652,0.09416178623718888
0.01947083656587843,0.09416178623718888
0.01947083656587843,0.09425329428989751
0.01952625162466877,0.09425329428989751
0.01952625162466877,0.09434480234260614
0.019531289357286073,0.09434480234260614
0.019531289357286073,0.09452781844802342
0.019546402555137985,0.09452781844802342
0.019546402555137985,0.09461932650073207
0.019576628950841807,0.09461932650073207
0.019576628950841807,0.0947108345534407
0.019586704416076413,0.0947108345534407
0.019586704416076413,0.09489385065885798
0.01961189307916293,0.09489385065885798
0.01961189307916293,0.09498535871156662
0.01962700627701484,0.09498535871156662
0.01962700627701484,0.0951683748169839
0.01966730813795327,0.0951683748169839
0.01966730813795327,0.09525988286969253
0.019677383603187878,0.09525988286969253
0.019677383603187878,0.09535139092240118
0.01976302505768204,0.09535139092240118
0.01976302505768204,0.09544289897510981
0.019798289186003164,0.09544289897510981
0.019798289186003164,0.09553440702781844
0.019838591046941592,0.09553440702781844
0.019838591046941592,0.09562591508052709
0.01986377971002811,0.09562591508052709
0.01986377971002811,0.09571742313323572
0.019894006105731932,0.09571742313323572
0.019894006105731932,0.09580893118594436
0.01990408157096654,0.09580893118594436
0.01990408157096654,0.095900439238653
0.019924232501435754,0.095900439238653
0.019924232501435754,0.09599194729136164
0.019984685292843397,0.09599194729136164
0.019984685292843397,0.09608345534407028
0.020009873955929916,0.09608345534407028
0.020009873955929916,0.09626647144948755
0.02001491168854722,0.09626647144948755
0.02001491168854722,0.0963579795021962
0.02004513808425104,0.0963579795021962
0.02004513808425104,0.09663250366032211
0.02006025128210295,0.09663250366032211
0.02006025128210295,0.09672401171303074
0.020065289014720256,0.09672401171303074
0.020065289014720256,0.09681551976573939
0.020075364479954862,0.09681551976573939
0.020075364479954862,0.09699853587115666
0.02009047767780677,0.09699853587115666
0.02009047767780677,0.0970900439238653
0.020095515410424078,0.0970900439238653
0.020095515410424078,0.09718155197657394
0.02010055314304138,0.09718155197657394
0.02010055314304138,0.09727306002928257
0.02011566634089329,0.09727306002928257
0.02011566634089329,0.09736456808199122
0.0201257418061279,0.09736456808199122
0.0201257418061279,0.09745607613469985
0.020130779538745203,0.09745607613469985
0.020130779538745203,0.0975475841874085
0.020206345528004755,0.0975475841874085
0.020206345528004755,0.09763909224011713
0.02022649645847397,0.09763909224011713
0.02022649645847397,0.09773060029282576
0.0202667983194124,0.09773060029282576
0.0202667983194124,0.09782210834553441
0.020291986982498917,0.09782210834553441
0.020291986982498917,0.09791361639824304
0.020312137912968133,0.09791361639824304
0.020312137912968133,0.09800512445095168
0.020342364308671954,0.09800512445095168
0.020342364308671954,0.09818814055636896
0.02035243977390656,0.09818814055636896
0.02035243977390656,0.0982796486090776
0.020357477506523863,0.0982796486090776
0.020357477506523863,0.09837115666178624
0.02036755297175847,0.09837115666178624
0.02036755297175847,0.09846266471449487
0.020412892565314204,0.09846266471449487
0.020412892565314204,0.09864568081991215
0.020458232158869934,0.09864568081991215
0.020458232158869934,0.09873718887262078
0.02046326989148724,0.09873718887262078
0.02046326989148724,0.09882869692532943
0.020468307624104544,0.09882869692532943
0.020468307624104544,0.09901171303074671
0.020473345356721847,0.09901171303074671
0.020473345356721847,0.09910322108345535
0.020498534019808366,0.09910322108345535
0.020498534019808366,0.09928623718887263
0.02053379814812949,0.09928623718887263
0.02053379814812949,0.09937774524158126
0.020564024543833312,0.09937774524158126
0.020564024543833312,0.09946925329428989
0.020584175474302528,0.09946925329428989
0.020584175474302528,0.09965226939970717
0.020594250939537134,0.09965226939970717
0.020594250939537134,0.09974377745241582
0.020599288672154437,0.09974377745241582
0.020599288672154437,0.09983528550512445
0.02061440187000635,0.09983528550512445
0.02061440187000635,0.09992679355783309
0.020629515067858258,0.09992679355783309
0.020629515067858258,0.10001830161054173
0.02063455280047556,0.10001830161054173
0.02063455280047556,0.10010980966325037
0.020705081057117814,0.10010980966325037
0.020705081057117814,0.100201317715959
0.020735307452821632,0.100201317715959
0.020735307452821632,0.10029282576866765
0.020745382918056242,0.10029282576866765
0.020745382918056242,0.10038433382137628
0.020755458383290848,0.10038433382137628
0.020755458383290848,0.10047584187408493
0.020790722511611973,0.10047584187408493
0.020790722511611973,0.10065885797950219
0.020805835709463885,0.10065885797950219
0.020805835709463885,0.10075036603221084
0.020820948907315794,0.10075036603221084
0.020820948907315794,0.10084187408491947
0.020825986639933097,0.10084187408491947
0.020825986639933097,0.1009333821376281
0.02084109983778501,0.1009333821376281
0.02084109983778501,0.10111639824304539
0.020846137570402313,0.10111639824304539
0.020846137570402313,0.10120790629575403
0.02085621303563692,0.10120790629575403
0.02085621303563692,0.10129941434846267
0.020881401698723438,0.10129941434846267
0.020881401698723438,0.1013909224011713
0.02089651489657535,0.1013909224011713
0.02089651489657535,0.10148243045387995
0.020936816757513778,0.10148243045387995
0.020936816757513778,0.10157393850658858
0.020977118618452206,0.10157393850658858
0.020977118618452206,0.10166544655929721
0.020992231816304118,0.10166544655929721
0.020992231816304118,0.10175695461200586
0.021027495944625243,0.10175695461200586
0.021027495944625243,0.10184846266471449
0.0211080996665021,0.10184846266471449
0.0211080996665021,0.10193997071742314
0.021113137399119405,0.10193997071742314
0.021113137399119405,0.10203147877013177
0.021128250596971314,0.10203147877013177
0.021128250596971314,0.1021229868228404
0.021138326062205923,0.1021229868228404
0.021138326062205923,0.10221449487554905
0.021163514725292442,0.10221449487554905
0.021163514725292442,0.10230600292825769
0.021208854318848173,0.10230600292825769
0.021208854318848173,0.10239751098096632
0.02122900524931739,0.10239751098096632
0.02122900524931739,0.10248901903367497
0.021244118447169297,0.10248901903367497
0.021244118447169297,0.1025805270863836
0.021314646703811547,0.1025805270863836
0.021314646703811547,0.10267203513909225
0.02134487309951537,0.10267203513909225
0.02134487309951537,0.10285505124450951
0.021370061762601887,0.10285505124450951
0.021370061762601887,0.10294655929721816
0.02140028815830571,0.10294655929721816
0.02140028815830571,0.10303806734992679
0.021405325890923012,0.10303806734992679
0.021405325890923012,0.10312957540263543
0.021420439088774924,0.10312957540263543
0.021420439088774924,0.10322108345534407
0.021490967345417174,0.10322108345534407
0.021490967345417174,0.1033125915080527
0.021501042810651783,0.1033125915080527
0.021501042810651783,0.10340409956076135
0.02154134467159021,0.10340409956076135
0.02154134467159021,0.10349560761346999
0.02156653333467673,0.10349560761346999
0.02156653333467673,0.10358711566617862
0.021571571067294033,0.10358711566617862
0.021571571067294033,0.10367862371888727
0.021586684265145942,0.10367862371888727
0.021586684265145942,0.1037701317715959
0.021626986126084373,0.1037701317715959
0.021626986126084373,0.10404465592972181
0.021632023858701676,0.10404465592972181
0.021632023858701676,0.10413616398243046
0.02163706159131898,0.10413616398243046
0.02163706159131898,0.1042276720351391
0.02169247665010932,0.1042276720351391
0.02169247665010932,0.10431918008784773
0.021697514382726622,0.10431918008784773
0.021697514382726622,0.10441068814055637
0.02170758984796123,0.10441068814055637
0.02170758984796123,0.104502196193265
0.02176300490675157,0.104502196193265
0.02176300490675157,0.10459370424597364
0.021783155837220784,0.10459370424597364
0.021783155837220784,0.10468521229868229
0.021813382232924606,0.10468521229868229
0.021813382232924606,0.10477672035139092
0.021878872756949552,0.10477672035139092
0.021878872756949552,0.10486822840409957
0.02191917461788798,0.10486822840409957
0.02191917461788798,0.1049597364568082
0.021969551944061017,0.1049597364568082
0.021969551944061017,0.10505124450951683
0.02197458967667832,0.10505124450951683
0.02197458967667832,0.10514275256222548
0.021994740607147536,0.10514275256222548
0.021994740607147536,0.10523426061493411
0.022024967002851358,0.10523426061493411
0.022024967002851358,0.10532576866764275
0.02211060845734552,0.10532576866764275
0.02211060845734552,0.1054172767203514
0.022120683922580126,0.1054172767203514
0.022120683922580126,0.10550878477306003
0.02213075938781473,0.10550878477306003
0.02213075938781473,0.10560029282576867
0.02215594805090125,0.10560029282576867
0.02215594805090125,0.10569180087847731
0.022160985783518553,0.10569180087847731
0.022160985783518553,0.10596632503660322
0.022176098981370466,0.10596632503660322
0.02218113671398777,0.10605783308931185
0.022186174446605072,0.10605783308931185
0.022186174446605072,0.1061493411420205
0.022216400842308894,0.1061493411420205
0.022216400842308894,0.10624084919472913
0.022251664970630018,0.10624084919472913
0.022251664970630018,0.10633235724743778
0.022342344157741483,0.10633235724743778
0.022342344157741483,0.10642386530014641
0.022347381890358786,0.10642386530014641
0.022347381890358786,0.10651537335285505
0.022357457355593396,0.10651537335285505
0.022357457355593396,0.1066068814055637
0.022473325205791376,0.1066068814055637
0.022473325205791376,0.10669838945827233
0.022478362938408682,0.10669838945827233
0.022478362938408682,0.10678989751098096
0.022508589334112504,0.10678989751098096
0.022508589334112504,0.10697291361639824
0.022528740264581716,0.10697291361639824
0.022528740264581716,0.10706442166910689
0.022538815729816326,0.10706442166910689
0.022538815729816326,0.10715592972181552
0.022553928927668235,0.10715592972181552
0.022553928927668235,0.10724743777452415
0.02257407985813745,0.10724743777452415
0.02257407985813745,0.1073389458272328
0.02261941945169318,0.1073389458272328
0.02261941945169318,0.10743045387994143
0.022634532649545094,0.10743045387994143
0.022634532649545094,0.10752196193265007
0.02266979677786622,0.10752196193265007
0.02266979677786622,0.10761346998535871
0.022720174104039256,0.10761346998535871
0.022720174104039256,0.107796486090776
0.022740325034508468,0.107796486090776
0.022740325034508468,0.10788799414348463
0.02275543823236038,0.10788799414348463
0.02275543823236038,0.10797950219619326
0.02281085329115072,0.10797950219619326
0.02281085329115072,0.10807101024890191
0.022820928756385327,0.10807101024890191
0.022820928756385327,0.10816251830161054
0.022831004221619933,0.10816251830161054
0.022831004221619933,0.10825402635431917
0.022846117419471845,0.10825402635431917
0.022846117419471845,0.10834553440702782
0.02295190980443522,0.10834553440702782
0.02295190980443522,0.10843704245973645
0.022961985269669825,0.10843704245973645
0.022961985269669825,0.10862005856515373
0.022987173932756344,0.10862005856515373
0.022987173932756344,0.10871156661786237
0.02300732486322556,0.10871156661786237
0.02300732486322556,0.10880307467057102
0.02305266445678129,0.10880307467057102
0.02305266445678129,0.10889458272327965
0.023082890852485112,0.10889458272327965
0.023082890852485112,0.10898609077598828
0.02309296631771972,0.10898609077598828
0.02309296631771972,0.10907759882869693
0.023103041782954328,0.10907759882869693
0.023103041782954328,0.10916910688140556
0.02311815498080624,0.10916910688140556
0.02311815498080624,0.10926061493411421
0.023178607772213883,0.10926061493411421
0.023178607772213883,0.10935212298682284
0.02318868323744849,0.10935212298682284
0.02318868323744849,0.10944363103953147
0.023198758702683096,0.10944363103953147
0.023198758702683096,0.10953513909224012
0.02323402283100422,0.10953513909224012
0.02323402283100422,0.10962664714494876
0.02326928695932535,0.10962664714494876
0.02326928695932535,0.10971815519765739
0.02331462655288108,0.10971815519765739
0.02331462655288108,0.10980966325036604
0.023334777483350295,0.10980966325036604
0.023334777483350295,0.10990117130307467
0.0233448529485849,0.10990117130307467
0.0233448529485849,0.10999267935578332
0.023359966146436813,0.10999267935578332
0.023359966146436813,0.11008418740849195
0.02338515480952333,0.11008418740849195
0.02338515480952333,0.11026720351390923
0.023430494403079063,0.11026720351390923
0.023430494403079063,0.11035871156661786
0.023460720798782884,0.11035871156661786
0.023460720798782884,0.1104502196193265
0.023475833996634794,0.1104502196193265
0.023475833996634794,0.11054172767203514
0.023480871729252097,0.11054172767203514
0.023480871729252097,0.11063323572474378
0.023556437718511652,0.11063323572474378
0.023556437718511652,0.11072474377745242
0.02357155091636356,0.11072474377745242
0.02357155091636356,0.11081625183016106
0.0236219282425366,0.11081625183016106
0.0236219282425366,0.11090775988286969
0.023717645162265367,0.11090775988286969
0.023717645162265367,0.11099926793557834
0.02374787155796919,0.11099926793557834
0.02374787155796919,0.11109077598828697
0.023768022488438404,0.11109077598828697
0.023768022488438404,0.1111822840409956
0.023773060221055707,0.1111822840409956
0.023773060221055707,0.11127379209370425
0.02378817341890762,0.11127379209370425
0.02378817341890762,0.11136530014641288
0.023813362081994135,0.11136530014641288
0.023813362081994135,0.11154831625183016
0.023838550745080653,0.11154831625183016
0.023838550745080653,0.11173133235724744
0.023853663942932566,0.11173133235724744
0.023853663942932566,0.11182284040995608
0.023883890338636388,0.11182284040995608
0.023883890338636388,0.11191434846266471
0.02388892807125369,0.11191434846266471
0.02388892807125369,0.11200585651537336
0.02392922993219212,0.11200585651537336
0.02392922993219212,0.11209736456808199
0.023999758188834368,0.11209736456808199
0.023999758188834368,0.11218887262079064
0.0240400600497728,0.11218887262079064
0.0240400600497728,0.11228038067349927
0.024055173247624708,0.11228038067349927
0.024055173247624708,0.1123718887262079
0.02406021098024201,0.1123718887262079
0.02406021098024201,0.11246339677891655
0.024080361910711227,0.11246339677891655
0.024080361910711227,0.11264641288433382
0.02411562603903235,0.11264641288433382
0.02411562603903235,0.11273792093704246
0.024120663771649654,0.11273792093704246
0.024120663771649654,0.1128294289897511
0.024155927899970783,0.1128294289897511
0.024155927899970783,0.11292093704245974
0.024160965632588086,0.11292093704245974
0.024160965632588086,0.11301244509516838
0.02416600336520539,0.11301244509516838
0.02416600336520539,0.11310395314787701
0.024181116563057298,0.11310395314787701
0.024181116563057298,0.11319546120058566
0.024191192028291907,0.11319546120058566
0.024191192028291907,0.11328696925329429
0.024206305226143816,0.11328696925329429
0.024206305226143816,0.11346998535871157
0.024216380691378426,0.11346998535871157
0.024216380691378426,0.11374450951683748
0.02424156935446494,0.11374450951683748
0.02424156935446494,0.11383601756954612
0.02425164481969955,0.11383601756954612
0.02425164481969955,0.11392752562225476
0.02426675801755146,0.11392752562225476
0.02426675801755146,0.1140190336749634
0.02427683348278607,0.1140190336749634
0.02427683348278607,0.11411054172767203
0.024286908948020675,0.11411054172767203
0.024286908948020675,0.11420204978038068
0.0243221730763418,0.11420204978038068
0.0243221730763418,0.11438506588579796
0.02437758813513214,0.11438506588579796
0.02437758813513214,0.11447657393850659
0.024387663600366746,0.11447657393850659
0.024387663600366746,0.11456808199121522
0.024427965461305177,0.11456808199121522
0.024427965461305177,0.11465959004392387
0.024483380520095514,0.11465959004392387
0.024483380520095514,0.1147510980966325
0.024563984241972373,0.1147510980966325
0.024563984241972373,0.11484260614934114
0.02457405970720698,0.11484260614934114
0.02457405970720698,0.11493411420204978
0.024589172905058892,0.11493411420204978
0.024589172905058892,0.11511713030746706
0.02462947476599732,0.11511713030746706
0.02462947476599732,0.11530014641288433
0.024644587963849232,0.11530014641288433
0.024644587963849232,0.11539165446559298
0.024664738894318444,0.11539165446559298
0.024664738894318444,0.11548316251830161
0.024679852092170357,0.11548316251830161
0.024679852092170357,0.11557467057101024
0.024760455814047212,0.11557467057101024
0.024760455814047212,0.11566617862371889
0.02476549354666452,0.11566617862371889
0.02476549354666452,0.11575768667642752
0.024770531279281822,0.11575768667642752
0.024770531279281822,0.11584919472913617
0.024820908605454856,0.11584919472913617
0.024820908605454856,0.1159407027818448
0.024871285931627893,0.1159407027818448
0.024871285931627893,0.11603221083455344
0.024876323664245196,0.11603221083455344
0.024876323664245196,0.11621522693997072
0.024906550059949017,0.11621522693997072
0.024906550059949017,0.116398243045388
0.02496700285135666,0.116398243045388
0.02496700285135666,0.11648975109809663
0.024972040583973964,0.11648975109809663
0.024972040583973964,0.11658125915080528
0.02500730471229509,0.11658125915080528
0.02500730471229509,0.11667276720351391
0.025022417910147,0.11667276720351391
0.025022417910147,0.11685578330893119
0.025052644305850823,0.11685578330893119
0.025052644305850823,0.1171303074670571
0.025057682038468126,0.1171303074670571
0.025057682038468126,0.11722181551976574
0.02506271977108543,0.11722181551976574
0.02506271977108543,0.11731332357247438
0.02507783296893734,0.11731332357247438
0.02507783296893734,0.11749633967789165
0.025087908434171947,0.11749633967789165
0.025087908434171947,0.1175878477306003
0.025108059364641163,0.1175878477306003
0.025108059364641163,0.11767935578330893
0.025153398958196894,0.11767935578330893
0.025153398958196894,0.11777086383601756
0.02520377628436993,0.11777086383601756
0.02520377628436993,0.11786237188872621
0.025223927214839147,0.11786237188872621
0.025223927214839147,0.11804538799414349
0.02522896494745645,0.11804538799414349
0.02522896494745645,0.11813689604685212
0.025239040412691056,0.11813689604685212
0.025239040412691056,0.11822840409956076
0.025264229075777574,0.11822840409956076
0.025264229075777574,0.1183199121522694
0.02532971959980252,0.1183199121522694
0.02532971959980252,0.11841142020497804
0.025334757332419824,0.11841142020497804
0.025334757332419824,0.11859443631039532
0.025344832797654433,0.11859443631039532
0.025344832797654433,0.1187774524158126
0.025390172391210164,0.1187774524158126
0.025390172391210164,0.11886896046852123
0.02541032332167938,0.11886896046852123
0.02541032332167938,0.11896046852122986
0.025420398786913986,0.11896046852122986
0.025420398786913986,0.11905197657393851
0.025435511984765898,0.11905197657393851
0.025435511984765898,0.11914348462664714
0.0254405497173832,0.11914348462664714
0.0254405497173832,0.11923499267935578
0.02545566291523511,0.11923499267935578
0.02545566291523511,0.11932650073206442
0.02553626663711197,0.11932650073206442
0.02553626663711197,0.11941800878477306
0.025546342102346575,0.11941800878477306
0.025546342102346575,0.1195095168374817
0.025561455300198488,0.1195095168374817
0.025561455300198488,0.11960102489019034
0.02559168169590231,0.11960102489019034
0.02559168169590231,0.11969253294289897
0.025596719428519613,0.11969253294289897
0.025596719428519613,0.11978404099560762
0.02560679489375422,0.11978404099560762
0.02560679489375422,0.11987554904831625
0.02561183262637152,0.11987554904831625
0.02561183262637152,0.11996705710102488
0.02562190809160613,0.11996705710102488
0.02562190809160613,0.12005856515373353
0.025626945824223434,0.12005856515373353
0.025626945824223434,0.12015007320644217
0.025642059022075343,0.12015007320644217
0.025642059022075343,0.12024158125915081
0.025647096754692646,0.12024158125915081
0.025647096754692646,0.12042459736456808
0.025697474080865684,0.12042459736456808
0.025697474080865684,0.12051610541727673
0.025742813674421418,0.12051610541727673
0.025742813674421418,0.12060761346998536
0.025778077802742543,0.12060761346998536
0.025778077802742543,0.12069912152269399
0.025813341931063667,0.12069912152269399
0.025813341931063667,0.12079062957540264
0.02581837966368097,0.12079062957540264
0.02581837966368097,0.12088213762811127
0.025863719257236704,0.12088213762811127
0.025863719257236704,0.12106515373352855
0.025868756989854007,0.12106515373352855
0.025868756989854007,0.12115666178623719
0.02587379472247131,0.12115666178623719
0.02587379472247131,0.12124816983894583
0.025893945652940526,0.12124816983894583
0.025893945652940526,0.12133967789165447
0.025924172048644348,0.12133967789165447
0.025924172048644348,0.1214311859443631
0.02602492670099042,0.1214311859443631
0.02602492670099042,0.12161420204978038
0.026029964433607722,0.12161420204978038
0.026029964433607722,0.12170571010248903
0.02604507763145963,0.12170571010248903
0.02604507763145963,0.12179721815519766
0.026135756818571096,0.12179721815519766
0.026135756818571096,0.12188872620790629
0.026211322807830652,0.12188872620790629
0.026211322807830652,0.12198023426061494
0.026231473738299867,0.12198023426061494
0.026231473738299867,0.12207174231332357
0.026246586936151776,0.12207174231332357
0.026246586936151776,0.1221632503660322
0.026347341588497847,0.1221632503660322
0.026347341588497847,0.12225475841874085
0.026367492518967063,0.12225475841874085
0.026367492518967063,0.12234626647144949
0.02640779437990549,0.12234626647144949
0.02640779437990549,0.12243777452415813
0.026422907577757403,0.12243777452415813
0.026422907577757403,0.12252928257686677
0.02648839810178235,0.12252928257686677
0.02648839810178235,0.1226207906295754
0.026498473567016956,0.1226207906295754
0.026498473567016956,0.12280380673499268
0.02651862449748617,0.12280380673499268
0.02651862449748617,0.12289531478770131
0.02654381316057269,0.12289531478770131
0.02654381316057269,0.12298682284040996
0.026579077288893815,0.12298682284040996
0.026579077288893815,0.12307833089311859
0.026609303684597636,0.12307833089311859
0.026609303684597636,0.12316983894582724
0.026629454615066852,0.12316983894582724
0.026629454615066852,0.12326134699853587
0.026649605545536064,0.12326134699853587
0.026649605545536064,0.1233528550512445
0.026730209267412923,0.1233528550512445
0.026730209267412923,0.12344436310395315
0.026735247000030226,0.12344436310395315
0.026735247000030226,0.12362737920937042
0.026760435663116745,0.12362737920937042
0.026760435663116745,0.1238103953147877
0.026765473395734048,0.1238103953147877
0.026765473395734048,0.12390190336749635
0.02678058659358596,0.12390190336749635
0.02678058659358596,0.12399341142020498
0.026785624326203263,0.12399341142020498
0.026785624326203263,0.12408491947291361
0.026805775256672475,0.12408491947291361
0.026805775256672475,0.12417642752562226
0.026830963919758994,0.12417642752562226
0.026830963919758994,0.1242679355783309
0.026846077117610907,0.1242679355783309
0.026846077117610907,0.12435944363103953
0.02686622804808012,0.12435944363103953
0.02686622804808012,0.12445095168374817
0.026871265780697425,0.12445095168374817
0.026871265780697425,0.1245424597364568
0.02688134124593203,0.1245424597364568
0.02688134124593203,0.12463396778916545
0.02692164310687046,0.12463396778916545
0.02692164310687046,0.12472547584187409
0.02693675630472237,0.12472547584187409
0.02693675630472237,0.12481698389458272
0.026956907235191584,0.12481698389458272
0.026956907235191584,0.12490849194729137
0.026982095898278102,0.12490849194729137
0.026982095898278102,0.125
0.027052624154920355,0.125
0.027052624154920355,0.12509150805270863
0.027057661887537658,0.12509150805270863
0.027057661887537658,0.12527452415812593
0.02708788828324148,0.12527452415812593
0.02708788828324148,0.12536603221083456
0.027092926015858783,0.12536603221083456
0.027092926015858783,0.1254575402635432
0.02715841653988373,0.1254575402635432
0.02715841653988373,0.12554904831625183
0.027163454272501032,0.12554904831625183
0.027163454272501032,0.12564055636896046
0.027168492005118335,0.12564055636896046
0.027168492005118335,0.12582357247437775
0.027178567470352945,0.12582357247437775
0.027178567470352945,0.1259150805270864
0.02718864293558755,0.1259150805270864
0.02718864293558755,0.12600658857979502
0.02720375613343946,0.12600658857979502
0.02720375613343946,0.12609809663250365
0.027208793866056766,0.12609809663250365
0.027208793866056766,0.1261896046852123
0.027223907063908676,0.1261896046852123
0.027223907063908676,0.12655563689604685
0.02723398252914328,0.12655563689604685
0.02723398252914328,0.12673865300146414
0.02724405799437789,0.12673865300146414
0.02724405799437789,0.12683016105417277
0.0272591711922298,0.12683016105417277
0.0272591711922298,0.1269216691068814
0.027304510785785534,0.1269216691068814
0.027304510785785534,0.12701317715959004
0.027319623983637444,0.12701317715959004
0.027319623983637444,0.12710468521229867
0.027329699448872053,0.12710468521229867
0.027329699448872053,0.12728770131771597
0.027375039042427784,0.12728770131771597
0.027375039042427784,0.1273792093704246
0.02741030317074891,0.1273792093704246
0.02741030317074891,0.12756222547584187
0.027430454101218124,0.12756222547584187
0.027430454101218124,0.1276537335285505
0.02744052956645273,0.1276537335285505
0.02744052956645273,0.12774524158125916
0.027506020090477677,0.12774524158125916
0.027506020090477677,0.1278367496339678
0.027531208753564195,0.1278367496339678
0.027531208753564195,0.12792825768667643
0.027571510614502626,0.12792825768667643
0.027571510614502626,0.12801976573938506
0.02759669927758914,0.12801976573938506
0.02759669927758914,0.12838579795021962
0.02762188794067566,0.12838579795021962
0.02762188794067566,0.12847730600292825
0.027626925673292963,0.12847730600292825
0.027626925673292963,0.1285688140556369
0.027631963405910266,0.1285688140556369
0.027631963405910266,0.12866032210834552
0.027677302999466,0.12866032210834552
0.027677302999466,0.12875183016105418
0.027682340732083303,0.12875183016105418
0.027682340732083303,0.12884333821376281
0.027707529395169822,0.12884333821376281
0.027707529395169822,0.12893484626647145
0.02772264259302173,0.12893484626647145
0.02772264259302173,0.12902635431918008
0.027727680325639038,0.12902635431918008
0.027727680325639038,0.12911786237188871
0.027767982186577465,0.12911786237188871
0.027767982186577465,0.12920937042459738
0.027793170849663984,0.12920937042459738
0.027793170849663984,0.129300878477306
0.02780324631489859,0.129300878477306
0.02780324631489859,0.12948389458272327
0.027818359512750503,0.12948389458272327
0.027818359512750503,0.1295754026354319
0.027848585908454324,0.1295754026354319
0.027848585908454324,0.12966691068814057
0.02785866137368893,0.12966691068814057
0.02785866137368893,0.1297584187408492
0.02792918963033118,0.1297584187408492
0.02792918963033118,0.12984992679355783
0.02793926509556579,0.12984992679355783
0.02793926509556579,0.12994143484626647
0.027959416026035,0.12994143484626647
0.027959416026035,0.1300329428989751
0.027974529223886914,0.1300329428989751
0.027974529223886914,0.13012445095168373
0.02801483108482534,0.13012445095168373
0.02801483108482534,0.13030746705710103
0.028019868817442645,0.13030746705710103
0.028019868817442645,0.13039897510980966
0.028070246143615682,0.13039897510980966
0.028070246143615682,0.1304904831625183
0.02808535934146759,0.1304904831625183
0.02808535934146759,0.13058199121522693
0.028125661202406022,0.13058199121522693
0.028125661202406022,0.1306734992679356
0.02813573666764063,0.1306734992679356
0.02813573666764063,0.13076500732064422
0.028155887598109844,0.13076500732064422
0.028155887598109844,0.13085651537335286
0.028171000795961753,0.13085651537335286
0.028171000795961753,0.1309480234260615
0.028186113993813666,0.1309480234260615
0.028186113993813666,0.13103953147877012
0.02821130265690018,0.13103953147877012
0.02821130265690018,0.13113103953147878
0.028241529052604002,0.13113103953147878
0.028241529052604002,0.13122254758418742
0.028382585565888505,0.13122254758418742
0.028382585565888505,0.13131405563689605
0.02840273649635772,0.13131405563689605
0.02840273649635772,0.13140556368960468
0.02841784969420963,0.13140556368960468
0.02841784969420963,0.13149707174231332
0.02844807608991345,0.13149707174231332
0.02844807608991345,0.13158857979502195
0.028548830742259525,0.13158857979502195
0.028548830742259525,0.1316800878477306
0.02858409487058065,0.1316800878477306
0.02858409487058065,0.13177159590043924
0.02859920806843256,0.13177159590043924
0.02859920806843256,0.13186310395314788
0.02860928353366717,0.13186310395314788
0.02860928353366717,0.1319546120058565
0.02862943446413638,0.1319546120058565
0.02862943446413638,0.13222913616398244
0.028669736325074812,0.13222913616398244
0.028669736325074812,0.13232064421669107
0.02868484952292672,0.13232064421669107
0.02868484952292672,0.1324121522693997
0.028705000453395937,0.1324121522693997
0.028705000453395937,0.132595168374817
0.028730189116482452,0.132595168374817
0.028730189116482452,0.13277818448023426
0.028750340046951667,0.13277818448023426
0.028750340046951667,0.1328696925329429
0.028770490977420883,0.1328696925329429
0.028770490977420883,0.13296120058565153
0.028830943768828526,0.13296120058565153
0.028830943768828526,0.13305270863836016
0.028846056966680435,0.13305270863836016
0.028846056966680435,0.13314421669106882
0.02886620789714965,0.13314421669106882
0.02886620789714965,0.13323572474377746
0.028896434292853473,0.13323572474377746
0.028896434292853473,0.13341874084919472
0.028926660688557294,0.13341874084919472
0.028926660688557294,0.13351024890190336
0.028931698421174597,0.13351024890190336
0.028931698421174597,0.13360175695461202
0.02894681161902651,0.13360175695461202
0.02894681161902651,0.13369326500732065
0.028956887084261116,0.13369326500732065
0.028956887084261116,0.13378477306002928
0.028987113479964938,0.13378477306002928
0.028987113479964938,0.13387628111273792
0.028997188945199544,0.13387628111273792
0.028997188945199544,0.13396778916544655
0.029007264410434153,0.13396778916544655
0.029007264410434153,0.1340592972181552
0.02903245307352067,0.1340592972181552
0.02903245307352067,0.13415080527086384
0.02908786813231101,0.13415080527086384
0.02908786813231101,0.13442532942898974
0.029138245458484046,0.13442532942898974
0.029138245458484046,0.13451683748169838
0.02914328319110135,0.13451683748169838
0.02914328319110135,0.13460834553440704
0.029153358656335955,0.13460834553440704
0.029153358656335955,0.1347913616398243
0.02915839638895326,0.1347913616398243
0.02915839638895326,0.13488286969253294
0.029223886912978208,0.13488286969253294
0.029223886912978208,0.13497437774524157
0.029264188773916636,0.13497437774524157
0.029264188773916636,0.13506588579795023
0.029279301971768545,0.13506588579795023
0.029279301971768545,0.1352489019033675
0.02928433970438585,0.1352489019033675
0.02928433970438585,0.13534040995607613
0.02929945290223776,0.13534040995607613
0.02929945290223776,0.13552342606149342
0.029314566100089673,0.13552342606149342
0.029314566100089673,0.1357064421669107
0.029364943426262707,0.1357064421669107
0.029364943426262707,0.13579795021961932
0.02939516982196653,0.13579795021961932
0.02939516982196653,0.13607247437774525
0.029415320752435744,0.13607247437774525
0.029415320752435744,0.13616398243045388
0.029420358485053047,0.13616398243045388
0.029420358485053047,0.13625549048316252
0.02942539621767035,0.13625549048316252
0.02942539621767035,0.13634699853587115
0.029445547148139566,0.13634699853587115
0.029445547148139566,0.13662152269399708
0.02945058488075687,0.13662152269399708
0.02945058488075687,0.13680453879941434
0.02950599993954721,0.13680453879941434
0.02950599993954721,0.13698755490483164
0.029516075404781815,0.13698755490483164
0.029516075404781815,0.13707906295754027
0.02953622633525103,0.13707906295754027
0.02953622633525103,0.1371705710102489
0.029541264067868334,0.1371705710102489
0.029541264067868334,0.13726207906295754
0.029566452730954852,0.13726207906295754
0.029566452730954852,0.13735358711566617
0.02958156592880676,0.13735358711566617
0.02958156592880676,0.1374450951683748
0.02959164139404137,0.1374450951683748
0.02959164139404137,0.13753660322108346
0.029596679126658674,0.13753660322108346
0.029596679126658674,0.1376281112737921
0.029621867789745192,0.1376281112737921
0.029621867789745192,0.13771961932650073
0.0296319432549798,0.13771961932650073
0.0296319432549798,0.13781112737920936
0.029642018720214405,0.13781112737920936
0.029642018720214405,0.137902635431918
0.02968735831377014,0.137902635431918
0.02968735831377014,0.13799414348462666
0.029722622442091264,0.13799414348462666
0.029722622442091264,0.1380856515373353
0.02973269790732587,0.1380856515373353
0.02973269790732587,0.13817715959004392
0.029757886570412388,0.13817715959004392
0.029757886570412388,0.13845168374816985
0.029778037500881604,0.13845168374816985
0.029778037500881604,0.13854319180087848
0.029808263896585425,0.13854319180087848
0.029808263896585425,0.13863469985358712
0.02981330162920273,0.13863469985358712
0.02981330162920273,0.13872620790629575
0.02981833936182003,0.13872620790629575
0.02981833936182003,0.13881771595900438
0.029848565757523853,0.13881771595900438
0.029848565757523853,0.13890922401171302
0.029878792153227675,0.13890922401171302
0.029878792153227675,0.1390922401171303
0.02992413174678341,0.1390922401171303
0.02992413174678341,0.13927525622254758
0.029984584538191052,0.13927525622254758
0.029984584538191052,0.1393667642752562
0.02999466000342566,0.1393667642752562
0.02999466000342566,0.13945827232796487
0.03002488639912948,0.13945827232796487
0.03002488639912948,0.13964128843338214
0.030160905179796676,0.13964128843338214
0.030160905179796676,0.13973279648609077
0.03017601837764859,0.13973279648609077
0.03017601837764859,0.1398243045387994
0.030196169308117804,0.1398243045387994
0.030196169308117804,0.13991581259150807
0.03020624477335241,0.13991581259150807
0.03020624477335241,0.14019033674963396
0.030246546634290838,0.14019033674963396
0.030246546634290838,0.1402818448023426
0.03026165983214275,0.1402818448023426
0.03026165983214275,0.14037335285505123
0.030266697564760053,0.14037335285505123
0.030266697564760053,0.1404648609077599
0.030281810762611962,0.1404648609077599
0.030281810762611962,0.14064787701317716
0.030291886227846572,0.14064787701317716
0.030291886227846572,0.1407393850658858
0.030327150356167697,0.1407393850658858
0.030327150356167697,0.14092240117130309
0.030342263554019606,0.14092240117130309
0.030342263554019606,0.14101390922401172
0.03036241448448882,0.14101390922401172
0.03036241448448882,0.14110541727672035
0.030372489949723427,0.14110541727672035
0.030372489949723427,0.14137994143484628
0.030397678612809946,0.14137994143484628
0.030397678612809946,0.14156295754026355
0.03040271634542725,0.14156295754026355
0.03040271634542725,0.14165446559297218
0.03044301820636568,0.14165446559297218
0.03044301820636568,0.1417459736456808
0.030448055938982983,0.1417459736456808
0.030448055938982983,0.14183748169838944
0.03048835779992141,0.14183748169838944
0.03048835779992141,0.1419289897510981
0.030523621928242536,0.1419289897510981
0.030523621928242536,0.14202049780380674
0.03052865966085984,0.14202049780380674
0.03052865966085984,0.142203513909224
0.030579036987032876,0.142203513909224
0.030579036987032876,0.14229502196193264
0.03063948977844052,0.14229502196193264
0.03063948977844052,0.14247803806734993
0.030649565243675125,0.14247803806734993
0.030649565243675125,0.1426610541727672
0.030684829371996254,0.1426610541727672
0.030684829371996254,0.14275256222547583
0.03071001803508277,0.14275256222547583
0.03071001803508277,0.1428440702781845
0.030745282163403897,0.1428440702781845
0.030755357628638503,0.1428440702781845
0.03077550855910772,0.1428440702781845
0.03077550855910772,0.14293557833089313
0.030800697222194234,0.14293557833089313
0.030800697222194234,0.1431185944363104
0.03085107454836727,0.1431185944363104
0.03085107454836727,0.14321010248901903
0.030896414141923,0.14321010248901903
0.030896414141923,0.14330161054172766
0.03090648960715761,0.14330161054172766
0.03090648960715761,0.14339311859443632
0.030956866933330645,0.14339311859443632
0.030956866933330645,0.14357613469985359
0.03097701786379986,0.14357613469985359
0.03097701786379986,0.14366764275256222
0.030997168794269076,0.14366764275256222
0.030997168794269076,0.1438506588579795
0.031007244259503682,0.1438506588579795
0.031007244259503682,0.14394216691068815
0.031022357457355595,0.14394216691068815
0.031022357457355595,0.14403367496339678
0.0310324329225902,0.14403367496339678
0.0310324329225902,0.1441251830161054
0.031062659318294022,0.1441251830161054
0.031062659318294022,0.14421669106881405
0.031067697050911326,0.14421669106881405
0.031067697050911326,0.1443081991215227
0.031107998911849753,0.1443081991215227
0.031107998911849753,0.14439970717423134
0.031123112109701666,0.14439970717423134
0.031123112109701666,0.14449121522693997
0.031148300772788184,0.14449121522693997
0.031148300772788184,0.14467423133235724
0.031153338505405487,0.14467423133235724
0.031153338505405487,0.14476573938506587
0.03115837623802279,0.14476573938506587
0.03115837623802279,0.14485724743777453
0.031178527168492006,0.14485724743777453
0.031178527168492006,0.14494875549048317
0.03122890449466504,0.14494875549048317
0.03122890449466504,0.1450402635431918
0.03123897995989965,0.1450402635431918
0.03123897995989965,0.14513177159590043
0.031249055425134255,0.14513177159590043
0.031249055425134255,0.14522327964860907
0.03127424408822077,0.14522327964860907
0.03127424408822077,0.14531478770131773
0.03129943275130729,0.14531478770131773
0.03129943275130729,0.14540629575402636
0.03131958368177651,0.14540629575402636
0.03131958368177651,0.14558931185944363
0.03135988554271493,0.14558931185944363
0.03135988554271493,0.14568081991215226
0.03136996100794954,0.14568081991215226
0.03136996100794954,0.14577232796486092
0.031374998740566845,0.14577232796486092
0.031374998740566845,0.14586383601756955
0.03140522513627067,0.14586383601756955
0.03140522513627067,0.1459553440702782
0.031415300601505276,0.1459553440702782
0.031415300601505276,0.14604685212298682
0.0314505647298264,0.14604685212298682
0.0314505647298264,0.1462298682284041
0.03147071566029561,0.1462298682284041
0.03147071566029561,0.14641288433382138
0.03148079112553022,0.14641288433382138
0.03148079112553022,0.14659590043923865
0.031485828858147526,0.14659590043923865
0.031485828858147526,0.14668740849194728
0.03155131938217247,0.14668740849194728
0.03155131938217247,0.14677891654465594
0.0315916212431109,0.14677891654465594
0.0315916212431109,0.1469619326500732
0.031601696708345506,0.1469619326500732
0.031601696708345506,0.14705344070278184
0.03163192310404933,0.14705344070278184
0.03163192310404933,0.14714494875549047
0.03166214949975315,0.14714494875549047
0.03166214949975315,0.14723645680819913
0.03170245136069158,0.14723645680819913
0.03170245136069158,0.14732796486090777
0.03170748909330889,0.14732796486090777
0.03170748909330889,0.1474194729136164
0.0317276400237781,0.1474194729136164
0.0317276400237781,0.14751098096632503
0.0317326777563954,0.14751098096632503
0.0317326777563954,0.1476939970717423
0.03178809281518574,0.1476939970717423
0.03178809281518574,0.14778550512445096
0.03181328147827226,0.14778550512445096
0.03181328147827226,0.1478770131771596
0.03181831921088956,0.1478770131771596
0.03181831921088956,0.14796852122986823
0.03182839467612417,0.14796852122986823
0.03182839467612417,0.14806002928257686
0.03183847014135878,0.14806002928257686
0.03183847014135878,0.1481515373352855
0.031878772002297204,0.1481515373352855
0.031878772002297204,0.1483345534407028
0.03191403613061833,0.1483345534407028
0.03191403613061833,0.14842606149341142
0.03192914932847024,0.14842606149341142
0.03192914932847024,0.14851756954612005
0.03193922479370485,0.14851756954612005
0.03193922479370485,0.1486090775988287
0.03195433799155676,0.1486090775988287
0.03195433799155676,0.14870058565153735
0.031964413456791366,0.14870058565153735
0.031964413456791366,0.14879209370424598
0.03197448892202597,0.14879209370424598
0.03197448892202597,0.14897510980966325
0.03197952665464328,0.14897510980966325
0.03197952665464328,0.14906661786237188
0.031989602119877884,0.14906661786237188
0.031989602119877884,0.14924963396778917
0.0320047153177298,0.14924963396778917
0.0320047153177298,0.1493411420204978
0.032009753050347096,0.1493411420204978
0.032009753050347096,0.14943265007320644
0.0320147907829644,0.14943265007320644
0.03201982851558171,0.14952415812591507
0.03203997944605092,0.14952415812591507
0.03203997944605092,0.1496156661786237
0.03204501717866823,0.1496156661786237
0.03204501717866823,0.14970717423133237
0.03209539450484126,0.14970717423133237
0.03209539450484126,0.14989019033674963
0.03210546997007587,0.14989019033674963
0.03210546997007587,0.1500732064421669
0.03211050770269317,0.1500732064421669
0.03211050770269317,0.1502562225475842
0.032170960494100814,0.1502562225475842
0.032170960494100814,0.15062225475841873
0.03219614915718733,0.15062225475841873
0.03219614915718733,0.1507137628111274
0.03222133782027385,0.1507137628111274
0.03222133782027385,0.15080527086383602
0.032281790611681495,0.15080527086383602
0.032281790611681495,0.15089677891654465
0.0322918660769161,0.15089677891654465
0.0322918660769161,0.1509882869692533
0.03230194154215071,0.1509882869692533
0.03230194154215071,0.15107979502196192
0.03230697927476801,0.15107979502196192
0.03230697927476801,0.15126281112737922
0.03231705474000262,0.15126281112737922
0.03231705474000262,0.15162884333821378
0.032322092472619926,0.15162884333821378
0.032322092472619926,0.1517203513909224
0.032327130205237226,0.1517203513909224
0.032327130205237226,0.15181185944363104
0.03241277165973139,0.15181185944363104
0.03241277165973139,0.15190336749633968
0.03245811125328712,0.15190336749633968
0.032468186718521724,0.15190336749633968
0.03249337538160824,0.15190336749633968
0.03249337538160824,0.1519948755490483
0.032503450846842856,0.1519948755490483
0.032503450846842856,0.15208638360175694
0.03253871497516398,0.15208638360175694
0.03253871497516398,0.1521778916544656
0.0325639036382505,0.1521778916544656
0.0325639036382505,0.15226939970717424
0.03263443189489275,0.15226939970717424
0.03263443189489275,0.15236090775988287
0.03263946962751005,0.15236090775988287
0.03263946962751005,0.1524524158125915
0.03266969602321387,0.1524524158125915
0.03266969602321387,0.15254392386530014
0.03267473375583117,0.15254392386530014
0.03267473375583117,0.15272693997071743
0.03267977148844848,0.15272693997071743
0.03267977148844848,0.15281844802342606
0.032684809221065786,0.15281844802342606
0.032684809221065786,0.15300146412884333
0.03274526201247343,0.15300146412884333
0.03274526201247343,0.153092972181552
0.03275029974509073,0.153092972181552
0.03275029974509073,0.15318448023426062
0.03279060160602916,0.15318448023426062
0.03279060160602916,0.15327598828696926
0.03280571480388107,0.15327598828696926
0.03280571480388107,0.1533674963396779
0.03281579026911568,0.1533674963396779
0.03281579026911568,0.15345900439238652
0.0328560921300541,0.15345900439238652
0.0328560921300541,0.15355051244509516
0.03286112986267141,0.15355051244509516
0.03286112986267141,0.15364202049780382
0.03287624306052332,0.15364202049780382
0.03287624306052332,0.15382503660322108
0.03292158265407905,0.15382503660322108
0.03292158265407905,0.15391654465592972
0.03296692224763478,0.15391654465592972
0.03296692224763478,0.15400805270863835
0.0329921109107213,0.15400805270863835
0.0329921109107213,0.154099560761347
0.03300218637595591,0.154099560761347
0.03300218637595591,0.15419106881405564
0.033052563702128945,0.15419106881405564
0.033052563702128945,0.15428257686676428
0.03306767689998086,0.15428257686676428
0.03306767689998086,0.1543740849194729
0.03315835608709232,0.1543740849194729
0.03315835608709232,0.1545571010248902
0.03317346928494423,0.1545571010248902
0.03317346928494423,0.15464860907759884
0.03317850701756154,0.15464860907759884
0.03317850701756154,0.15474011713030747
0.03318354475017884,0.15474011713030747
0.03318354475017884,0.1548316251830161
0.03322888434373457,0.1548316251830161
0.03322888434373457,0.15492313323572474
0.033259110739438394,0.15492313323572474
0.033259110739438394,0.15501464128843337
0.03331452579822873,0.15501464128843337
0.03331452579822873,0.15510614934114203
0.03332963899608064,0.15510614934114203
0.03332963899608064,0.15519765739385066
0.03333467672869795,0.15519765739385066
0.03333467672869795,0.1552891654465593
0.03336490312440177,0.1552891654465593
0.03336490312440177,0.15547218155197656
0.033369940857019074,0.15547218155197656
0.033369940857019074,0.15556368960468522
0.03340016725272289,0.15556368960468522
0.03340016725272289,0.15565519765739386
0.0334052049853402,0.15565519765739386
0.0334052049853402,0.1557467057101025
0.03346565777674784,0.1557467057101025
0.03347573324198245,0.1557467057101025
0.03349084643983436,0.1557467057101025
0.03349084643983436,0.15592972181551976
0.03350092190506897,0.15592972181551976
0.03350092190506897,0.15602122986822842
0.03352107283553818,0.15602122986822842
0.03352107283553818,0.15611273792093705
0.033531148300772785,0.15611273792093705
0.033531148300772785,0.15620424597364568
0.033556336963859304,0.15620424597364568
0.033556336963859304,0.15629575402635432
0.03356641242909391,0.15629575402635432
0.03356641242909391,0.15638726207906295
0.03358656335956313,0.15638726207906295
0.03358656335956313,0.15647877013177158
0.03359160109218043,0.15647877013177158
0.03359160109218043,0.15657027818448024
0.03360671429003234,0.15657027818448024
0.03360671429003234,0.15666178623718888
0.03363190295311886,0.15666178623718888
0.03363190295311886,0.1567532942898975
0.03364701615097077,0.1567532942898975
0.03364701615097077,0.15684480234260614
0.03365205388358807,0.15684480234260614
0.03365205388358807,0.15693631039531478
0.03367724254667459,0.15693631039531478
0.03367724254667459,0.15702781844802344
0.0336873180119092,0.15702781844802344
0.0336873180119092,0.1572108345534407
0.0336923557445265,0.1572108345534407
0.0336923557445265,0.15739385065885797
0.03370243120976111,0.15739385065885797
0.03370243120976111,0.15757686676427526
0.033707468942378416,0.15757686676427526
0.033707468942378416,0.1576683748169839
0.03376288400116875,0.1576683748169839
0.03376288400116875,0.15775988286969253
0.03376792173378606,0.15775988286969253
0.03376792173378606,0.1579428989751098
0.03377295946640336,0.1579428989751098
0.03377295946640336,0.15803440702781846
0.033777997199020665,0.15803440702781846
0.033777997199020665,0.1581259150805271
0.03381326132734179,0.1581259150805271
0.03381326132734179,0.15821742313323572
0.0338283745251937,0.15821742313323572
0.0338283745251937,0.15830893118594436
0.033833412257811,0.15830893118594436
0.033833412257811,0.15849194729136165
0.033843487723045615,0.15849194729136165
0.033843487723045615,0.15867496339677892
0.03385356318828022,0.15867496339677892
0.03385356318828022,0.15876647144948755
0.03392912917753977,0.15876647144948755
0.03392912917753977,0.15885797950219618
0.033934166910157076,0.15885797950219618
0.033934166910157076,0.15904099560761348
0.03394424237539168,0.15904099560761348
0.03394424237539168,0.1591325036603221
0.0339694310384782,0.1591325036603221
0.0339694310384782,0.15922401171303074
0.03397950650371281,0.15922401171303074
0.03397950650371281,0.15931551976573938
0.03402484609726854,0.15931551976573938
0.03402484609726854,0.159407027818448
0.034029883829885844,0.159407027818448
0.034029883829885844,0.15968155197657394
0.03403995929512045,0.15968155197657394
0.03403995929512045,0.15977306002928257
0.03405507249297236,0.15977306002928257
0.03405507249297236,0.1598645680819912
0.034070185690824276,0.1598645680819912
0.034070185690824276,0.15995607613469986
0.0341104875517627,0.15995607613469986
0.0341104875517627,0.1600475841874085
0.034115525284380006,0.1600475841874085
0.034115525284380006,0.16013909224011713
0.03413063848223192,0.16013909224011713
0.03413063848223192,0.1603221083455344
0.03417094034317034,0.1603221083455344
0.03417094034317034,0.16041361639824306
0.03419612900625686,0.16041361639824306
0.03419612900625686,0.1605051244509517
0.03420620447149147,0.1605051244509517
0.03420620447149147,0.16059663250366032
0.034211242204108774,0.16059663250366032
0.034211242204108774,0.16087115666178622
0.03422131766934338,0.16087115666178622
0.03422131766934338,0.16096266471449489
0.03422635540196069,0.16096266471449489
0.03422635540196069,0.16105417276720352
0.034231393134577986,0.16105417276720352
0.034231393134577986,0.16123718887262078
0.03426665726289911,0.16123718887262078
0.03426665726289911,0.16132869692532942
0.03429184592598563,0.16132869692532942
0.03429184592598563,0.16142020497803808
0.03431703458907215,0.16142020497803808
0.03431703458907215,0.1615117130307467
0.03434222325215867,0.1615117130307467
0.03434222325215867,0.16160322108345535
0.034347260984775974,0.16160322108345535
0.034347260984775974,0.16169472913616398
0.03435229871739327,0.16169472913616398
0.03435229871739327,0.16187774524158127
0.034392600578331704,0.16187774524158127
0.034392600578331704,0.1619692532942899
0.03442282697403553,0.1619692532942899
0.03442282697403553,0.16215226939970717
0.034432902439270135,0.16215226939970717
0.034432902439270135,0.1622437774524158
0.034458091102356654,0.1622437774524158
0.034458091102356654,0.1624267935578331
0.034463128834973954,0.1624267935578331
0.034463128834973954,0.16260980966325037
0.03455884575470272,0.16260980966325037
0.03455884575470272,0.162701317715959
0.03456892121993733,0.162701317715959
0.03456892121993733,0.16279282576866763
0.03460418534825845,0.16279282576866763
0.03460418534825845,0.1628843338213763
0.03462937401134497,0.1628843338213763
0.03462937401134497,0.16297584187408493
0.0346696758722834,0.16297584187408493
0.0346696758722834,0.16306734992679356
0.03470494000060453,0.16306734992679356
0.03470494000060453,0.1631588579795022
0.03471501546583913,0.1631588579795022
0.03471501546583913,0.16325036603221083
0.03475027959416026,0.16325036603221083
0.03475027959416026,0.16343338213762812
0.034755317326777564,0.16343338213762812
0.034755317326777564,0.16352489019033675
0.03478554372248138,0.16352489019033675
0.03478554372248138,0.16361639824304539
0.034825845583419814,0.16361639824304539
0.034825845583419814,0.16370790629575402
0.03483592104865442,0.16370790629575402
0.03483592104865442,0.16379941434846265
0.034840958781271726,0.16379941434846265
0.034840958781271726,0.16398243045387995
0.034866147444358245,0.16398243045387995
0.034866147444358245,0.1641654465592972
0.03488126064221016,0.1641654465592972
0.03488126064221016,0.16443997071742314
0.03488629837482746,0.16443997071742314
0.03488629837482746,0.16453147877013177
0.03496186436408701,0.16453147877013177
0.03496186436408701,0.1646229868228404
0.03497193982932162,0.1646229868228404
0.03497193982932162,0.16471449487554904
0.03501224169026005,0.16471449487554904
0.03501224169026005,0.1648060029282577
0.03503743035334657,0.1648060029282577
0.03503743035334657,0.16489751098096633
0.035047505818581175,0.16489751098096633
0.035047505818581175,0.1650805270863836
0.03510292087737151,0.1650805270863836
0.03510292087737151,0.16526354319180087
0.03510795860998882,0.16526354319180087
0.03510795860998882,0.16535505124450953
0.03515329820354455,0.16535505124450953
0.03515329820354455,0.1655380673499268
0.03516841140139646,0.1655380673499268
0.03516841140139646,0.16572108345534406
0.03517344913401376,0.16572108345534406
0.03517344913401376,0.16581259150805272
0.035228864192804105,0.16581259150805272
0.035228864192804105,0.16590409956076135
0.03525405285589062,0.16590409956076135
0.03525405285589062,0.16599560761347
0.03525909058850792,0.16599560761347
0.03525909058850792,0.16608711566617862
0.03534976977561939,0.16608711566617862
0.03534976977561939,0.16617862371888725
0.03535480750823669,0.16617862371888725
0.03535480750823669,0.16636163982430455
0.0353699207060886,0.16636163982430455
0.0353699207060886,0.16645314787701318
0.03545052442796546,0.16645314787701318
0.03545052442796546,0.1665446559297218
0.03546059989320007,0.1665446559297218
0.03546059989320007,0.16663616398243045
0.03546563762581737,0.16663616398243045
0.03546563762581737,0.16681918008784774
0.03547067535843468,0.16681918008784774
0.03547067535843468,0.16691068814055637
0.035480750823669284,0.16691068814055637
0.035480750823669284,0.167002196193265
0.035495864021521197,0.167002196193265
0.035495864021521197,0.16709370424597364
0.035500901754138496,0.16709370424597364
0.035500901754138496,0.16718521229868227
0.035526090417225015,0.16718521229868227
0.035526090417225015,0.16727672035139093
0.03555631681292884,0.16727672035139093
0.03555631681292884,0.16736822840409957
0.03558654320863266,0.16736822840409957
0.03558654320863266,0.16755124450951683
0.03562180733695378,0.16755124450951683
0.03562180733695378,0.16764275256222547
0.03565203373265761,0.16764275256222547
0.03565203373265761,0.16773426061493413
0.03570241105883064,0.16773426061493413
0.03570241105883064,0.16782576866764276
0.035752788385003675,0.16782576866764276
0.035752788385003675,0.1679172767203514
0.035777977048090194,0.1679172767203514
0.035777977048090194,0.16810029282576866
0.03579309024594211,0.16810029282576866
0.03579309024594211,0.1681918008784773
0.035823316641645925,0.1681918008784773
0.035823316641645925,0.16828330893118595
0.03585354303734975,0.16828330893118595
0.03585354303734975,0.1683748169838946
0.03589888263090548,0.1683748169838946
0.03589888263090548,0.16855783308931185
0.035929109026609306,0.16855783308931185
0.035929109026609306,0.1686493411420205
0.03596437315493043,0.1686493411420205
0.03596437315493043,0.16874084919472915
0.03596941088754773,0.16874084919472915
0.03596941088754773,0.16883235724743778
0.03598452408539964,0.16883235724743778
0.03598452408539964,0.16892386530014641
0.03599459955063425,0.16892386530014641
0.03599459955063425,0.16901537335285505
0.035999637283251555,0.16901537335285505
0.035999637283251555,0.16910688140556368
0.036004675015868855,0.16910688140556368
0.036004675015868855,0.16919838945827234
0.03607520327251111,0.16919838945827234
0.03607520327251111,0.16928989751098097
0.03608024100512841,0.16928989751098097
0.03608024100512841,0.1693814055636896
0.03608527873774572,0.1693814055636896
0.03608527873774572,0.16947291361639824
0.036155806994387966,0.16947291361639824
0.036155806994387966,0.16956442166910687
0.03617092019223988,0.16956442166910687
0.03617092019223988,0.1696559297218155
0.03617595792485718,0.1696559297218155
0.03617595792485718,0.1698389458272328
0.03619107112270909,0.1698389458272328
0.03619107112270909,0.17002196193265007
0.0362112220531783,0.17002196193265007
0.0362112220531783,0.1701134699853587
0.03623137298364752,0.1701134699853587
0.03623137298364752,0.17020497803806736
0.03623641071626482,0.17020497803806736
0.03623641071626482,0.17038799414348463
0.03627167484458595,0.17038799414348463
0.03627167484458595,0.17047950219619326
0.03628678804243786,0.17047950219619326
0.03628678804243786,0.17066251830161056
0.03635227856646281,0.17066251830161056
0.03635227856646281,0.1707540263543192
0.03637746722954933,0.1707540263543192
0.03637746722954933,0.17084553440702782
0.03639258042740123,0.17084553440702782
0.03639258042740123,0.17093704245973645
0.03640265589263584,0.17093704245973645
0.03640265589263584,0.1710285505124451
0.03641273135787045,0.1710285505124451
0.03641273135787045,0.17139458272327965
0.03645303321880888,0.17139458272327965
0.03645303321880888,0.17157759882869691
0.03646814641666079,0.17157759882869691
0.03646814641666079,0.17166910688140558
0.036498372812364614,0.17166910688140558
0.036498372812364614,0.1717606149341142
0.03652859920806843,0.1717606149341142
0.03652859920806843,0.17194363103953147
0.03657393880162416,0.17194363103953147
0.03657393880162416,0.1722181551976574
0.03659912746471068,0.1722181551976574
0.03659912746471068,0.17230966325036604
0.03660920292994529,0.17230966325036604
0.03660920292994529,0.1724926793557833
0.03663942932564911,0.1724926793557833
0.03663942932564911,0.17258418740849193
0.03664950479088372,0.17258418740849193
0.03664950479088372,0.1726756954612006
0.03668980665182215,0.1726756954612006
0.03668980665182215,0.17285871156661786
0.03669484438443945,0.17285871156661786
0.03669484438443945,0.1729502196193265
0.036699882117056756,0.1729502196193265
0.036699882117056756,0.17304172767203513
0.03679056130416822,0.17304172767203513
0.03679056130416822,0.17322474377745242
0.03680567450202013,0.17322474377745242
0.03680567450202013,0.17331625183016106
0.036815749967254736,0.17331625183016106
0.036815749967254736,0.1734077598828697
0.036840938630341255,0.1734077598828697
0.036840938630341255,0.17349926793557832
0.03684597636295856,0.17349926793557832
0.03684597636295856,0.17359077598828698
0.036951768747921936,0.17359077598828698
0.036951768747921936,0.17368228404099562
0.03702733473718149,0.17368228404099562
0.03702733473718149,0.17386530014641288
0.03707267433073722,0.17386530014641288
0.03707267433073722,0.17395680819912152
0.03707771206335453,0.17395680819912152
0.03707771206335453,0.1741398243045388
0.037087787528589135,0.1741398243045388
0.037087787528589135,0.17423133235724744
0.03709786299382374,0.17423133235724744
0.03709786299382374,0.17432284040995608
0.03711297619167565,0.17432284040995608
