fpr,tpr
0.0,0.0
0.0,0.0003403675970047651
0.0,0.0017018379850238256
1.7075919538267136e-05,0.0017018379850238256
1.7075919538267136e-05,0.0020422055820285907
6.830367815306854e-05,0.0020422055820285907
6.830367815306854e-05,0.004765146358066712
8.537959769133568e-05,0.004765146358066712
8.537959769133568e-05,0.006466984343090538
0.00010245551722960281,0.006466984343090538
0.00010245551722960281,0.007828454731109599
0.0001366073563061371,0.007828454731109599
0.0001366073563061371,0.012253233492171545
0.00015368327584440423,0.012253233492171545
0.00015368327584440423,0.012933968686181076
0.00018783511492093848,0.012933968686181076
0.00018783511492093848,0.02042205582028591
0.00020491103445920562,0.02042205582028591
0.00020491103445920562,0.020762423417290673
0.00022198695399747276,0.020762423417290673
0.00022198695399747276,0.02110279101429544
0.000256138793074007,0.02110279101429544
0.000256138793074007,0.02314499659632403
0.0002732147126122742,0.02314499659632403
0.0002732147126122742,0.02518720217835262
0.00032444247122707557,0.02518720217835262
0.00032444247122707557,0.025867937372362152
0.00037567022984187696,0.025867937372362152
0.00037567022984187696,0.026889040163376447
0.00039274614938014413,0.026889040163376447
0.00039274614938014413,0.02722940776038121
0.00040982206891841124,0.02722940776038121
0.00040982206891841124,0.027569775357385976
0.0004439739079949455,0.027569775357385976
0.0004439739079949455,0.0302927161334241
0.0004781257470714798,0.0302927161334241
0.0004781257470714798,0.03063308373042886
0.0004952016666097469,0.03063308373042886
0.0004952016666097469,0.03165418652144316
0.000512277586148014,0.03165418652144316
0.000512277586148014,0.03301565690946222
0.0005293535056862812,0.03301565690946222
0.0005293535056862812,0.03369639210347175
0.0005635053447628155,0.03369639210347175
0.0005635053447628155,0.03471749489448604
0.0005805812643010826,0.03471749489448604
0.0005805812643010826,0.035398230088495575
0.0005976571838393497,0.035398230088495575
0.0005976571838393497,0.037440435670524165
0.0006488849424541511,0.037440435670524165
0.0006488849424541511,0.038461538461538464
0.0006830367815306855,0.038461538461538464
0.0006830367815306855,0.03982300884955752
0.0007001127010689526,0.03982300884955752
0.0007001127010689526,0.044928522804629
0.0007171886206072197,0.044928522804629
0.0007171886206072197,0.04526889040163377
0.0007513404596837539,0.04526889040163377
0.0007513404596837539,0.04697072838665759
0.0007684163792220211,0.04697072838665759
0.0007684163792220211,0.04799183117767188
0.0007854922987602883,0.04799183117767188
0.0007854922987602883,0.04901293396868618
0.0008196441378368225,0.04901293396868618
0.0008196441378368225,0.05139550714771954
0.0008367200573750896,0.05139550714771954
0.0008367200573750896,0.05343771272974813
0.0009050237355281582,0.05343771272974813
0.0009050237355281582,0.053778080326752895
0.0009220996550664254,0.053778080326752895
0.0009220996550664254,0.05445881552076242
0.0009562514941429596,0.05445881552076242
0.0009562514941429596,0.05650102110279102
0.0009733274136812267,0.05650102110279102
0.0009733274136812267,0.05718175629680054
0.0009904033332194938,0.05718175629680054
0.0009904033332194938,0.0595643294758339
0.001007479252757761,0.0595643294758339
0.001007479252757761,0.0605854322668482
0.0010587070113725625,0.0605854322668482
0.0010587070113725625,0.060925799863852964
0.0011099347699873637,0.060925799863852964
0.0011099347699873637,0.06228727025187202
0.001127010689525631,0.06228727025187202
0.001127010689525631,0.06296800544588155
0.0011440866090638982,0.06296800544588155
0.0011440866090638982,0.06398910823689585
0.0011611625286021652,0.06398910823689585
0.0011611625286021652,0.0653505786249149
0.0011782384481404324,0.0653505786249149
0.0011782384481404324,0.06569094622191968
0.0011953143676786994,0.06569094622191968
0.0011953143676786994,0.06637168141592921
0.0012294662067552338,0.06637168141592921
0.0012294662067552338,0.0673927842069435
0.0012465421262935008,0.0673927842069435
0.0012465421262935008,0.06773315180394826
0.001263618045831768,0.06773315180394826
0.001263618045831768,0.07079646017699115
0.0012806939653700353,0.07079646017699115
0.0012806939653700353,0.07113682777399591
0.0012977698849083023,0.07113682777399591
0.0012977698849083023,0.07147719537100068
0.0013148458044465695,0.07147719537100068
0.0013148458044465695,0.07181756296800544
0.0013319217239848365,0.07181756296800544
0.0013319217239848365,0.07283866575901975
0.001366073563061371,0.07283866575901975
0.001366073563061371,0.07351940095302927
0.0014002254021379052,0.07351940095302927
0.0014002254021379052,0.07454050374404357
0.0014173013216761722,0.07454050374404357
0.0014173013216761722,0.0752212389380531
0.0014343772412144394,0.0752212389380531
0.0014343772412144394,0.07692307692307693
0.0014514531607527066,0.07692307692307693
0.0014514531607527066,0.07998638529611982
0.0014685290802909736,0.07998638529611982
0.0014685290802909736,0.08032675289312458
0.0014856049998292408,0.08032675289312458
0.0014856049998292408,0.08066712049012933
0.0015026809193675078,0.08066712049012933
0.0015026809193675078,0.08475153165418652
0.001519756838905775,0.08475153165418652
0.001519756838905775,0.08509189925119129
0.0015539086779823093,0.08509189925119129
0.0015539086779823093,0.08611300204220558
0.0015709845975205765,0.08611300204220558
0.0015709845975205765,0.08679373723621511
0.0015880605170588435,0.08679373723621511
0.0015880605170588435,0.08747447243022465
0.0016051364365971107,0.08747447243022465
0.0016051364365971107,0.0878148400272294
0.001622212356135378,0.0878148400272294
0.001622212356135378,0.08917631041524847
0.001639288275673645,0.08917631041524847
0.001639288275673645,0.08951667801225323
0.0016905160342884464,0.08951667801225323
0.0016905160342884464,0.089857045609258
0.0017075919538267136,0.089857045609258
0.0017075919538267136,0.09019741320626276
0.0017246678733649806,0.09019741320626276
0.0017246678733649806,0.09053778080326753
0.0017417437929032479,0.09053778080326753
0.0017417437929032479,0.09121851599727705
0.0018100474710563163,0.09121851599727705
0.0018100474710563163,0.09189925119128659
0.0018441993101328507,0.09189925119128659
0.0018441993101328507,0.09292035398230089
0.001878351149209385,0.09292035398230089
0.001878351149209385,0.09394145677331518
0.001895427068747652,0.09394145677331518
0.001895427068747652,0.09428182437031994
0.0019125029882859192,0.09428182437031994
0.0019125029882859192,0.09598366235534377
0.0019295789078241864,0.09598366235534377
0.0019295789078241864,0.0966643975493533
0.0019466548273624534,0.0966643975493533
0.0019466548273624534,0.09802586793737236
0.0019637307469007204,0.09802586793737236
0.0019637307469007204,0.0987066031313819
0.0019808066664389876,0.0987066031313819
0.0019808066664389876,0.09972770592239619
0.002014958505515522,0.09972770592239619
0.002014958505515522,0.10074880871341048
0.0020320344250537893,0.10074880871341048
0.0020320344250537893,0.1024506466984343
0.0020832621836685905,0.1024506466984343
0.0020832621836685905,0.10279101429543908
0.002117414022745125,0.10279101429543908
0.002117414022745125,0.10313138189244384
0.0021857177008981934,0.10313138189244384
0.0021857177008981934,0.10483321987746766
0.0022027936204364607,0.10483321987746766
0.0022027936204364607,0.1065350578624915
0.0022198695399747274,0.1065350578624915
0.0022198695399747274,0.10721579305650102
0.002271097298589529,0.10721579305650102
0.002271097298589529,0.10823689584751532
0.002305249137666063,0.10823689584751532
0.002305249137666063,0.10891763104152484
0.0023394009767425976,0.10891763104152484
0.0023394009767425976,0.10925799863852961
0.0023564768962808648,0.10925799863852961
0.0023564768962808648,0.1123213070115725
0.0023906287353573988,0.1123213070115725
0.0023906287353573988,0.11266167460857726
0.002407704654895666,0.11266167460857726
0.002407704654895666,0.11300204220558203
0.0024247805744339332,0.11300204220558203
0.0024247805744339332,0.11504424778761062
0.0024418564939722004,0.11504424778761062
0.0024418564939722004,0.11606535057862491
0.0024589324135104677,0.11606535057862491
0.0024589324135104677,0.11776718856364875
0.0024930842525870017,0.11776718856364875
0.0024930842525870017,0.1191286589516678
0.002510160172125269,0.1191286589516678
0.002510160172125269,0.12049012933968686
0.002527236091663536,0.12049012933968686
0.002527236091663536,0.12083049693669162
0.0025443120112018033,0.12083049693669162
0.0025443120112018033,0.1211708645336964
0.0025613879307400706,0.1211708645336964
0.0025613879307400706,0.12321307011572498
0.0025784638502783373,0.12321307011572498
0.0025784638502783373,0.12355343771272975
0.0025955397698166046,0.12355343771272975
0.0025955397698166046,0.1249149081007488
0.002629691608893139,0.1249149081007488
0.002629691608893139,0.12525527569775358
0.0026467675284314062,0.12525527569775358
0.0026467675284314062,0.12729748127978216
0.002663843447969673,0.12729748127978216
0.002663843447969673,0.1279782164737917
0.0026809193675079402,0.1279782164737917
0.0026809193675079402,0.1300204220558203
0.0026979952870462075,0.1300204220558203
0.0026979952870462075,0.13206262763784887
0.0027150712065844747,0.13206262763784887
0.0027150712065844747,0.1337644656228727
0.002732147126122742,0.1337644656228727
0.002732147126122742,0.13410483321987746
0.0027492230456610087,0.13410483321987746
0.0027492230456610087,0.134785568413887
0.002766298965199276,0.134785568413887
0.002766298965199276,0.13648740639891083
0.002783374884737543,0.13648740639891083
0.002783374884737543,0.13716814159292035
0.0028004508042758103,0.13716814159292035
0.0028004508042758103,0.13886997957794417
0.0028346026433523444,0.13886997957794417
0.0028346026433523444,0.140571817562968
0.00291998224104368,0.140571817562968
0.00291998224104368,0.1415929203539823
0.0029370581605819472,0.1415929203539823
0.0029370581605819472,0.14363512593601088
0.0029712099996584817,0.14363512593601088
0.0029712099996584817,0.14397549353301567
0.002988285919196749,0.14397549353301567
0.002988285919196749,0.14499659632402995
0.0030053618387350157,0.14499659632402995
0.0030053618387350157,0.14669843430905377
0.00303951367781155,0.14669843430905377
0.00303951367781155,0.14805990469707284
0.0030907414364263514,0.14805990469707284
0.0030907414364263514,0.1484002722940776
0.0031078173559646186,0.1484002722940776
0.0031078173559646186,0.14874063989108238
0.003141969195041153,0.14874063989108238
0.003141969195041153,0.14908100748808714
0.0031590451145794203,0.14908100748808714
0.0031590451145794203,0.1494213750850919
0.0031931969536559543,0.1494213750850919
0.0031931969536559543,0.14976174268209666
0.0032102728731942215,0.14976174268209666
0.0032102728731942215,0.15010211027910142
0.0032273487927324887,0.15010211027910142
0.0032273487927324887,0.15078284547311097
0.003244424712270756,0.15078284547311097
0.003244424712270756,0.15112321307011573
0.0032615006318090227,0.15112321307011573
0.0032615006318090227,0.15214431586113003
0.003295652470885557,0.15214431586113003
0.003295652470885557,0.1531654186521443
0.0033127283904238244,0.1531654186521443
0.0033127283904238244,0.15350578624914907
0.0033298043099620916,0.15350578624914907
0.0033298043099620916,0.15452688904016337
0.0033639561490386256,0.15452688904016337
0.0033639561490386256,0.15520762423417292
0.003381032068576893,0.15520762423417292
0.003381032068576893,0.1562287270251872
0.0034322598271916945,0.1562287270251872
0.0034322598271916945,0.15963240299523485
0.003500563505344763,0.15963240299523485
0.003500563505344763,0.16133424098025867
0.003551791263959564,0.16133424098025867
0.003551791263959564,0.16609938733832538
0.0035688671834978314,0.16609938733832538
0.0035688671834978314,0.1671204901293397
0.0035859431030360986,0.1671204901293397
0.0035859431030360986,0.168141592920354
0.0036371708616509,0.168141592920354
0.0036371708616509,0.16916269571136827
0.003654246781189167,0.16916269571136827
0.003654246781189167,0.16950306330837303
0.0036883986202657015,0.16950306330837303
0.0036883986202657015,0.17018379850238258
0.0037054745398039683,0.17018379850238258
0.0037054745398039683,0.17154526889040164
0.0037225504593422355,0.17154526889040164
0.0037225504593422355,0.1718856364874064
0.00375670229841877,0.1718856364874064
0.00375670229841877,0.17222600408441116
0.003773778217957037,0.17222600408441116
0.003773778217957037,0.17256637168141592
0.003910385574263174,0.17256637168141592
0.003910385574263174,0.1729067392784207
0.0039445374133397085,0.1729067392784207
0.0039445374133397085,0.17358747447243023
0.00399576517195451,0.17358747447243023
0.00399576517195451,0.1749489448604493
0.0040128410914927765,0.1749489448604493
0.0040128410914927765,0.17665078284547311
0.004029917011031044,0.17665078284547311
0.004029917011031044,0.17699115044247787
0.004046992930569311,0.17699115044247787
0.004046992930569311,0.17733151803948263
0.004098220689184112,0.17733151803948263
0.004098220689184112,0.17767188563648742
0.00411529660872238,0.17767188563648742
0.00411529660872238,0.1786929884275017
0.004149448447798914,0.1786929884275017
0.004149448447798914,0.18073519400953028
0.004166524367337181,0.18073519400953028
0.004166524367337181,0.18107556160653507
0.004217752125951982,0.18107556160653507
0.004217752125951982,0.18141592920353983
0.00423482804549025,0.18141592920353983
0.00423482804549025,0.1817562968005446
0.004320207643181586,0.1817562968005446
0.004320207643181586,0.1827773995915589
0.004371435401796387,0.1827773995915589
0.004371435401796387,0.18311776718856365
0.004388511321334654,0.18311776718856365
0.004388511321334654,0.18447923757658272
0.004405587240872921,0.18447923757658272
0.004405587240872921,0.18481960517358748
0.0044568149994877225,0.18481960517358748
0.0044568149994877225,0.18584070796460178
0.004473890919025989,0.18584070796460178
0.004473890919025989,0.1865214431586113
0.004559270516717325,0.1865214431586113
0.004559270516717325,0.18686181075561606
0.004610498275332126,0.18686181075561606
0.004610498275332126,0.1875425459496256
0.0047129537925617295,0.1875425459496256
0.0047129537925617295,0.18856364874063988
0.004764181551176531,0.18856364874063988
0.004764181551176531,0.18992511912865895
0.0047812574707147976,0.18992511912865895
0.0047812574707147976,0.1906058543226685
0.004798333390253065,0.1906058543226685
0.004798333390253065,0.19094622191967325
0.004815409309791332,0.19094622191967325
0.004815409309791332,0.19162695711368277
0.0048324852293296,0.19162695711368277
0.0048324852293296,0.19196732471068753
0.0048495611488678664,0.19196732471068753
0.0048495611488678664,0.19230769230769232
0.004883712987944401,0.19230769230769232
0.004883712987944401,0.1933287950987066
0.004917864827020935,0.1933287950987066
0.004917864827020935,0.19366916269571136
0.0049690925856357366,0.19366916269571136
0.0049690925856357366,0.19469026548672566
0.005003244424712271,0.19469026548672566
0.005003244424712271,0.1953710006807352
0.005020320344250538,0.1953710006807352
0.005020320344250538,0.19571136827773997
0.0051056999419418735,0.19571136827773997
0.0051056999419418735,0.19775357385976855
0.005174003620094942,0.19775357385976855
0.005174003620094942,0.1980939414567733
0.00524230729824801,0.1980939414567733
0.00524230729824801,0.19843430905377807
0.005344762815477614,0.19843430905377807
0.005344762815477614,0.19877467665078286
0.0053618387350158805,0.19877467665078286
0.0053618387350158805,0.19911504424778761
0.005413066493630682,0.19911504424778761
0.005413066493630682,0.20081688223281144
0.005430142413168949,0.20081688223281144
0.005430142413168949,0.2011572498298162
0.005481370171783751,0.2011572498298162
0.005481370171783751,0.20183798502382574
0.005532597930398552,0.20183798502382574
0.005532597930398552,0.2021783526208305
0.005566749769475086,0.2021783526208305
0.005566749769475086,0.20251872021783526
0.005600901608551621,0.20251872021783526
0.005600901608551621,0.20285908781484002
0.0056179775280898875,0.20285908781484002
0.0056179775280898875,0.20388019060585433
0.005652129367166422,0.20388019060585433
0.005652129367166422,0.2042205582028591
0.005720433045319491,0.2042205582028591
0.005720433045319491,0.20456092579986385
0.005737508964857758,0.20456092579986385
0.005737508964857758,0.2052416609938734
0.005771660803934292,0.2052416609938734
0.005771660803934292,0.20558202859087815
0.005822888562549093,0.20558202859087815
0.005822888562549093,0.20660313138189246
0.005857040401625628,0.20660313138189246
0.005857040401625628,0.20694349897889722
0.005891192240702162,0.20694349897889722
0.005891192240702162,0.2089857045609258
0.006010723677470031,0.2089857045609258
0.006010723677470031,0.20932607215793056
0.006096103275161367,0.20932607215793056
0.006096103275161367,0.20966643975493532
0.006113179194699635,0.20966643975493532
0.006113179194699635,0.2100068073519401
0.0061302551142379015,0.2100068073519401
0.0061302551142379015,0.21034717494894487
0.00619855879239097,0.21034717494894487
0.00619855879239097,0.21136827773995914
0.006215634711929237,0.21136827773995914
0.006215634711929237,0.21170864533696393
0.006232710631467505,0.21170864533696393
0.006232710631467505,0.2120490129339687
0.006249786551005772,0.2120490129339687
0.006249786551005772,0.21238938053097345
0.006352242068235374,0.21238938053097345
0.006352242068235374,0.2127297481279782
0.006369317987773642,0.2127297481279782
0.006369317987773642,0.213070115724983
0.006454697585464977,0.213070115724983
0.006454697585464977,0.2137508509189925
0.006488849424541512,0.2137508509189925
0.006488849424541512,0.21511232130701158
0.006505925344079779,0.21511232130701158
0.006505925344079779,0.21545268890401634
0.006523001263618045,0.21545268890401634
0.006523001263618045,0.21613342409802586
0.006540077183156313,0.21613342409802586
0.006540077183156313,0.21647379169503064
0.00655715310269458,0.21647379169503064
0.00655715310269458,0.21783526208304968
0.0065742290222328475,0.21783526208304968
0.0065742290222328475,0.21817562968005447
0.006625456780847649,0.21817562968005447
0.006625456780847649,0.21851599727705923
0.0066425327003859155,0.21851599727705923
0.0066425327003859155,0.21885636487406399
0.006693760459000717,0.21885636487406399
0.006693760459000717,0.21919673247106874
0.006710836378538984,0.21919673247106874
0.006710836378538984,0.2198774676650783
0.00679621597623032,0.2198774676650783
0.00679621597623032,0.22123893805309736
0.006864519654383389,0.22123893805309736
0.006864519654383389,0.22157930565010212
0.0068986714934599225,0.22157930565010212
0.0068986714934599225,0.22226004084411163
0.006932823332536457,0.22226004084411163
0.006932823332536457,0.2226004084411164
0.006984051091151258,0.2226004084411164
0.006984051091151258,0.22294077603812118
0.00703527884976606,0.22294077603812118
0.00703527884976606,0.224642614023145
0.007052354769304327,0.224642614023145
0.007052354769304327,0.22498298162014976
0.0070865066083808615,0.22498298162014976
0.0070865066083808615,0.22532334921715452
0.007120658447457396,0.22532334921715452
0.007120658447457396,0.22566371681415928
0.0071548102865339296,0.22566371681415928
0.0071548102865339296,0.22600408441116407
0.0072743417233018,0.22600408441116407
0.0072743417233018,0.22634445200816883
0.007308493562378334,0.22634445200816883
0.007308493562378334,0.2266848196051736
0.007325569481916601,0.2266848196051736
0.007325569481916601,0.22702518720217835
0.007376797240531403,0.22702518720217835
0.007376797240531403,0.2273655547991831
0.00739387316006967,0.2273655547991831
0.00739387316006967,0.22804628999319265
0.007428024999146204,0.22804628999319265
0.007428024999146204,0.2283866575901974
0.007496328677299272,0.2283866575901974
0.007496328677299272,0.22872702518720217
0.007530480516375807,0.22872702518720217
0.007530480516375807,0.22906739278420693
0.007598784194528876,0.22906739278420693
0.007598784194528876,0.22940776038121172
0.007615860114067142,0.22940776038121172
0.007615860114067142,0.23008849557522124
0.007684163792220211,0.23008849557522124
0.007684163792220211,0.230428863172226
0.007752467470373279,0.230428863172226
0.007752467470373279,0.23110959836623554
0.007786619309449814,0.23110959836623554
0.007786619309449814,0.23179033356024506
0.00787199890714115,0.23179033356024506
0.00787199890714115,0.2324710687542546
0.008008606263447286,0.2324710687542546
0.008008606263447286,0.23281143635125937
0.008145213619753424,0.23281143635125937
0.008145213619753424,0.23383253914227364
0.00816228953929169,0.23383253914227364
0.00816228953929169,0.23417290673927843
0.008213517297906493,0.23417290673927843
0.008213517297906493,0.2345132743362832
0.008247669136983026,0.2345132743362832
0.008247669136983026,0.2351940095302927
0.008298896895597829,0.2351940095302927
0.008298896895597829,0.2355343771272975
0.008333048734674362,0.2355343771272975
0.008333048734674362,0.236215112321307
0.008401352412827431,0.236215112321307
0.008401352412827431,0.23689584751531653
0.008503807930057034,0.23689584751531653
0.008503807930057034,0.23723621511232132
0.00858918752774837,0.23723621511232132
0.00858918752774837,0.23757658270932608
0.008623339366824903,0.23757658270932608
0.008623339366824903,0.23791695030633084
0.008640415286363171,0.23791695030633084
0.008640415286363171,0.2382573179033356
0.008691643044977972,0.2382573179033356
0.008691643044977972,0.2392784206943499
0.008708718964516238,0.2392784206943499
0.008708718964516238,0.23961878829135466
0.008725794884054507,0.23961878829135466
0.008725794884054507,0.23995915588835942
0.008777022642669307,0.23995915588835942
0.008777022642669307,0.24063989108236897
0.008811174481745843,0.24063989108236897
0.008811174481745843,0.24098025867937373
0.00887947815989891,0.24098025867937373
0.00887947815989891,0.24132062627637849
0.008913629998975445,0.24132062627637849
0.008913629998975445,0.24166099387338325
0.009016085516205048,0.24166099387338325
0.009016085516205048,0.24200136147038803
0.009050237355281581,0.24200136147038803
0.009050237355281581,0.24268209666439755
0.009084389194358116,0.24268209666439755
0.009084389194358116,0.24336283185840707
0.009135616952972917,0.24336283185840707
0.009135616952972917,0.24370319945541186
0.009238072470202521,0.24370319945541186
0.009238072470202521,0.24404356705241662
0.009289300228817321,0.24404356705241662
0.009289300228817321,0.24438393464942137
0.009306376148355588,0.24438393464942137
0.009306376148355588,0.24472430224642613
0.009340527987432123,0.24472430224642613
0.009340527987432123,0.2450646698434309
0.009425907585123459,0.2450646698434309
0.009425907585123459,0.2460857726344452
0.009511287182814795,0.2460857726344452
0.009511287182814795,0.24642614023144996
0.00964789453912093,0.24642614023144996
0.00964789453912093,0.24744724302246426
0.009716198217274,0.24744724302246426
0.009716198217274,0.24778761061946902
0.00983572965404187,0.24778761061946902
0.00983572965404187,0.24812797821647378
0.009989412929886275,0.24812797821647378
0.009989412929886275,0.24846834581347857
0.010091868447115878,0.24846834581347857
0.010091868447115878,0.24880871341048333
0.010108944366654144,0.24880871341048333
0.010108944366654144,0.2491490810074881
0.01019432396434548,0.2491490810074881
0.01019432396434548,0.24948944860449285
0.010211399883883747,0.24948944860449285
0.010211399883883747,0.2498298162014976
0.01031385540111335,0.2498298162014976
0.01031385540111335,0.25051055139550715
0.010450462757419487,0.25051055139550715
0.010450462757419487,0.25085091899251194
0.010535842355110823,0.25085091899251194
0.010535842355110823,0.25119128658951667
0.010638297872340425,0.25119128658951667
0.010638297872340425,0.25153165418652146
0.010689525630955227,0.25153165418652146
0.010689525630955227,0.252212389380531
0.010826132987261363,0.252212389380531
0.010826132987261363,0.25255275697753576
0.010877360745876165,0.25255275697753576
0.010877360745876165,0.2528931245745405
0.010911512584952699,0.2528931245745405
0.010911512584952699,0.2532334921715453
0.010962740343567501,0.2532334921715453
0.010962740343567501,0.25357385976855
0.010979816263105768,0.25357385976855
0.010979816263105768,0.2542545949625596
0.011133499538950173,0.2542545949625596
0.011133499538950173,0.25527569775357384
0.011235955056179775,0.25527569775357384
0.011235955056179775,0.2556160653505786
0.011287182814794577,0.2556160653505786
0.011287182814794577,0.25663716814159293
0.011304258734332844,0.25663716814159293
0.011304258734332844,0.25697753573859766
0.011406714251562446,0.25697753573859766
0.011406714251562446,0.25731790333560245
0.011457942010177248,0.25731790333560245
0.011457942010177248,0.25765827093260724
0.011577473446945118,0.25765827093260724
0.011577473446945118,0.25833900612661675
0.01167992896417472,0.25833900612661675
0.01167992896417472,0.2586793737236215
0.011782384481404324,0.2586793737236215
0.011782384481404324,0.2590197413206263
0.011816536320480858,0.2590197413206263
0.011816536320480858,0.25936010891763106
0.012072675113554865,0.25936010891763106
0.012072675113554865,0.2597004765146358
0.012089751033093132,0.2597004765146358
0.012089751033093132,0.2603812117086453
0.012192206550322734,0.2603812117086453
0.012192206550322734,0.2610619469026549
0.012362965745705405,0.2610619469026549
0.012362965745705405,0.2614023144996596
0.01239711758478194,0.2614023144996596
0.01239711758478194,0.2617426820966644
0.012567876780164612,0.2617426820966644
0.012567876780164612,0.2627637848876787
0.012602028619241146,0.2627637848876787
0.012602028619241146,0.26310415248468344
0.012619104538779412,0.26310415248468344
0.012619104538779412,0.263784887678693
0.012687408216932481,0.263784887678693
0.012687408216932481,0.26412525527569775
0.012704484136470748,0.26412525527569775
0.012704484136470748,0.26446562287270253
0.01282401557323862,0.26446562287270253
0.01282401557323862,0.26480599046970726
0.012892319251391688,0.26480599046970726
0.012892319251391688,0.26514635806671205
0.01304600252723609,0.26514635806671205
0.01304600252723609,0.26548672566371684
0.01306307844677436,0.26548672566371684
0.01306307844677436,0.26616746085772636
0.013131382124927427,0.26616746085772636
0.013131382124927427,0.2665078284547311
0.013148458044465695,0.2665078284547311
0.013148458044465695,0.2668481960517359
0.0133533690789249,0.2668481960517359
0.0133533690789249,0.2675289312457454
0.013370444998463167,0.2675289312457454
0.013370444998463167,0.2678692988427502
0.013438748676616236,0.2678692988427502
0.013438748676616236,0.2682096664397549
0.01347290051569277,0.2682096664397549
0.01347290051569277,0.2685500340367597
0.013609507871998907,0.2685500340367597
0.013609507871998907,0.2688904016337645
0.013626583791537174,0.2688904016337645
0.013626583791537174,0.26991150442477874
0.013660735630613709,0.26991150442477874
0.013660735630613709,0.2702518720217835
0.013729039308766778,0.2702518720217835
0.013729039308766778,0.2705922396187883
0.013865646665072914,0.2705922396187883
0.013865646665072914,0.27093260721579304
0.01389979850414945,0.27093260721579304
0.01389979850414945,0.27127297481279783
0.013968102182302516,0.27127297481279783
0.013968102182302516,0.27195371000680735
0.014036405860455585,0.27195371000680735
0.014036405860455585,0.27229407760381213
0.014207165055838257,0.27229407760381213
0.014207165055838257,0.27297481279782165
0.014309620573067859,0.27297481279782165
0.014309620573067859,0.27331518039482644
0.014343772412144394,0.27331518039482644
0.014343772412144394,0.27365554799183117
0.014514531607527066,0.27365554799183117
0.014514531607527066,0.27399591558883596
0.014616987124756668,0.27399591558883596
0.014616987124756668,0.2743362831858407
0.01466821488337147,0.2743362831858407
0.01466821488337147,0.2746766507828455
0.014753594481062806,0.2746766507828455
0.014753594481062806,0.27501701837985026
0.014770670400601073,0.27501701837985026
0.014770670400601073,0.2756977535738598
0.014838974078754142,0.2756977535738598
0.014838974078754142,0.2760381211708645
0.014856049998292408,0.2760381211708645
0.014856049998292408,0.2763784887678693
0.014958505515522011,0.2763784887678693
0.014958505515522011,0.2770592239618788
0.014992657354598544,0.2770592239618788
0.014992657354598544,0.2773995915588836
0.01502680919367508,0.2773995915588836
0.01502680919367508,0.27773995915588834
0.015043885113213347,0.27773995915588834
0.015043885113213347,0.2780803267528931
0.015180492469519484,0.2780803267528931
0.015180492469519484,0.2784206943498979
0.015282947986749087,0.2784206943498979
0.015282947986749087,0.27876106194690264
0.015334175745363887,0.27876106194690264
0.015334175745363887,0.27910142954390743
0.015419555343055223,0.27910142954390743
0.015419555343055223,0.27944179714091216
0.015470783101670025,0.27944179714091216
0.015470783101670025,0.27978216473791695
0.015692770055667497,0.27978216473791695
0.015692770055667497,0.28012253233492174
0.015914757009664972,0.28012253233492174
0.015914757009664972,0.28046289993192647
0.015965984768279772,0.28046289993192647
0.015965984768279772,0.28080326752893126
0.01615381988320071,0.28080326752893126
0.01615381988320071,0.281143635125936
0.01627335131996858,0.281143635125936
0.01627335131996858,0.2814840027229408
0.01634165499812165,0.2814840027229408
0.01634165499812165,0.2821647379169503
0.01639288275673645,0.2821647379169503
0.01639288275673645,0.2831858407079646
0.01651241419350432,0.2831858407079646
0.01651241419350432,0.2838665759019741
0.01656364195211912,0.2838665759019741
0.01656364195211912,0.2842069434989789
0.01663194563027219,0.2842069434989789
0.01663194563027219,0.28454731109598363
0.016666097469348724,0.28454731109598363
0.016666097469348724,0.2848876786929884
0.016802704825654862,0.2848876786929884
0.016802704825654862,0.2852280462899932
0.016836856664731396,0.2852280462899932
0.016836856664731396,0.28556841388699794
0.016853932584269662,0.28556841388699794
0.016853932584269662,0.2859087814840027
0.016905160342884463,0.2859087814840027
0.016905160342884463,0.28658951667801225
0.016922236262422733,0.28658951667801225
0.016922236262422733,0.28795098706603134
0.017007615860114067,0.28795098706603134
0.017007615860114067,0.28829135466303607
0.0170417676991906,0.28829135466303607
0.0170417676991906,0.28863172226004086
0.017092995457805404,0.28863172226004086
0.017092995457805404,0.2889720898570456
0.01716129913595847,0.2889720898570456
0.01716129913595847,0.2893124574540504
0.01717837505549674,0.2893124574540504
0.01717837505549674,0.2899931926480599
0.01722960281411154,0.2899931926480599
0.01722960281411154,0.2903335602450647
0.017263754653188076,0.2903335602450647
0.017263754653188076,0.2906739278420694
0.017280830572726343,0.2906739278420694
0.017280830572726343,0.2910142954390742
0.017434513848570747,0.2910142954390742
0.017434513848570747,0.291354663036079
0.017485741607185547,0.291354663036079
0.017485741607185547,0.2920353982300885
0.017536969365800348,0.2920353982300885
0.017536969365800348,0.29237576582709324
0.01757112120487688,0.29237576582709324
0.01757112120487688,0.292716133424098
0.01760527304395342,0.292716133424098
0.01760527304395342,0.2930565010211028
0.01775895631979782,0.2930565010211028
0.01775895631979782,0.29339686861810754
0.017810184078412623,0.29339686861810754
0.017810184078412623,0.29373723621511233
0.017861411837027424,0.29373723621511233
0.017861411837027424,0.29407760381211706
0.01787848775656569,0.29407760381211706
0.01787848775656569,0.29441797140912185
0.017912639595642224,0.29441797140912185
0.017912639595642224,0.29475833900612664
0.018083398791024895,0.29475833900612664
0.018083398791024895,0.29509870660313137
0.018100474710563162,0.29509870660313137
0.018100474710563162,0.29543907420013615
0.018220006147331033,0.29543907420013615
0.018220006147331033,0.29611980939414567
0.018271233905945834,0.29611980939414567
0.018271233905945834,0.29646017699115046
0.01830538574502237,0.29646017699115046
0.01830538574502237,0.2968005445881552
0.01840784126225197,0.2968005445881552
0.01840784126225197,0.29714091218516
0.018459069020866775,0.29714091218516
0.018459069020866775,0.2978216473791695
0.018698131894402514,0.2978216473791695
0.018698131894402514,0.2981620149761743
0.018783511492093848,0.2981620149761743
0.018783511492093848,0.2988427501701838
0.019056726204706123,0.2988427501701838
0.019056726204706123,0.2991831177671886
0.01914210580239746,0.2991831177671886
0.01914210580239746,0.2995234853641933
0.01919333356101226,0.2995234853641933
0.01919333356101226,0.2998638529611981
0.01929578907824186,0.2998638529611981
0.01929578907824186,0.3005445881552076
0.019312864997780132,0.3005445881552076
0.019312864997780132,0.3008849557522124
0.0193299409173184,0.3008849557522124
0.0193299409173184,0.30122532334921714
0.019466548273624536,0.30122532334921714
0.019466548273624536,0.30156569094622193
0.019569003790854137,0.30156569094622193
0.019569003790854137,0.30190605854322666
0.01972268706669854,0.30190605854322666
0.01972268706669854,0.30224642614023145
0.01973976298623681,0.30224642614023145
0.01973976298623681,0.30258679373723624
0.01979099074485161,0.30258679373723624
0.01979099074485161,0.30326752893124576
0.019825142583928146,0.30326752893124576
0.019825142583928146,0.3036078965282505
0.01996174994023428,0.3036078965282505
0.01996174994023428,0.3039482641252553
0.02013250913561695,0.3039482641252553
0.02013250913561695,0.30428863172226006
0.020149585055155222,0.30428863172226006
0.020149585055155222,0.3053097345132743
0.020200812813770022,0.3053097345132743
0.020200812813770022,0.3063308373042886
0.020422799767767494,0.3063308373042886
0.020422799767767494,0.3066712049012934
0.020474027526382294,0.3066712049012934
0.020474027526382294,0.30701157249829814
0.020491103445920564,0.30701157249829814
0.020491103445920564,0.3073519400953029
0.020542331204535365,0.3073519400953029
0.020542331204535365,0.30803267528931244
0.0205764830436119,0.30803267528931244
0.0205764830436119,0.30837304288631723
0.020610634882688432,0.30837304288631723
0.020610634882688432,0.308713410483322
0.0206277108022267,0.308713410483322
0.0206277108022267,0.30905377808032675
0.020764318158532837,0.30905377808032675
0.020764318158532837,0.30939414567733153
0.020849697756224174,0.30939414567733153
0.020849697756224174,0.30973451327433627
0.020883849595300708,0.30973451327433627
0.020883849595300708,0.31007488087134105
0.020986305112530308,0.31007488087134105
0.020986305112530308,0.31041524846834584
0.021071684710221646,0.31041524846834584
0.021071684710221646,0.31109598366235536
0.021088760629759912,0.31109598366235536
0.021088760629759912,0.3114363512593601
0.021259519825142584,0.3114363512593601
0.021259519825142584,0.3117767188563649
0.02134489942283392,0.3117767188563649
0.02134489942283392,0.31211708645336966
0.021515658618216593,0.31211708645336966
0.021515658618216593,0.3124574540503744
0.021549810457293126,0.3124574540503744
0.021549810457293126,0.3127978216473792
0.021566886376831393,0.3127978216473792
0.021566886376831393,0.3131381892443839
0.02163519005498446,0.3131381892443839
0.02163519005498446,0.3134785568413887
0.021823025169905398,0.3134785568413887
0.021823025169905398,0.314499659632403
0.021976708445749803,0.314499659632403
0.021976708445749803,0.31484002722940774
0.02199378436528807,0.31484002722940774
0.02199378436528807,0.3151803948264125
0.022096239882517674,0.3151803948264125
0.022096239882517674,0.3155207624234173
0.022147467641132474,0.3155207624234173
0.022147467641132474,0.31620149761742683
0.022318226836515145,0.31620149761742683
0.022318226836515145,0.31688223281143635
0.022403606434206483,0.31688223281143635
0.022403606434206483,0.31722260040844114
0.02242068235374475,0.31722260040844114
0.02242068235374475,0.31756296800544587
0.022454834192821283,0.31756296800544587
0.022454834192821283,0.31790333560245065
0.02247191011235955,0.31790333560245065
0.02247191011235955,0.3182437031994554
0.02252313787097435,0.3182437031994554
0.02252313787097435,0.31892443839346496
0.022625593388203954,0.31892443839346496
0.022625593388203954,0.3192648059904697
0.02272804890543356,0.3192648059904697
0.02272804890543356,0.3196051735874745
0.022847580342201426,0.3196051735874745
0.022847580342201426,0.31994554118447927
0.022881732181277963,0.31994554118447927
0.022881732181277963,0.3206262763784888
0.02289880810081623,0.3206262763784888
0.02289880810081623,0.3213070115724983
0.023172022813428502,0.3213070115724983
0.023172022813428502,0.3219877467665078
0.02335985792834944,0.3219877467665078
0.02335985792834944,0.32266848196051734
0.023547693043270382,0.32266848196051734
0.023547693043270382,0.3230088495575221
0.023684300399576516,0.3230088495575221
0.023684300399576516,0.3233492171545269
0.023803831836344387,0.3233492171545269
0.023803831836344387,0.32368958475153164
0.023889211434035725,0.32368958475153164
0.023889211434035725,0.32402995234853643
0.02397459103172706,0.32402995234853643
0.02397459103172706,0.32437031994554116
0.024179502066186263,0.32437031994554116
0.024179502066186263,0.32471068754254595
0.024230729824801067,0.32471068754254595
0.024230729824801067,0.32505105513955074
0.024247805744339334,0.32505105513955074
0.024247805744339334,0.32539142273655547
0.0242648816638776,0.32539142273655547
0.0242648816638776,0.32573179033356026
0.024299033502954134,0.32573179033356026
0.024299033502954134,0.326072157930565
0.024333185342030668,0.326072157930565
0.024333185342030668,0.3264125255275698
0.024350261261568935,0.3264125255275698
0.024350261261568935,0.32675289312457456
0.024521020456951606,0.32675289312457456
0.024521020456951606,0.3277739959155888
0.024640551893719477,0.3277739959155888
0.024640551893719477,0.3284547311095984
0.02481131108910215,0.3284547311095984
0.02481131108910215,0.3287950987066031
0.024879614767255216,0.3287950987066031
0.024879614767255216,0.3291354663036079
0.024913766606331753,0.3291354663036079
0.024913766606331753,0.32947583390061264
0.02493084252587002,0.32947583390061264
0.02493084252587002,0.3298162014976174
0.02498207028448482,0.3298162014976174
0.02498207028448482,0.3301565690946222
0.02515282947986749,0.3301565690946222
0.02515282947986749,0.33049693669162694
0.025374816433864963,0.33049693669162694
0.025374816433864963,0.33083730428863173
0.025408968272941496,0.33083730428863173
0.025408968272941496,0.33117767188563646
0.025545575629247634,0.33117767188563646
0.025545575629247634,0.33151803948264125
0.025665107066015505,0.33151803948264125
0.025665107066015505,0.33185840707964603
0.02576756258324511,0.33185840707964603
0.02576756258324511,0.33219877467665077
0.025852942180936443,0.33219877467665077
0.025852942180936443,0.33253914227365555
0.02604077729585738,0.33253914227365555
0.02604077729585738,0.33287950987066034
0.02617738465216352,0.33287950987066034
0.02617738465216352,0.33321987746766507
0.02622861241077832,0.33321987746766507
0.02622861241077832,0.3339006126616746
0.02629691608893139,0.3339006126616746
0.02629691608893139,0.3342409802586794
0.02634814384754619,0.3342409802586794
0.02634814384754619,0.33458134785568416
0.02646767528431406,0.33458134785568416
0.02646767528431406,0.3352620830496937
0.0267067381578498,0.3352620830496937
0.0267067381578498,0.3356024506466984
0.026775041836002867,0.3356024506466984
0.026775041836002867,0.3359428182437032
0.02682626959461767,0.3359428182437032
0.02682626959461767,0.336283185840708
0.026843345514155938,0.336283185840708
0.026843345514155938,0.3366235534377127
0.026860421433694204,0.3366235534377127
0.026860421433694204,0.33730428863172224
0.02696287695092381,0.33730428863172224
0.02696287695092381,0.337644656228727
0.02730439534168915,0.337644656228727
0.02730439534168915,0.3379850238257318
0.027338547180765685,0.3379850238257318
0.027338547180765685,0.33832539142273654
0.02735562310030395,0.33832539142273654
0.02735562310030395,0.33866575901974133
0.02737269901984222,0.33866575901974133
0.02737269901984222,0.33900612661674606
0.027406850858918752,0.33900612661674606
0.027406850858918752,0.33934649421375085
0.027458078617533556,0.33934649421375085
0.027458078617533556,0.33968686181075564
0.02766298965199276,0.33968686181075564
0.02766298965199276,0.34002722940776037
0.027680065571531028,0.34002722940776037
0.027680065571531028,0.34036759700476515
0.027697141491069294,0.34036759700476515
0.027697141491069294,0.3407079646017699
0.02771421741060756,0.3407079646017699
0.02771421741060756,0.3410483321987747
0.027748369249684095,0.3410483321987747
0.027748369249684095,0.34138869979577946
0.0277995970082989,0.34138869979577946
0.0277995970082989,0.3417290673927842
0.027816672927837165,0.3417290673927842
0.027816672927837165,0.342069434989789
0.027833748847375432,0.342069434989789
0.027833748847375432,0.3427501701837985
0.0278508247669137,0.3427501701837985
0.0278508247669137,0.3430905377808033
0.0279020525255285,0.3430905377808033
0.0279020525255285,0.343430905377808
0.028038659881834637,0.343430905377808
0.028038659881834637,0.3437712729748128
0.028055735801372904,0.3437712729748128
0.028055735801372904,0.3441116405718176
0.028089887640449437,0.3441116405718176
0.028089887640449437,0.3454731109598366
0.02826064683583211,0.3454731109598366
0.02826064683583211,0.3458134785568414
0.028311874594446913,0.3458134785568414
0.028311874594446913,0.34649421375085093
0.028363102353061713,0.34649421375085093
0.028363102353061713,0.34717494894486045
0.028414330111676513,0.34717494894486045
0.028414330111676513,0.34751531654186524
0.028585089307059185,0.34751531654186524
0.028585089307059185,0.34785568413886997
0.02860216522659745,0.34785568413886997
0.02860216522659745,0.3488767869298843
0.028619241146135718,0.3488767869298843
0.028619241146135718,0.34921715452688906
0.028721696663365322,0.34921715452688906
0.028721696663365322,0.3498978897208986
0.02879000034151839,0.3498978897208986
0.02879000034151839,0.3502382573179033
0.028875379939209727,0.3502382573179033
0.028875379939209727,0.3505786249149081
0.028926607697824527,0.3505786249149081
0.028926607697824527,0.3509189925119129
0.02902906321505413,0.3509189925119129
0.02902906321505413,0.3515997277059224
0.02916567057136027,0.3515997277059224
0.02916567057136027,0.3526208304969367
0.029199822410436803,0.3526208304969367
0.029199822410436803,0.35296119809394144
0.02926812608858987,0.35296119809394144
0.02926812608858987,0.35330156569094623
0.029302277927666404,0.35330156569094623
0.029302277927666404,0.35466303607896527
0.029404733444896008,0.35466303607896527
0.029404733444896008,0.35500340367597005
0.029473037123049075,0.35500340367597005
0.029473037123049075,0.35534377127297484
0.02952426488166388,0.35534377127297484
0.02952426488166388,0.35568413886997957
0.02974625183566135,0.35568413886997957
0.02974625183566135,0.3563648740639891
0.029780403674737884,0.3563648740639891
0.029780403674737884,0.3567052416609939
0.02986578327242922,0.3567052416609939
0.02986578327242922,0.35704560925799866
0.029968238789658822,0.35704560925799866
0.029968238789658822,0.3573859768550034
0.030070694306888426,0.3573859768550034
0.030070694306888426,0.3580667120490129
0.030138997985041494,0.3580667120490129
0.030138997985041494,0.3584070796460177
0.03015607390457976,0.3584070796460177
0.03015607390457976,0.3587474472430225
0.03027560534134763,0.3587474472430225
0.03027560534134763,0.3590878148400272
0.0303439090195007,0.3590878148400272
0.0303439090195007,0.359428182437032
0.03036098493903897,0.359428182437032
0.03036098493903897,0.35976855003403674
0.030548820053959907,0.35976855003403674
0.030548820053959907,0.3601089176310415
0.03058297189303644,0.3601089176310415
0.03058297189303644,0.3604492852280463
0.030617123732112974,0.3604492852280463
0.030617123732112974,0.36078965282505104
0.03063419965165124,0.36078965282505104
0.03063419965165124,0.36147038801906056
0.030736655168880845,0.36147038801906056
0.030736655168880845,0.3635125936010892
0.030839110686110446,0.3635125936010892
0.030839110686110446,0.36385296119809396
0.030924490283801783,0.36385296119809396
0.030924490283801783,0.3641933287950987
0.031078173559646188,0.3641933287950987
0.031078173559646188,0.3645336963921035
0.03119770499641406,0.3645336963921035
0.03119770499641406,0.3648740639891082
0.031214780915952325,0.3648740639891082
0.031214780915952325,0.365214431586113
0.03147091970902633,0.365214431586113
0.03147091970902633,0.3655547991831178
0.031624602984870735,0.3655547991831178
0.031624602984870735,0.3662355343771273
0.03176121034117687,0.3662355343771273
0.03176121034117687,0.3665759019741321
0.03177828626071514,0.3665759019741321
0.03177828626071514,0.3672566371681416
0.03181243809979167,0.3672566371681416
0.03181243809979167,0.3682777399591559
0.03184658993886821,0.3682777399591559
0.03184658993886821,0.36861810755616065
0.03194904545609781,0.36861810755616065
0.03194904545609781,0.36895847515316543
0.03196612137563608,0.36895847515316543
0.03196612137563608,0.36929884275017016
0.03200027321471261,0.36929884275017016
0.03200027321471261,0.36963921034717495
0.032034425053789145,0.36963921034717495
0.032034425053789145,0.36997957794417974
0.03206857689286568,0.36997957794417974
0.03206857689286568,0.37066031313818926
0.03208565281240395,0.37066031313818926
0.03208565281240395,0.3713410483321988
0.03220518424917182,0.3713410483321988
0.03220518424917182,0.3720217835262083
0.03237594344455449,0.3720217835262083
0.03237594344455449,0.3723621511232131
0.032444247122707555,0.3723621511232131
0.032444247122707555,0.3730428863172226
0.03251255080086063,0.3730428863172226
0.03251255080086063,0.3733832539142274
0.03252962672039889,0.3733832539142274
0.03252962672039889,0.3737236215112321
0.032666234076705034,0.3737236215112321
0.032666234076705034,0.3740639891082369
0.0326833099962433,0.3740639891082369
0.0326833099962433,0.37440435670524164
0.0327345377548581,0.37440435670524164
0.0327345377548581,0.3747447243022464
0.0327857655134729,0.3747447243022464
0.0327857655134729,0.3750850918992512
0.03281991735254944,0.3750850918992512
0.03281991735254944,0.37576582709326073
0.0328369932720877,0.37576582709326073
0.0328369932720877,0.37610619469026546
0.03285406919162597,0.37610619469026546
0.03285406919162597,0.37644656228727025
0.03292237286977904,0.37644656228727025
0.03292237286977904,0.37678692988427503
0.032990676547932106,0.37678692988427503
0.032990676547932106,0.37746766507828455
0.03312728390423824,0.37746766507828455
0.03312728390423824,0.3778080326752893
0.03316143574331478,0.3778080326752893
0.03316143574331478,0.37848876786929886
0.03322973942146785,0.37848876786929886
0.03322973942146785,0.3791695030633084
0.03336634677777398,0.3791695030633084
0.03336634677777398,0.37950987066031316
0.03348587821454185,0.37950987066031316
0.03348587821454185,0.3801906058543227
0.03355418189269492,0.3801906058543227
0.03355418189269492,0.3805309734513274
0.03365663740992452,0.3805309734513274
0.03365663740992452,0.3808713410483322
0.03369078924900106,0.3808713410483322
0.03369078924900106,0.381211708645337
0.033707865168539325,0.381211708645337
0.033707865168539325,0.3815520762423417
0.033724941088077595,0.3815520762423417
0.033724941088077595,0.3818924438393465
0.03394692804207507,0.3818924438393465
0.03394692804207507,0.38223281143635124
0.033998155800689864,0.38223281143635124
0.033998155800689864,0.382573179033356
0.034015231720228134,0.382573179033356
0.034015231720228134,0.3829135466303608
0.03404938355930467,0.3829135466303608
0.03404938355930467,0.38393464942137506
0.034134763156996005,0.38393464942137506
0.034134763156996005,0.38461538461538464
0.03418599091561081,0.38461538461538464
0.03418599091561081,0.38529611980939416
0.03420306683514907,0.38529611980939416
0.03420306683514907,0.3859768550034037
0.034237218674225606,0.3859768550034037
0.034237218674225606,0.38631722260040846
0.03430552235237867,0.38631722260040846
0.03430552235237867,0.3866575901974132
0.03437382603053175,0.3866575901974132
0.03437382603053175,0.386997957794418
0.034425053789146544,0.386997957794418
0.034425053789146544,0.3876786929884275
0.034544585225914415,0.3876786929884275
0.034544585225914415,0.3880190605854323
0.034561661145452685,0.3880190605854323
0.034561661145452685,0.388359428182437
0.034869027697141494,0.388359428182437
0.034869027697141494,0.3886997957794418
0.03488610361667976,0.3886997957794418
0.03488610361667976,0.38904016337644654
0.034971483214371095,0.38904016337644654
0.034971483214371095,0.3893805309734513
0.035073938731600696,0.3893805309734513
0.035073938731600696,0.3897208985704561
0.035091014651138966,0.3897208985704561
0.035091014651138966,0.39006126616746084
0.03514224240975376,0.39006126616746084
0.03514224240975376,0.3904016337644656
0.035176394248830296,0.3904016337644656
0.035176394248830296,0.39108236895847515
0.03519347016836857,0.39108236895847515
0.03519347016836857,0.39142273655547993
0.0352276220074451,0.39142273655547993
0.0352276220074451,0.39176310415248466
0.03536422936375124,0.39176310415248466
0.03536422936375124,0.39210347174948945
0.035398381202827775,0.39210347174948945
0.035398381202827775,0.39244383934649424
0.03541545712236604,0.39244383934649424
0.03541545712236604,0.39312457454050376
0.035603292237286976,0.39312457454050376
0.035603292237286976,0.3934649421375085
0.03585943103036098,0.3934649421375085
0.03585943103036098,0.3938053097345133
0.03587650694989925,0.3938053097345133
0.03587650694989925,0.39414567733151806
0.03594481062805232,0.39414567733151806
0.03594481062805232,0.3944860449285228
0.03596188654759059,0.3944860449285228
0.03596188654759059,0.3948264125255276
0.03608141798435846,0.3948264125255276
0.03608141798435846,0.3951667801225323
0.03649124005327687,0.3951667801225323
0.03649124005327687,0.3955071477195371
0.036525391892353404,0.3955071477195371
0.036525391892353404,0.3961878829135466
0.03659369557050647,0.3961878829135466
0.03659369557050647,0.3965282505105514
0.03669615108773607,0.3965282505105514
0.03669615108773607,0.39686861810755614
0.036747378846350875,0.39686861810755614
0.036747378846350875,0.3972089857045609
0.03678153068542741,0.3972089857045609
0.03678153068542741,0.3975493533015657
0.03681568252450394,0.3975493533015657
0.03681568252450394,0.39788972089857044
0.036935213961271814,0.39788972089857044
0.036935213961271814,0.39823008849557523
0.03702059355896315,0.39823008849557523
0.03702059355896315,0.39857045609257996
0.037071821317577955,0.39857045609257996
0.037071821317577955,0.39891082368958475
0.03710597315665449,0.39891082368958475
0.03710597315665449,0.39925119128658954
0.037276732352037156,0.39925119128658954
0.037276732352037156,0.39959155888359427
0.03729380827157543,0.39959155888359427
0.03729380827157543,0.39993192648059905
0.03734503603019022,0.39993192648059905
0.03734503603019022,0.40061266167460857
0.037464567466958094,0.40061266167460857
0.037464567466958094,0.40095302927161336
0.03763532666234077,0.40095302927161336
0.03763532666234077,0.4012933968686181
0.037789009938185174,0.4012933968686181
0.037789009938185174,0.4016337644656229
0.03784023769679997,0.4016337644656229
0.03784023769679997,0.40197413206262766
0.037891465455414775,0.40197413206262766
0.037891465455414775,0.4023144996596324
0.03790854137495304,0.4023144996596324
0.03790854137495304,0.4029952348536419
0.03809637648987398,0.4029952348536419
0.03809637648987398,0.4033356024506467
0.03814760424848878,0.4033356024506467
0.03814760424848878,0.4036759700476515
0.03816468016802705,0.4036759700476515
0.03816468016802705,0.404356705241661
0.038198832007103584,0.404356705241661
0.038198832007103584,0.40469707283866574
0.03836959120248625,0.40469707283866574
0.03836959120248625,0.4050374404356705
0.038403743041562785,0.4050374404356705
0.038403743041562785,0.40571817562968004
0.03847204671971586,0.40571817562968004
0.03847204671971586,0.40605854322668483
0.03855742631740719,0.40605854322668483
0.03855742631740719,0.40639891082368956
0.03857450223694546,0.40639891082368956
0.03857450223694546,0.40707964601769914
0.03859157815648372,0.40707964601769914
0.03859157815648372,0.40742001361470387
0.038625729995560264,0.40742001361470387
0.038625729995560264,0.40776038121170866
0.03864280591509853,0.40776038121170866
0.03864280591509853,0.4081007488087134
0.03874526143232813,0.4081007488087134
0.03874526143232813,0.4084411164057182
0.03879648919094293,0.4084411164057182
0.03879648919094293,0.40878148400272296
0.038847716949557735,0.40878148400272296
0.038847716949557735,0.4094622191967325
0.03888186878863427,0.4094622191967325
0.03888186878863427,0.4098025867937372
0.03900140022540214,0.4098025867937372
0.03900140022540214,0.4104833219877468
0.039035552064478674,0.4104833219877468
0.039035552064478674,0.4108236895847515
0.03905262798401694,0.4108236895847515
0.03905262798401694,0.4111640571817563
0.039155083501246545,0.4111640571817563
0.039155083501246545,0.41150442477876104
0.039257539018476145,0.41150442477876104
0.039257539018476145,0.4118447923757658
0.039377070455244016,0.4118447923757658
0.039377070455244016,0.4121851599727706
0.03941122229432055,0.4121851599727706
0.03941122229432055,0.4132062627637849
0.03949660189201189,0.4132062627637849
0.03949660189201189,0.41354663036078965
0.039547829650626684,0.41354663036078965
0.039547829650626684,0.41388699795779443
0.03961613332877976,0.41388699795779443
0.03961613332877976,0.41422736555479917
0.039667361087394555,0.41422736555479917
0.039667361087394555,0.41490810074880874
0.039684437006932825,0.41490810074880874
0.039684437006932825,0.41524846834581347
0.03975274068508589,0.41524846834581347
0.03975274068508589,0.41558883594281826
0.03983812028277723,0.41558883594281826
0.03983812028277723,0.415929203539823
0.03992349988046856,0.415929203539823
0.03992349988046856,0.41660993873383256
0.03994057580000683,0.41660993873383256
0.03994057580000683,0.4172906739278421
0.039974727639083364,0.4172906739278421
0.039974727639083364,0.4176310415248468
0.039991803558621634,0.4176310415248468
0.039991803558621634,0.4183117767188564
0.04002595539769817,0.4183117767188564
0.04002595539769817,0.4189925119128659
0.04004303131723643,0.4189925119128659
0.04004303131723643,0.41933287950987064
0.040077183156312965,0.41933287950987064
0.040077183156312965,0.4196732471068754
0.04014548683446604,0.4196732471068754
0.04014548683446604,0.42035398230088494
0.04023086643215737,0.42035398230088494
0.04023086643215737,0.42069434989788973
0.04033332194938698,0.42069434989788973
0.04033332194938698,0.42103471749489446
0.04036747378846351,0.42103471749489446
0.04036747378846351,0.42137508509189925
0.04041870154707831,0.42137508509189925
0.04041870154707831,0.42171545268890404
0.04046992930569311,0.42171545268890404
0.04046992930569311,0.42239618788291355
0.040504081144769645,0.42239618788291355
0.040504081144769645,0.4227365554799183
0.040640688501075786,0.4227365554799183
0.040640688501075786,0.4230769230769231
0.04077729585738192,0.4230769230769231
0.04077729585738192,0.42341729067392786
0.040794371776920184,0.42341729067392786
0.040794371776920184,0.4237576582709326
0.040828523615996724,0.4237576582709326
0.040828523615996724,0.4240980258679374
0.04089682729414979,0.4240980258679374
0.04089682729414979,0.4247787610619469
0.040913903213688055,0.4247787610619469
0.040913903213688055,0.4254594962559564
0.04106758648953246,0.4254594962559564
0.04106758648953246,0.4257998638529612
0.04113589016768553,0.4257998638529612
0.04113589016768553,0.426140231449966
0.0411529660872238,0.426140231449966
0.0411529660872238,0.4264805990469707
0.041238345684915134,0.4264805990469707
0.041238345684915134,0.4268209666439755
0.0412554216044534,0.4268209666439755
0.0412554216044534,0.42716133424098024
0.04128957344352993,0.42716133424098024
0.04128957344352993,0.427501701837985
0.0413066493630682,0.427501701837985
0.0413066493630682,0.4278420694349898
0.041357877121683005,0.4278420694349898
0.041357877121683005,0.42852280462899933
0.0414091048802978,0.42852280462899933
0.0414091048802978,0.42886317222600406
0.04151156039752741,0.42886317222600406
0.04151156039752741,0.42920353982300885
0.04161401591475701,0.42920353982300885
0.04161401591475701,0.43022464261402316
0.041631091834295274,0.43022464261402316
0.041631091834295274,0.4305650102110279
0.041648167753833544,0.4305650102110279
0.041648167753833544,0.4309053778080327
0.04171647143198661,0.4309053778080327
0.04171647143198661,0.43124574540503746
0.04180185102967795,0.43124574540503746
0.04180185102967795,0.4336283185840708
0.041870154707831016,0.4336283185840708
0.041870154707831016,0.43396868618107554
0.041887230627369286,0.43396868618107554
0.041887230627369286,0.4343090537780803
0.04204091390321369,0.4343090537780803
0.04204091390321369,0.4346494213750851
0.042075065742290224,0.4346494213750851
0.042075065742290224,0.43498978897208984
0.04210921758136676,0.43498978897208984
0.04210921758136676,0.43533015656909463
0.042160445339981555,0.43533015656909463
0.042160445339981555,0.43601089176310415
0.042177521259519825,0.43601089176310415
0.042177521259519825,0.43669162695711367
0.04222874901813463,0.43669162695711367
0.04222874901813463,0.43703199455411845
0.042297052696287696,0.43703199455411845
0.042297052696287696,0.43771272974812797
0.042484887811208634,0.43771272974812797
0.042484887811208634,0.43805309734513276
0.04251903965028517,0.43805309734513276
0.04251903965028517,0.4383934649421375
0.04262149516751477,0.4383934649421375
0.04262149516751477,0.4387338325391423
0.04263857108705304,0.4387338325391423
0.04263857108705304,0.4394145677331518
0.04268979884566784,0.4394145677331518
0.04268979884566784,0.4397549353301566
0.04282640620197398,0.4397549353301566
0.04282640620197398,0.4400953029271613
0.042894709880127044,0.4400953029271613
0.042894709880127044,0.4404356705241661
0.042911785799665314,0.4404356705241661
0.042911785799665314,0.4411164057181756
0.04294593763874185,0.4411164057181756
0.04294593763874185,0.44179714091218514
0.04309962091458625,0.44179714091218514
0.04309962091458625,0.4421375085091899
0.04315084867320105,0.4421375085091899
0.04315084867320105,0.4424778761061947
0.043236228270892386,0.4424778761061947
0.043236228270892386,0.44281824370319944
0.04350944298350466,0.44281824370319944
0.04350944298350466,0.44315861130020423
0.04357774666165773,0.44315861130020423
0.04357774666165773,0.44349897889720896
0.04366312625934907,0.44349897889720896
0.04366312625934907,0.44383934649421375
0.04368020217888733,0.44383934649421375
0.04368020217888733,0.44452008168822327
0.04378265769611694,0.44452008168822327
0.04378265769611694,0.44486044928522805
0.043833885454731734,0.44486044928522805
0.043833885454731734,0.4452008168822328
0.043953416891499605,0.4452008168822328
0.043953416891499605,0.4455411844792376
0.04403879648919094,0.4455411844792376
0.04403879648919094,0.4462219196732471
0.04405587240872921,0.4462219196732471
0.04405587240872921,0.4465622872702519
0.04417540384549708,0.4465622872702519
0.04417540384549708,0.4472430224642614
0.04429493528226495,0.4472430224642614
0.04429493528226495,0.4475833900612662
0.04431201120180322,0.4475833900612662
0.04431201120180322,0.4479237576582709
0.04446569447764762,0.4479237576582709
0.04446569447764762,0.4489448604492852
0.044482770397185886,0.4489448604492852
0.044482770397185886,0.44928522804629
0.04451692223626242,0.44928522804629
0.04451692223626242,0.44962559564329474
0.044568149994877224,0.44962559564329474
0.044568149994877224,0.4503063308373043
0.04461937775349203,0.4503063308373043
0.04461937775349203,0.45064669843430905
0.044670605512106824,0.45064669843430905
0.044670605512106824,0.45098706603131383
0.044687681431645095,0.45098706603131383
0.044687681431645095,0.45166780122532335
0.044807212868412966,0.45166780122532335
0.044807212868412966,0.45200816882232814
0.0448925924661043,0.45200816882232814
0.0448925924661043,0.45234853641933287
0.04497797206379563,0.45234853641933287
0.04497797206379563,0.45268890401633766
0.04508042758102524,0.45268890401633766
0.04508042758102524,0.4533696392103472
0.04530241453502271,0.4533696392103472
0.04530241453502271,0.45371000680735196
0.04543902189132885,0.45371000680735196
0.04543902189132885,0.4540503744043567
0.04547317373040538,0.4540503744043567
0.04547317373040538,0.4547311095983662
0.04554147740855845,0.4547311095983662
0.04554147740855845,0.455071477195371
0.04559270516717325,0.455071477195371
0.04559270516717325,0.4554118447923758
0.045626857006249785,0.4554118447923758
0.045626857006249785,0.4557522123893805
0.04566100884532632,0.4557522123893805
0.04566100884532632,0.45643294758339004
0.04567808476486459,0.45643294758339004
0.04567808476486459,0.4567733151803948
0.045746388443017656,0.4567733151803948
0.045746388443017656,0.4571136827773996
0.04579761620163246,0.4571136827773996
0.04579761620163246,0.45745405037440434
0.04584884396024726,0.45745405037440434
0.04584884396024726,0.45779441797140913
0.045951299477476865,0.45779441797140913
0.045951299477476865,0.45813478556841386
0.04601960315562993,0.45813478556841386
0.04601960315562993,0.45847515316541865
0.046053754994706465,0.45847515316541865
0.046053754994706465,0.45881552076242343
0.04607083091424473,0.45881552076242343
0.04607083091424473,0.45915588835942817
0.04620743827055087,0.45915588835942817
0.04620743827055087,0.45949625595643295
0.04641234930501007,0.45949625595643295
0.04641234930501007,0.45983662355343774
0.046480652983163145,0.45983662355343774
0.046480652983163145,0.46017699115044247
0.04649772890270141,0.46017699115044247
0.04649772890270141,0.460857726344452
0.046770943615313684,0.460857726344452
0.046770943615313684,0.4611980939414568
0.046788019534851955,0.4611980939414568
0.046788019534851955,0.46153846153846156
0.04682217137392849,0.46153846153846156
0.04682217137392849,0.4618788291354663
0.04692462689115809,0.4618788291354663
0.04692462689115809,0.4622191967324711
0.047095386086540764,0.4622191967324711
0.047095386086540764,0.4625595643294758
0.0473344489600765,0.4625595643294758
0.0473344489600765,0.4628999319264806
0.047419828557767836,0.4628999319264806
0.047419828557767836,0.4632402995234854
0.04767596735084184,0.4632402995234854
0.04767596735084184,0.4635806671204901
0.047710119189918375,0.4635806671204901
0.047710119189918375,0.4639210347174949
0.047727195109456645,0.4639210347174949
0.047727195109456645,0.46426140231449964
0.04774427102899491,0.46426140231449964
0.04774427102899491,0.4646017699115044
0.047829650626686246,0.4646017699115044
0.047829650626686246,0.4649421375085092
0.04788087838530105,0.4649421375085092
0.04788087838530105,0.46528250510551394
0.04791503022437758,0.46528250510551394
0.04791503022437758,0.46562287270251873
0.04793210614391585,0.46562287270251873
0.04793210614391585,0.46664397549353304
0.04794918206345412,0.46664397549353304
0.04794918206345412,0.46732471068754255
0.04806871350022199,0.46732471068754255
0.04806871350022199,0.4676650782845473
0.048137017178375055,0.4676650782845473
0.048137017178375055,0.4686861810755616
0.048154093097913325,0.4686861810755616
0.048154093097913325,0.4690265486725664
0.04827362453468119,0.4690265486725664
0.04827362453468119,0.4693669162695711
0.04830777637375773,0.4693669162695711
0.04830777637375773,0.4697072838665759
0.04839315597144906,0.4697072838665759
0.04839315597144906,0.4700476514635807
0.048427307810525594,0.4700476514635807
0.048427307810525594,0.4707283866575902
0.048444383730063864,0.4707283866575902
0.048444383730063864,0.471068754254595
0.048563915166831735,0.471068754254595
0.048563915166831735,0.4714091218515997
0.04858099108637,0.4714091218515997
0.04858099108637,0.4717494894486045
0.04861514292544653,0.4717494894486045
0.04861514292544653,0.472430224642614
0.04864929476452307,0.472430224642614
0.04864929476452307,0.47311095983662355
0.0487346743622144,0.47311095983662355
0.0487346743622144,0.47345132743362833
0.04917864827020935,0.47345132743362833
0.04917864827020935,0.47379169503063306
0.049281103787438954,0.47379169503063306
0.049281103787438954,0.47413206262763785
0.04929817970697722,0.47413206262763785
0.04929817970697722,0.47447243022464264
0.049383559304668555,0.47447243022464264
0.049383559304668555,0.47515316541865216
0.04941771114374509,0.47515316541865216
0.04941771114374509,0.4758339006126617
0.04945186298282162,0.4758339006126617
0.04945186298282162,0.47617426820966646
0.04948601482189816,0.47617426820966646
0.04948601482189816,0.4765146358066712
0.0496738499368191,0.4765146358066712
0.0496738499368191,0.476855003403676
0.049827533212663505,0.476855003403676
0.049827533212663505,0.478216473791695
0.04984460913220177,0.478216473791695
0.04984460913220177,0.4785568413886998
0.05004952016666098,0.4785568413886998
0.05004952016666098,0.47889720898570454
0.050100747925275774,0.47889720898570454
0.050100747925275774,0.4792375765827093
0.05025443120112018,0.4792375765827093
0.05025443120112018,0.4795779441797141
0.05037396263788805,0.4795779441797141
0.05037396263788805,0.48025867937372363
0.05056179775280899,0.48025867937372363
0.05056179775280899,0.48059904697072836
0.05057887367234726,0.48059904697072836
0.05057887367234726,0.48093941456773315
0.05069840510911513,0.48093941456773315
0.05069840510911513,0.48127978216473793
0.050869164304497796,0.48127978216473793
0.050869164304497796,0.48162014976174267
0.0510228475803422,0.48162014976174267
0.0510228475803422,0.4823008849557522
0.05103992349988047,0.4823008849557522
0.05103992349988047,0.48264125255275697
0.05110822717803354,0.48264125255275697
0.05110822717803354,0.48298162014976176
0.05114237901711007,0.48298162014976176
0.05114237901711007,0.4836623553437713
0.051159454936648335,0.4836623553437713
0.051159454936648335,0.48400272294077606
0.05124483453433967,0.48400272294077606
0.05124483453433967,0.4843430905377808
0.05129606229295448,0.4843430905377808
0.05129606229295448,0.4846834581347856
0.05133021413203101,0.4846834581347856
0.05133021413203101,0.4850238257317903
0.051364365971107544,0.4850238257317903
0.051364365971107544,0.4853641933287951
0.05150097332741368,0.4853641933287951
0.05150097332741368,0.4857045609257999
0.05155220108602848,0.4857045609257999
0.05155220108602848,0.4860449285228046
0.05163758068371982,0.4860449285228046
0.05163758068371982,0.4863852961198094
0.05165465660325808,0.4863852961198094
0.05165465660325808,0.48672566371681414
0.05168880844233462,0.48672566371681414
0.05168880844233462,0.4870660313138189
0.051705884361872886,0.4870660313138189
0.051705884361872886,0.48774676650782844
0.05175711212048769,0.48774676650782844
0.05175711212048769,0.48808713410483323
0.05192787131587036,0.48808713410483323
0.05192787131587036,0.48842750170183796
0.051996174994023425,0.48842750170183796
0.051996174994023425,0.48876786929884275
0.052013250913561695,0.48876786929884275
0.052013250913561695,0.48944860449285227
0.052030326833099966,0.48944860449285227
0.052030326833099966,0.4901293396868618
0.052132782350329566,0.4901293396868618
0.052132782350329566,0.4904697072838666
0.0521669341894061,0.4904697072838666
0.0521669341894061,0.4911504424778761
0.052201086028482634,0.4911504424778761
0.052201086028482634,0.4918311776718856
0.05228646562617397,0.4918311776718856
0.05228646562617397,0.4921715452688904
0.05250845258017144,0.4921715452688904
0.05250845258017144,0.4928522804628999
0.05269628769509238,0.4928522804628999
0.05269628769509238,0.49353301565690944
0.05288412281001332,0.49353301565690944
0.05288412281001332,0.494213750850919
0.052952426488166386,0.494213750850919
0.052952426488166386,0.4952348536419333
0.053037806085857724,0.4952348536419333
0.053037806085857724,0.49591558883594283
0.05312318568354906,0.49591558883594283
0.05312318568354906,0.49625595643294756
0.053140261603087324,0.49625595643294756
0.053140261603087324,0.49659632402995235
0.05317441344216386,0.49659632402995235
0.05317441344216386,0.49693669162695714
0.05324271712031693,0.49693669162695714
0.05324271712031693,0.49727705922396187
0.05329394487893173,0.49727705922396187
0.05329394487893173,0.49761742682096666
0.05331102079847,0.49761742682096666
0.05331102079847,0.4979577944179714
0.053379324476623066,0.4979577944179714
0.053379324476623066,0.49863852961198096
0.053396400396161336,0.49863852961198096
0.053396400396161336,0.4989788972089857
0.05344762815477613,0.4989788972089857
0.05344762815477613,0.4996596324029952
0.053567159591544004,0.4996596324029952
0.053567159591544004,0.5
0.05370376694785014,0.5
0.05370376694785014,0.5003403675970047
0.05392575390184762,0.5003403675970047
0.05392575390184762,0.501361470388019
0.053976981660462414,0.501361470388019
0.053976981660462414,0.5017018379850239
0.053994057580000684,0.5017018379850239
0.053994057580000684,0.5020422055820286
0.05406236125815375,0.5020422055820286
0.05406236125815375,0.5023825731790333
0.05414774085584509,0.5023825731790333
0.05414774085584509,0.5027229407760381
0.054301424131689494,0.5027229407760381
0.054301424131689494,0.5030633083730429
0.05435265189030429,0.5030633083730429
0.05435265189030429,0.5034036759700476
0.05436972780984256,0.5034036759700476
0.05436972780984256,0.5037440435670524
0.05476247395922271,0.5037440435670524
0.05476247395922271,0.5040844111640572
0.05488200539599057,0.5040844111640572
0.05488200539599057,0.5047651463580667
0.05501861275229671,0.5047651463580667
0.05501861275229671,0.5051055139550715
0.055035688671834976,0.5051055139550715
0.055035688671834976,0.5061266167460857
0.05515522010860285,0.5061266167460857
0.05515522010860285,0.5064669843430906
0.055240599706294184,0.5064669843430906
0.055240599706294184,0.5071477195371
0.055257675625832454,0.5071477195371
0.055257675625832454,0.5074880871341049
0.055360131143062055,0.5074880871341049
0.055360131143062055,0.5078284547311096
0.05539428298213859,0.5078284547311096
0.05539428298213859,0.5081688223281143
0.05544551074075339,0.5081688223281143
0.05544551074075339,0.5085091899251192
0.055479662579829926,0.5085091899251192
0.055479662579829926,0.5091899251191286
0.05554796625798299,0.5091899251191286
0.05554796625798299,0.5098706603131382
0.05568457361428913,0.5098706603131382
0.05568457361428913,0.510211027910143
0.05573580137290393,0.510211027910143
0.05573580137290393,0.5105513955071477
0.05582118097059527,0.5105513955071477
0.05582118097059527,0.5112321307011573
0.0558553328096718,0.5112321307011573
0.0558553328096718,0.511572498298162
0.05592363648782487,0.511572498298162
0.05592363648782487,0.5122532334921716
0.0559577883269014,0.5122532334921716
0.0559577883269014,0.5129339686861811
0.05599194016597794,0.5129339686861811
0.05599194016597794,0.5132743362831859
0.05600901608551621,0.5132743362831859
0.05600901608551621,0.5136147038801906
0.056077319763669274,0.5136147038801906
0.056077319763669274,0.5139550714771953
0.05609439568320754,0.5139550714771953
0.05609439568320754,0.5142954390742002
0.05611147160274581,0.5142954390742002
0.05611147160274581,0.5146358066712049
0.05616269936136061,0.5146358066712049
0.05616269936136061,0.5149761742682096
0.05623100303951368,0.5149761742682096
0.05623100303951368,0.5153165418652145
0.05626515487859021,0.5153165418652145
0.05626515487859021,0.5156569094622192
0.056316382637205016,0.5156569094622192
0.056316382637205016,0.5159972770592239
0.05633345855674328,0.5159972770592239
0.05633345855674328,0.5166780122532335
0.05636761039581981,0.5166780122532335
0.05636761039581981,0.5170183798502382
0.05647006591304942,0.5170183798502382
0.05647006591304942,0.517358747447243
0.056504217752125954,0.517358747447243
0.056504217752125954,0.5176991150442478
0.056589597349817285,0.5176991150442478
0.056589597349817285,0.5180394826412525
0.05667497694750862,0.5180394826412525
0.05667497694750862,0.5183798502382573
0.05677743246473822,0.5183798502382573
0.05677743246473822,0.5187202178352621
0.0568457361428913,0.5187202178352621
0.0568457361428913,0.5194009530292716
0.05698234349919743,0.5194009530292716
0.05698234349919743,0.5197413206262764
0.057016495338273965,0.5197413206262764
0.057016495338273965,0.5200816882232812
0.057153102694580106,0.5200816882232812
0.057153102694580106,0.5204220558202859
0.05717017861411837,0.5204220558202859
0.05717017861411837,0.5207624234172906
0.0572043304531949,0.5207624234172906
0.0572043304531949,0.5211027910142955
0.05725555821180971,0.5211027910142955
0.05725555821180971,0.5214431586113002
0.05727263413134797,0.5214431586113002
0.05727263413134797,0.5217835262083049
0.057426317407192375,0.5217835262083049
0.057426317407192375,0.5221238938053098
0.05746046924626891,0.5221238938053098
0.05746046924626891,0.5224642614023145
0.05747754516580718,0.5224642614023145
0.05747754516580718,0.5228046289993192
0.05751169700488371,0.5228046289993192
0.05751169700488371,0.5234853641933288
0.05752877292442198,0.5234853641933288
0.05752877292442198,0.5238257317903335
0.05766538028072812,0.5238257317903335
0.05766538028072812,0.5248468345813478
0.05771660803934292,0.5248468345813478
0.05771660803934292,0.5251872021783526
0.05776783579795772,0.5251872021783526
0.05776783579795772,0.5262083049693669
0.05790444315426386,0.5262083049693669
0.05790444315426386,0.5265486725663717
0.05792151907380212,0.5265486725663717
0.05792151907380212,0.5268890401633765
0.057955670912878655,0.5268890401633765
0.057955670912878655,0.5272294077603812
0.057972746832416926,0.5272294077603812
0.057972746832416926,0.5279101429543908
0.057989822751955196,0.5279101429543908
0.057989822751955196,0.5282505105513955
0.05805812643010826,0.5282505105513955
0.05805812643010826,0.5285908781484002
0.05822888562549093,0.5285908781484002
0.05822888562549093,0.5289312457454051
0.05833134114272054,0.5289312457454051
0.05833134114272054,0.5292716133424098
0.05843379665995014,0.5292716133424098
0.05843379665995014,0.5296119809394145
0.058502100338103206,0.5296119809394145
0.058502100338103206,0.5299523485364194
0.05872408729210068,0.5299523485364194
0.05872408729210068,0.5302927161334241
0.05877531505071548,0.5302927161334241
0.05877531505071548,0.5306330837304288
0.05884361872886855,0.5306330837304288
0.05884361872886855,0.5309734513274337
0.05886069464840682,0.5309734513274337
0.05886069464840682,0.5313138189244384
0.05889484648748335,0.5313138189244384
0.05889484648748335,0.5319945541184479
0.05892899832655989,0.5319945541184479
0.05892899832655989,0.5326752893124574
0.05894607424609815,0.5326752893124574
0.05894607424609815,0.5330156569094622
0.059116833441480825,0.5330156569094622
0.059116833441480825,0.533356024506467
0.059407124073631364,0.533356024506467
0.059407124073631364,0.5340367597004765
0.0594412759127079,0.5340367597004765
0.0594412759127079,0.5343771272974813
0.05945835183224617,0.5343771272974813
0.05945835183224617,0.5350578624914908
0.059526655510399235,0.5350578624914908
0.059526655510399235,0.5353982300884956
0.05957788326901404,0.5353982300884956
0.05957788326901404,0.5360789652825051
0.05961203510809057,0.5360789652825051
0.05961203510809057,0.5374404356705241
0.059629111027628835,0.5374404356705241
0.059629111027628835,0.5381211708645337
0.05966326286670537,0.5381211708645337
0.05966326286670537,0.5384615384615384
0.05969741470578191,0.5384615384615384
0.05969741470578191,0.5388019060585433
0.05971449062532017,0.5388019060585433
0.05971449062532017,0.5394826412525527
0.059765718383934976,0.5394826412525527
0.059765718383934976,0.5398230088495575
0.05978279430347324,0.5398230088495575
0.05978279430347324,0.5401633764465623
0.05979987022301151,0.5401633764465623
0.05979987022301151,0.540503744043567
0.059834022062088044,0.540503744043567
0.059834022062088044,0.5411844792375766
0.059936477579317644,0.5411844792375766
0.059936477579317644,0.5415248468345814
0.06003893309654725,0.5415248468345814
0.06003893309654725,0.5418652144315861
0.06012431269423858,0.5418652144315861
0.06012431269423858,0.5422055820285909
0.060158464533315116,0.5422055820285909
0.060158464533315116,0.5425459496255957
0.06032922372869779,0.5425459496255957
0.06032922372869779,0.54356705241661
0.06039752740685086,0.54356705241661
0.06039752740685086,0.5439074200136147
0.06041460332638913,0.5439074200136147
0.06041460332638913,0.5442477876106194
0.060465831085003925,0.5442477876106194
0.060465831085003925,0.5445881552076243
0.06070489395853967,0.5445881552076243
0.06070489395853967,0.544928522804629
0.06072196987807794,0.544928522804629
0.06072196987807794,0.5456092579986386
0.0607390457976162,0.5456092579986386
0.0607390457976162,0.5459496255956433
0.0608415013148458,0.5459496255956433
0.0608415013148458,0.546289993192648
0.060909804992998876,0.546289993192648
0.060909804992998876,0.5473110959836623
0.06096103275161367,0.5473110959836623
0.06096103275161367,0.5476514635806671
0.061097640107919814,0.5476514635806671
0.061097640107919814,0.5486725663716814
0.06111471602745808,0.5486725663716814
0.06111471602745808,0.5490129339686862
0.06113179194699635,0.5490129339686862
0.06113179194699635,0.549353301565691
0.06114886786653461,0.549353301565691
0.06114886786653461,0.5500340367597005
0.06116594378607288,0.5500340367597005
0.06116594378607288,0.55071477195371
0.061183019705611144,0.55071477195371
0.061183019705611144,0.5510551395507147
0.061200095625149414,0.5510551395507147
0.061200095625149414,0.5517358747447243
0.06123424746422595,0.5517358747447243
0.06123424746422595,0.552076242341729
0.06133670298145555,0.552076242341729
0.06133670298145555,0.5527569775357386
0.06138793074007035,0.5527569775357386
0.06138793074007035,0.5530973451327433
0.061422082579146886,0.5530973451327433
0.061422082579146886,0.5534377127297482
0.06154161401591476,0.5534377127297482
0.06154161401591476,0.5537780803267529
0.061609917694067824,0.5537780803267529
0.061609917694067824,0.5541184479237576
0.0617806768894505,0.5541184479237576
0.0617806768894505,0.5547991831177672
0.06179775280898876,0.5547991831177672
0.06179775280898876,0.555139550714772
0.061848980567603566,0.555139550714772
0.061848980567603566,0.5554799183117767
0.06186605648714183,0.5554799183117767
0.06186605648714183,0.5558202859087815
0.06191728424575663,0.5558202859087815
0.06191728424575663,0.5561606535057863
0.06200266384344797,0.5561606535057863
0.06200266384344797,0.5568413886997958
0.062036815682524504,0.5568413886997958
0.062036815682524504,0.5571817562968006
0.06212219528021584,0.5571817562968006
0.06212219528021584,0.5575221238938053
0.06217342303883064,0.5575221238938053
0.06217342303883064,0.55786249149081
0.06224172671698371,0.55786249149081
0.06224172671698371,0.5582028590878149
0.06231003039513678,0.5582028590878149
0.06231003039513678,0.5585432266848196
0.06234418223421331,0.5585432266848196
0.06234418223421331,0.5588835942818243
0.06241248591236638,0.5588835942818243
0.06241248591236638,0.5592239618788292
0.06248078959051945,0.5592239618788292
0.06248078959051945,0.5595643294758339
0.06253201734913424,0.5595643294758339
0.06253201734913424,0.5599046970728386
0.06260032102728733,0.5599046970728386
0.06260032102728733,0.5605854322668482
0.06266862470544039,0.5605854322668482
0.06266862470544039,0.5612661674608578
0.06275400430313173,0.5612661674608578
0.06275400430313173,0.5616065350578625
0.06277108022266999,0.5616065350578625
0.06277108022266999,0.5619469026548672
0.06278815614220826,0.5619469026548672
0.06278815614220826,0.562287270251872
0.063027219015744,0.562287270251872
0.063027219015744,0.5626276378488768
0.06304429493528227,0.5626276378488768
0.06304429493528227,0.5629680054458815
0.06306137085482053,0.5629680054458815
0.06306137085482053,0.5633083730428863
0.0630784467743588,0.5633083730428863
0.0630784467743588,0.5636487406398911
0.06314675045251186,0.5636487406398911
0.06314675045251186,0.5639891082368959
0.06319797821112667,0.5639891082368959
0.06319797821112667,0.5643294758339006
0.0632321300502032,0.5643294758339006
0.0632321300502032,0.5646698434309054
0.06335166148697108,0.5646698434309054
0.06335166148697108,0.5653505786249149
0.06341996516512415,0.5653505786249149
0.06341996516512415,0.5656909462219196
0.06343704108466242,0.5656909462219196
0.06343704108466242,0.5660313138189245
0.06353949660189201,0.5660313138189245
0.06353949660189201,0.5663716814159292
0.06369317987773641,0.5663716814159292
0.06369317987773641,0.5667120490129339
0.06371025579727468,0.5667120490129339
0.06371025579727468,0.5670524166099388
0.06372733171681295,0.5670524166099388
0.06372733171681295,0.5673927842069435
0.06374440763635121,0.5673927842069435
0.06374440763635121,0.5680735194009531
0.06389809091219562,0.5680735194009531
0.06389809091219562,0.5684138869979578
0.06394931867081043,0.5684138869979578
0.06394931867081043,0.5690946221919673
0.06400054642942522,0.5690946221919673
0.06400054642942522,0.5694349897889721
0.06406885010757829,0.5694349897889721
0.06406885010757829,0.5697753573859768
0.0641200778661931,0.5697753573859768
0.0641200778661931,0.5701157249829816
0.06413715378573136,0.5701157249829816
0.06413715378573136,0.5704560925799864
0.0641713056248079,0.5704560925799864
0.0641713056248079,0.5707964601769911
0.0642225333834227,0.5707964601769911
0.0642225333834227,0.5711368277739959
0.06429083706157576,0.5711368277739959
0.06429083706157576,0.5714771953710007
0.06430791298111403,0.5714771953710007
0.06430791298111403,0.5721579305650102
0.0643249889006523,0.5721579305650102
0.0643249889006523,0.572498298162015
0.06435914073972883,0.572498298162015
0.06435914073972883,0.5728386657590198
0.06449574809603498,0.5728386657590198
0.06449574809603498,0.5731790333560245
0.06456405177418804,0.5731790333560245
0.06456405177418804,0.5738597685500341
0.06463235545234111,0.5738597685500341
0.06463235545234111,0.5742001361470388
0.06464943137187938,0.5742001361470388
0.06464943137187938,0.5745405037440435
0.06470065913049418,0.5745405037440435
0.06470065913049418,0.5755616065350578
0.06490557016495338,0.5755616065350578
0.06490557016495338,0.5759019741320627
0.06492264608449165,0.5759019741320627
0.06492264608449165,0.5762423417290674
0.06507632936033605,0.5762423417290674
0.06507632936033605,0.5765827093260721
0.06521293671664219,0.5765827093260721
0.06521293671664219,0.5769230769230769
0.06526416447525699,0.5769230769230769
0.06526416447525699,0.5772634445200817
0.06529831631433353,0.5772634445200817
0.06529831631433353,0.5776038121170864
0.06540077183156313,0.5776038121170864
0.06540077183156313,0.5779441797140912
0.0654690755097162,0.5779441797140912
0.0654690755097162,0.578284547311096
0.06550322734879273,0.578284547311096
0.06550322734879273,0.5786249149081008
0.06558860694648407,0.5786249149081008
0.06558860694648407,0.5789652825051055
0.06574229022232847,0.5789652825051055
0.06574229022232847,0.5796460176991151
0.06586182165909635,0.5796460176991151
0.06586182165909635,0.5803267528931245
0.06596427717632594,0.5803267528931245
0.06596427717632594,0.5810074880871341
0.06606673269355555,0.5810074880871341
0.06606673269355555,0.5813478556841388
0.06608380861309382,0.5813478556841388
0.06608380861309382,0.5816882232811437
0.06618626413032341,0.5816882232811437
0.06618626413032341,0.5820285908781484
0.06620334004986168,0.5820285908781484
0.06620334004986168,0.5823689584751531
0.06623749188893822,0.5823689584751531
0.06623749188893822,0.582709326072158
0.06632287148662956,0.582709326072158
0.06632287148662956,0.5830496936691627
0.06644240292339743,0.5830496936691627
0.06644240292339743,0.5837304288631723
0.06647655476247397,0.5837304288631723
0.06647655476247397,0.584070796460177
0.06656193436016529,0.584070796460177
0.06656193436016529,0.5844111640571817
0.0666131621187801,0.5844111640571817
0.0666131621187801,0.5850918992511913
0.06664731395785663,0.5850918992511913
0.06664731395785663,0.585432266848196
0.06673269355554796,0.585432266848196
0.06673269355554796,0.5861130020422056
0.06674976947508623,0.5861130020422056
0.06674976947508623,0.5864533696392104
0.0667668453946245,0.5864533696392104
0.0667668453946245,0.5867937372362151
0.06680099723370103,0.5867937372362151
0.06680099723370103,0.5871341048332199
0.0668693009118541,0.5871341048332199
0.0668693009118541,0.5878148400272294
0.06690345275093064,0.5878148400272294
0.06690345275093064,0.5881552076242341
0.06698883234862198,0.5881552076242341
0.06698883234862198,0.588495575221239
0.0670229841876985,0.588495575221239
0.0670229841876985,0.5888359428182437
0.06714251562446638,0.5888359428182437
0.06714251562446638,0.5891763104152484
0.06715959154400465,0.5891763104152484
0.06715959154400465,0.589857045609258
0.06721081930261945,0.589857045609258
0.06721081930261945,0.5901974132062627
0.06738157849800212,0.5901974132062627
0.06738157849800212,0.5905377808032676
0.06743280625661692,0.5905377808032676
0.06743280625661692,0.5908781484002723
0.06753526177384653,0.5908781484002723
0.06753526177384653,0.591218515997277
0.067757248727844,0.591218515997277
0.067757248727844,0.5918992511912866
0.06784262832553534,0.5918992511912866
0.06784262832553534,0.5922396187882913
0.06789385608415013,0.5922396187882913
0.06789385608415013,0.5925799863852961
0.06804753935999454,0.5925799863852961
0.06804753935999454,0.5929203539823009
0.06808169119907106,0.5929203539823009
0.06808169119907106,0.5932607215793056
0.06814999487722413,0.5932607215793056
0.06814999487722413,0.5936010891763104
0.06820122263583894,0.5936010891763104
0.06820122263583894,0.59428182437032
0.06825245039445374,0.59428182437032
0.06825245039445374,0.5946221919673247
0.0683207540726068,0.5946221919673247
0.0683207540726068,0.5949625595643295
0.06840613367029814,0.5949625595643295
0.06840613367029814,0.5953029271613343
0.06842320958983641,0.5953029271613343
0.06842320958983641,0.595643294758339
0.06845736142891294,0.595643294758339
0.06845736142891294,0.5963240299523486
0.06859396878521909,0.5963240299523486
0.06859396878521909,0.5966643975493533
0.06871350022198695,0.5966643975493533
0.06871350022198695,0.597004765146358
0.06876472798060175,0.597004765146358
0.06876472798060175,0.5973451327433629
0.0689013353369079,0.5973451327433629
0.0689013353369079,0.5976855003403676
0.06902086677367576,0.5976855003403676
0.06902086677367576,0.5980258679373723
0.06914039821044363,0.5980258679373723
0.06914039821044363,0.5983662355343772
0.06917455004952017,0.5983662355343772
0.06917455004952017,0.5987066031313819
0.06929408148628803,0.5987066031313819
0.06929408148628803,0.5990469707283866
0.06934530924490284,0.5990469707283866
0.06934530924490284,0.5993873383253914
0.06943068884259418,0.5993873383253914
0.06943068884259418,0.5997277059223962
0.06949899252074725,0.5997277059223962
0.06949899252074725,0.600068073519401
0.06961852395751511,0.600068073519401
0.06961852395751511,0.6004084411164057
0.06963559987705338,0.6004084411164057
0.06966975171612991,0.6004084411164057
0.06977220723335952,0.6004084411164057
0.06977220723335952,0.6007488087134105
0.06985758683105085,0.6007488087134105
0.06985758683105085,0.6010891763104153
0.06989173867012739,0.6010891763104153
0.06989173867012739,0.60142954390742
0.06992589050920392,0.60142954390742
0.06992589050920392,0.6017699115044248
0.07021618114135446,0.6017699115044248
0.07021618114135446,0.6021102791014296
0.0703015607390458,0.6021102791014296
0.0703015607390458,0.602791014295439
0.07038694033673713,0.602791014295439
0.07038694033673713,0.6031313818924439
0.0706089272907346,0.6031313818924439
0.0706089272907346,0.6034717494894486
0.07067723096888767,0.6034717494894486
0.07067723096888767,0.6038121170864533
0.07071138280796421,0.6038121170864533
0.07071138280796421,0.6041524846834582
0.07076261056657901,0.6041524846834582
0.07076261056657901,0.6044928522804629
0.07089921792288514,0.6044928522804629
0.07089921792288514,0.6055139550714772
0.07091629384242341,0.6055139550714772
0.07091629384242341,0.6058543226684819
0.07113828079642089,0.6058543226684819
0.07113828079642089,0.6061946902654868
0.07115535671595916,0.6061946902654868
0.07115535671595916,0.6065350578624915
0.07127488815272702,0.6065350578624915
0.07127488815272702,0.607215793056501
0.07134319183088009,0.607215793056501
0.07134319183088009,0.6075561606535058
0.07141149550903317,0.6075561606535058
0.07141149550903317,0.6078965282505105
0.07163348246303064,0.6078965282505105
0.07163348246303064,0.6082368958475153
0.07170178614118371,0.6082368958475153
0.07170178614118371,0.6085772634445201
0.07177008981933677,0.6085772634445201
0.07177008981933677,0.6089176310415249
0.07206038045148731,0.6089176310415249
0.07206038045148731,0.6092579986385296
0.07209453229056385,0.6092579986385296
0.07209453229056385,0.6095983662355344
0.07214576004917865,0.6095983662355344
0.07214576004917865,0.6099387338325392
0.07245312660086746,0.6099387338325392
0.07245312660086746,0.6102791014295439
0.0725897339571736,0.6102791014295439
0.0725897339571736,0.6106194690265486
0.07265803763532666,0.6106194690265486
0.07265803763532666,0.6109598366235535
0.0726921894744032,0.6109598366235535
0.0726921894744032,0.6113002042205582
0.07281172091117107,0.6113002042205582
0.07281172091117107,0.6116405718175629
0.07306785970424508,0.6116405718175629
0.07308493562378333,0.6119809394145678
0.07325569481916601,0.6119809394145678
0.07325569481916601,0.6126616746085772
0.07337522625593389,0.6126616746085772
0.07337522625593389,0.6130020422055821
0.07349475769270175,0.6130020422055821
0.07349475769270175,0.6133424098025868
0.07356306137085482,0.6133424098025868
0.07356306137085482,0.6136827773995915
0.07363136504900789,0.6136827773995915
0.07363136504900789,0.6140231449965963
0.07371674464669922,0.6140231449965963
0.07371674464669922,0.6143635125936011
0.0739387316006967,0.6143635125936011
0.0739387316006967,0.6147038801906058
0.07407533895700283,0.6147038801906058
0.07407533895700283,0.6153846153846154
0.07417779447423244,0.6153846153846154
0.07417779447423244,0.6157249829816202
0.07434855366961511,0.6157249829816202
0.07434855366961511,0.6160653505786249
0.07443393326730645,0.6160653505786249
0.07443393326730645,0.6164057181756297
0.07451931286499779,0.6164057181756297
0.07451931286499779,0.6167460857726345
0.07457054062361258,0.6167460857726345
0.07457054062361258,0.6170864533696392
0.07475837573853351,0.6170864533696392
0.07475837573853351,0.617426820966644
0.07477545165807178,0.617426820966644
0.07477545165807178,0.6177671885636488
0.07486083125576312,0.6177671885636488
0.07486083125576312,0.6181075561606535
0.07530480516375807,0.6181075561606535
0.07530480516375807,0.6184479237576582
0.07554386803729381,0.6184479237576582
0.07554386803729381,0.6187882913546631
0.07557801987637035,0.6187882913546631
0.07557801987637035,0.6194690265486725
0.07585123458898262,0.6194690265486725
0.07585123458898262,0.6201497617426821
0.07590246234759741,0.6201497617426821
0.07590246234759741,0.6208304969366917
0.07593661418667395,0.6208304969366917
0.07593661418667395,0.6211708645336964
0.07634643625559237,0.6211708645336964
0.07634643625559237,0.6215112321307011
0.07639766401420717,0.6215112321307011
0.07639766401420717,0.6221919673247107
0.07641473993374544,0.6221919673247107
0.07641473993374544,0.6225323349217154
0.07656842320958984,0.6225323349217154
0.07656842320958984,0.6228727025187202
0.07660257504866637,0.6228727025187202
0.07660257504866637,0.623213070115725
0.07663672688774291,0.623213070115725
0.07663672688774291,0.6235534377127298
0.07667087872681944,0.6235534377127298
0.07667087872681944,0.6238938053097345
0.07672210648543425,0.6238938053097345
0.07672210648543425,0.6242341729067393
0.07682456200266384,0.6242341729067393
0.07682456200266384,0.6245745405037441
0.07701239711758479,0.6245745405037441
0.07701239711758479,0.6249149081007488
0.07704654895666131,0.6249149081007488
0.07704654895666131,0.6252552756977535
0.07706362487619958,0.6252552756977535
0.07706362487619958,0.6259360108917631
0.07743929510604146,0.6259360108917631
0.07743929510604146,0.6262763784887678
0.07754175062327107,0.6262763784887678
0.07754175062327107,0.6266167460857727
0.077729585738192,0.6266167460857727
0.077729585738192,0.6269571136827774
0.07779788941634506,0.6269571136827774
0.07779788941634506,0.6279782164737917
0.07790034493357467,0.6279782164737917
0.07790034493357467,0.628999319264806
0.07812233188757214,0.628999319264806
0.07812233188757214,0.6293396868618107
0.07822478740480175,0.6293396868618107
0.07822478740480175,0.6296800544588155
0.07834431884156962,0.6296800544588155
0.07834431884156962,0.6300204220558203
0.07842969843926095,0.6300204220558203
0.07842969843926095,0.630360789652825
0.07844677435879922,0.630360789652825
0.07844677435879922,0.6307011572498298
0.07868583723233497,0.6307011572498298
0.07868583723233497,0.6310415248468346
0.07875414091048803,0.6310415248468346
0.07875414091048803,0.6313818924438394
0.07895905194494723,0.6313818924438394
0.07895905194494723,0.6317222600408441
0.07906150746217684,0.6317222600408441
0.07906150746217684,0.6324029952348537
0.07912981114032991,0.6324029952348537
0.07912981114032991,0.6327433628318584
0.07947132953109524,0.6327433628318584
0.07947132953109524,0.6330837304288631
0.07957378504832485,0.6330837304288631
0.07957378504832485,0.633424098025868
0.07974454424370753,0.633424098025868
0.07974454424370753,0.6337644656228727
0.08061541614015914,0.6337644656228727
0.08061541614015914,0.6341048332198774
0.08076909941600355,0.6341048332198774
0.08076909941600355,0.6344452008168823
0.08087155493323316,0.6344452008168823
0.08087155493323316,0.634785568413887
0.08124722516307503,0.634785568413887
0.08124722516307503,0.6351259360108917
0.08133260476076637,0.6351259360108917
0.08133260476076637,0.6358066712049013
0.08134968068030464,0.6358066712049013
0.08134968068030464,0.636147038801906
0.08143506027799598,0.636147038801906
0.08143506027799598,0.6364874063989108
0.08150336395614904,0.6364874063989108
0.08150336395614904,0.6368277739959156
0.08160581947337864,0.6368277739959156
0.08160581947337864,0.6371681415929203
0.08177657866876131,0.6371681415929203
0.08177657866876131,0.6375085091899251
0.08181073050783785,0.6375085091899251
0.08181073050783785,0.6378488767869299
0.08184488234691438,0.6378488767869299
0.08184488234691438,0.6381892443839347
0.08187903418599092,0.6381892443839347
0.08187903418599092,0.6385296119809394
0.08196441378368226,0.6385296119809394
0.08196441378368226,0.6388699795779442
0.08201564154229705,0.6388699795779442
0.08201564154229705,0.639210347174949
0.08213517297906492,0.639210347174949
0.08213517297906492,0.6395507147719537
0.08215224889860319,0.6395507147719537
0.08215224889860319,0.6398910823689585
0.08216932481814146,0.6398910823689585
0.08216932481814146,0.6402314499659633
0.08249376728936854,0.6402314499659633
0.08249376728936854,0.640571817562968
0.0825108432089068,0.640571817562968
0.0825108432089068,0.6409121851599727
0.08254499504798334,0.6409121851599727
0.08254499504798334,0.6412525527569776
0.0826645264847512,0.6412525527569776
0.0826645264847512,0.6415929203539823
0.08269867832382774,0.6415929203539823
0.08269867832382774,0.641933287950987
0.08273283016290427,0.641933287950987
0.08273283016290427,0.6422736555479919
0.08322803182951402,0.6422736555479919
0.08322803182951402,0.6426140231449966
0.08324510774905229,0.6426140231449966
0.08324510774905229,0.6429543907420013
0.08329633550766709,0.6429543907420013
0.08329633550766709,0.6432947583390062
0.0833987910248967,0.6432947583390062
0.0833987910248967,0.6436351259360109
0.0836037020593559,0.6436351259360109
0.0836037020593559,0.6439754935330156
0.08389399269150644,0.6439754935330156
0.08389399269150644,0.6443158611300204
0.08426966292134831,0.6443158611300204
0.08426966292134831,0.6446562287270252
0.08449164987534578,0.6446562287270252
0.08449164987534578,0.64499659632403
0.08464533315119019,0.64499659632403
0.08464533315119019,0.6453369639210347
0.0847990164270346,0.6453369639210347
0.0847990164270346,0.6456773315180395
0.0851063829787234,0.6456773315180395
0.0851063829787234,0.6460176991150443
0.08512345889826167,0.6460176991150443
0.08512345889826167,0.646358066712049
0.08536252177179741,0.646358066712049
0.08536252177179741,0.6466984343090538
0.08556743280625662,0.6466984343090538
0.08556743280625662,0.6470388019060586
0.08572111608210102,0.6470388019060586
0.08572111608210102,0.647719537100068
0.08592602711656022,0.647719537100068
0.08592602711656022,0.6480599046970729
0.08602848263378983,0.6480599046970729
0.08602848263378983,0.6484002722940776
0.08635292510501691,0.6484002722940776
0.08635292510501691,0.6487406398910823
0.08643830470270825,0.6487406398910823
0.08643830470270825,0.6497617426820966
0.08667736757624397,0.6497617426820966
0.08667736757624397,0.6504424778761062
0.08674567125439706,0.6504424778761062
0.08674567125439706,0.6507828454731109
0.08695058228885626,0.6507828454731109
0.08695058228885626,0.6511232130701157
0.08712134148423893,0.6511232130701157
0.08712134148423893,0.6514635806671205
0.087189645162392,0.6514635806671205
0.087189645162392,0.6518039482641252
0.0873945561968512,0.6518039482641252
0.0873945561968512,0.65214431586113
0.08802636521976709,0.65214431586113
0.08802636521976709,0.6524846834581348
0.08811174481745843,0.6524846834581348
0.08811174481745843,0.6528250510551395
0.0881800484956115,0.6528250510551395
0.0881800484956115,0.6531654186521443
0.0887435538403743,0.6531654186521443
0.0887435538403743,0.6535057862491491
0.08876062975991257,0.6535057862491491
0.08876062975991257,0.6538461538461539
0.08884600935760391,0.6538461538461539
0.08884600935760391,0.6541865214431586
0.08905092039206311,0.6541865214431586
0.08905092039206311,0.6545268890401634
0.08906799631160138,0.6545268890401634
0.08906799631160138,0.6548672566371682
0.08922167958744578,0.6548672566371682
0.08922167958744578,0.6555479918311776
0.08925583142652233,0.6555479918311776
0.08925583142652233,0.6558883594281825
0.08928998326559885,0.6558883594281825
0.08928998326559885,0.6562287270251872
0.08934121102421365,0.6562287270251872
0.08934121102421365,0.6565690946221919
0.08937536286329019,0.6565690946221919
0.08937536286329019,0.6569094622191968
0.08976810901267034,0.6569094622191968
0.08976810901267034,0.6572498298162015
0.08980226085174686,0.6572498298162015
0.08980226085174686,0.6575901974132062
0.08987056452989993,0.6575901974132062
0.08987056452989993,0.6579305650102111
0.09029746251835662,0.6579305650102111
0.09029746251835662,0.6582709326072158
0.09051944947235409,0.6582709326072158
0.09051944947235409,0.6586113002042205
0.09067313274819849,0.6586113002042205
0.09067313274819849,0.6589516678012253
0.09096342338034903,0.6589516678012253
0.09096342338034903,0.6592920353982301
0.09099757521942557,0.6592920353982301
0.09099757521942557,0.6596324029952348
0.0910317270585021,0.6596324029952348
0.0910317270585021,0.6599727705922396
0.09135616952972918,0.6599727705922396
0.09135616952972918,0.6603131381892444
0.09137324544926745,0.6603131381892444
0.09137324544926745,0.6606535057862492
0.09169768792049451,0.6606535057862492
0.09169768792049451,0.6613342409802587
0.09200505447218332,0.6613342409802587
0.09200505447218332,0.6616746085772635
0.09205628223079813,0.6616746085772635
0.09205628223079813,0.6620149761742682
0.09231242102387213,0.6620149761742682
0.09231242102387213,0.6623553437712729
0.09390048154093097,0.6623553437712729
0.09390048154093097,0.6626957113682778
0.09391755746046924,0.6626957113682778
0.09391755746046924,0.6630360789652825
0.09403708889723712,0.6630360789652825
0.09403708889723712,0.6633764465622872
0.09429322769031112,0.6633764465622872
0.09429322769031112,0.6643975493533015
0.0945664424029234,0.6643975493533015
0.0945664424029234,0.6647379169503064
0.09465182200061473,0.6647379169503064
0.09465182200061473,0.6650782845473111
0.09475427751784433,0.6650782845473111
0.09475427751784433,0.6654186521443158
0.0948225811959974,0.6654186521443158
0.0948225811959974,0.6657590197413207
0.09506164406953314,0.6657590197413207
0.09506164406953314,0.6660993873383254
0.09531778286260716,0.6660993873383254
0.09531778286260716,0.6664397549353301
0.09553976981660463,0.6664397549353301
0.09553976981660463,0.6667801225323349
0.0956080734947577,0.6667801225323349
0.0956080734947577,0.6671204901293397
0.09569345309244903,0.6671204901293397
0.09569345309244903,0.6674608577263444
0.09583006044875517,0.6674608577263444
0.09583006044875517,0.668141592920354
0.09589836412690823,0.668141592920354
0.09589836412690823,0.6684819605173588
0.09630818619582665,0.6684819605173588
0.09630818619582665,0.6688223281143635
0.09646186947167106,0.6688223281143635
0.09646186947167106,0.6691626957113683
0.09656432498890065,0.6691626957113683
0.09656432498890065,0.6695030633083731
0.0971107544141252,0.6695030633083731
0.0971107544141252,0.6701837985023825
0.09719613401181654,0.6701837985023825
0.09719613401181654,0.6705241660993874
0.09753765240258187,0.6705241660993874
0.09753765240258187,0.6712049012933968
0.09775963935657936,0.6712049012933968
0.09775963935657936,0.6715452688904017
0.09793039855196202,0.6715452688904017
0.09793039855196202,0.6718856364874064
0.09827191694272737,0.6718856364874064
0.09827191694272737,0.6722260040844111
0.09842560021857177,0.6722260040844111
0.09842560021857177,0.672566371681416
0.09849390389672484,0.672566371681416
0.09849390389672484,0.6729067392784207
0.09857928349441618,0.6729067392784207
0.09857928349441618,0.6732471068754254
0.09873296677026058,0.6732471068754254
0.09873296677026058,0.6735874744724302
0.09886957412656672,0.6735874744724302
0.09886957412656672,0.673927842069435
0.09912571291964073,0.673927842069435
0.09912571291964073,0.6742682096664397
0.09933062395409993,0.6742682096664397
0.09933062395409993,0.6746085772634445
0.09941600355179127,0.6746085772634445
0.09941600355179127,0.6749489448604493
0.09970629418394181,0.6749489448604493
0.09970629418394181,0.675289312457454
0.0999624329770158,0.675289312457454
0.0999624329770158,0.6756296800544588
0.1004917864827021,0.6756296800544588
0.1004917864827021,0.6759700476514636
0.10050886240224036,0.6759700476514636
0.10050886240224036,0.6763104152484684
0.10071377343669957,0.6763104152484684
0.10071377343669957,0.6766507828454731
0.10086745671254398,0.6766507828454731
0.10086745671254398,0.6769911504424779
0.10129435470100065,0.6769911504424779
0.10129435470100065,0.6773315180394827
0.10143096205730678,0.6773315180394827
0.10143096205730678,0.6776718856364874
0.10149926573545985,0.6776718856364874
0.10149926573545985,0.678352620830497
0.10156756941361292,0.678352620830497
0.10156756941361292,0.6786929884275017
0.10185786004576347,0.6786929884275017
0.10185786004576347,0.6790333560245064
0.10245551722960282,0.6790333560245064
0.10245551722960282,0.6793737236215113
0.10252382090775589,0.6793737236215113
0.10252382090775589,0.679714091218516
0.10271165602267682,0.679714091218516
0.10271165602267682,0.6800544588155207
0.1028311874594447,0.6800544588155207
0.1028311874594447,0.6807351940095303
0.10301902257436563,0.6807351940095303
0.10301902257436563,0.681075561606535
0.10312147809159523,0.681075561606535
0.10312147809159523,0.6814159292035398
0.10356545199959018,0.6814159292035398
0.10356545199959018,0.6817562968005446
0.10359960383866672,0.6817562968005446
0.10359960383866672,0.6820966643975493
0.10366790751681978,0.6820966643975493
0.10366790751681978,0.6824370319945541
0.10390697039035553,0.6824370319945541
0.10390697039035553,0.6827773995915589
0.1044875516546566,0.6827773995915589
0.1044875516546566,0.6831177671885637
0.10479491820634541,0.6831177671885637
0.10479491820634541,0.6834581347855684
0.10544380314879956,0.6834581347855684
0.10544380314879956,0.6837985023825732
0.10569994194187357,0.6837985023825732
0.10569994194187357,0.684138869979578
0.1058365492981797,0.684138869979578
0.1058365492981797,0.6844792375765827
0.10684402855093747,0.6844792375765827
0.10684402855093747,0.6848196051735874
0.10691233222909054,0.6848196051735874
0.10691233222909054,0.6851599727705923
0.10721969878077935,0.6851599727705923
0.10721969878077935,0.685500340367597
0.10744168573477682,0.685500340367597
0.10744168573477682,0.6861810755616066
0.10752706533246816,0.6861810755616066
0.10752706533246816,0.6865214431586113
0.10759536901062122,0.6865214431586113
0.10759536901062122,0.6872021783526209
0.10785150780369523,0.6872021783526209
0.10785150780369523,0.6875425459496256
0.10790273556231003,0.6875425459496256
0.10790273556231003,0.6878829135466303
0.10798811516000137,0.6878829135466303
0.10798811516000137,0.6885636487406399
0.10829548171169018,0.6885636487406399
0.10829548171169018,0.6889040163376446
0.10834670947030497,0.6889040163376446
0.10834670947030497,0.6892443839346494
0.10844916498753458,0.6892443839346494
0.10844916498753458,0.6895847515316542
0.10860284826337899,0.6895847515316542
0.10860284826337899,0.689925119128659
0.10873945561968512,0.689925119128659
0.10873945561968512,0.6902654867256637
0.10882483521737646,0.6902654867256637
0.10882483521737646,0.6906058543226685
0.109115125849527,0.6906058543226685
0.109115125849527,0.6909462219196733
0.10925173320583313,0.6909462219196733
0.10925173320583313,0.691286589516678
0.11037874389535876,0.691286589516678
0.11037874389535876,0.6916269571136828
0.11116423619411905,0.6916269571136828
0.11116423619411905,0.6923076923076923
0.11150575458488439,0.6923076923076923
0.11150575458488439,0.692648059904697
0.11193265257334108,0.692648059904697
0.11193265257334108,0.6929884275017019
0.11206925992964721,0.6929884275017019
0.11206925992964721,0.6933287950987066
0.11217171544687682,0.6933287950987066
0.11217171544687682,0.6936691626957113
0.11227417096410641,0.6936691626957113
0.11227417096410641,0.6940095302927162
0.11304258734332844,0.6940095302927162
0.11304258734332844,0.6943498978897209
0.11314504286055804,0.6943498978897209
0.11314504286055804,0.6946902654867256
0.11334995389501724,0.6946902654867256
0.11334995389501724,0.6950306330837305
0.11348656125132338,0.6950306330837305
0.11348656125132338,0.6953710006807352
0.11362316860762953,0.6953710006807352
0.11362316860762953,0.6957113682777399
0.11387930740070352,0.6957113682777399
0.11387930740070352,0.6960517358747447
0.11451111642361941,0.6960517358747447
0.11451111642361941,0.6963921034717495
0.11454526826269594,0.6963921034717495
0.11454526826269594,0.6967324710687542
0.1153478364809945,0.6967324710687542
0.1153478364809945,0.697072838665759
0.11545029199822411,0.697072838665759
0.11545029199822411,0.6974132062627638
0.11546736791776237,0.6974132062627638
0.11546736791776237,0.6977535738597685
0.1156039752740685,0.6977535738597685
0.1156039752740685,0.6980939414567733
0.1157576585499129,0.6980939414567733
0.1157576585499129,0.6984343090537781
0.1161845565383696,0.6984343090537781
0.1161845565383696,0.6987746766507829
0.11647484717052013,0.6987746766507829
0.11647484717052013,0.6994554118447924
0.11652607492913493,0.6994554118447924
0.11652607492913493,0.6997957794417972
0.11676513780267067,0.6997957794417972
0.11676513780267067,0.7001361470388019
0.11683344148082374,0.7001361470388019
0.11683344148082374,0.7004765146358066
0.11691882107851508,0.7004765146358066
0.11691882107851508,0.7011572498298162
0.11702127659574468,0.7011572498298162
0.11702127659574468,0.7014976174268209
0.1175335541818927,0.7014976174268209
0.1175335541818927,0.7018379850238258
0.11756770602096923,0.7018379850238258
0.11756770602096923,0.7021783526208305
0.11772138929681364,0.7021783526208305
0.11772138929681364,0.7025187202178352
0.1177896929749667,0.7025187202178352
0.1177896929749667,0.7028590878148401
0.1178409207335815,0.7028590878148401
0.1178409207335815,0.7031994554118448
0.11787507257265804,0.7031994554118448
0.11787507257265804,0.7035398230088495
0.11826781872203818,0.7035398230088495
0.11826781872203818,0.7038801906058543
0.11939482941156382,0.7038801906058543
0.11939482941156382,0.7042205582028591
0.11942898125064035,0.7042205582028591
0.11942898125064035,0.7045609257998638
0.11948020900925514,0.7045609257998638
0.11948020900925514,0.7052416609938734
0.11949728492879341,0.7052416609938734
0.11949728492879341,0.7055820285908782
0.11951436084833168,0.7055820285908782
0.11951436084833168,0.7059223961878829
0.11958266452648475,0.7059223961878829
0.11958266452648475,0.7062627637848877
0.11985587923909702,0.7062627637848877
0.11985587923909702,0.7066031313818925
0.12035108090570677,0.7066031313818925
0.12035108090570677,0.7069434989788972
0.12045353642293638,0.7069434989788972
0.12045353642293638,0.7072838665759019
0.12070967521601038,0.7072838665759019
0.12070967521601038,0.7076242341729068
0.1209145862504696,0.7076242341729068
0.1209145862504696,0.7079646017699115
0.12093166217000785,0.7079646017699115
0.12093166217000785,0.7083049693669162
0.12120487688262013,0.7083049693669162
0.12120487688262013,0.7086453369639211
0.1213756360780028,0.7086453369639211
0.1213756360780028,0.7089857045609258
0.12171715446876814,0.7089857045609258
0.12171715446876814,0.7093260721579305
0.12197329326184216,0.7093260721579305
0.12197329326184216,0.7096664397549354
0.12224650797445442,0.7096664397549354
0.12224650797445442,0.7100068073519401
0.12231481165260749,0.7100068073519401
0.12231481165260749,0.7103471749489448
0.12303200027321472,0.7103471749489448
0.12303200027321472,0.7106875425459497
0.12323691130767392,0.7106875425459497
0.12323691130767392,0.7110279101429544
0.123817492571975,0.7110279101429544
0.123817492571975,0.7113682777399591
0.12400532768689594,0.7113682777399591
0.12400532768689594,0.7117086453369639
0.12487619958334756,0.7117086453369639
0.12487619958334756,0.7120490129339687
0.12494450326150063,0.7120490129339687
0.12494450326150063,0.7123893805309734
0.12513233837642157,0.7123893805309734
0.12513233837642157,0.7127297481279782
0.1253714012499573,0.7127297481279782
0.1253714012499573,0.713070115724983
0.12603736211194974,0.713070115724983
0.12603736211194974,0.7134104833219878
0.12613981762917933,0.7134104833219878
0.12613981762917933,0.7137508509189925
0.12629350090502373,0.7137508509189925
0.12629350090502373,0.7140912185159973
0.1264130323417916,0.7140912185159973
0.1264130323417916,0.7144315861130021
0.1264642601004064,0.7144315861130021
0.1264642601004064,0.7151123213070115
0.12653256377855948,0.7151123213070115
0.12653256377855948,0.7154526889040164
0.1267887025716335,0.7154526889040164
0.1267887025716335,0.7157930565010211
0.12692530992793963,0.7157930565010211
0.12692530992793963,0.7161334240980258
0.12701068952563097,0.7161334240980258
0.12701068952563097,0.7164737916950307
0.12728390423824323,0.7164737916950307
0.12728390423824323,0.7168141592920354
0.1279669410197739,0.7168141592920354
0.1279669410197739,0.7171545268890401
0.12800109285885045,0.7171545268890401
0.12800109285885045,0.717494894486045
0.12817185205423312,0.717494894486045
0.12817185205423312,0.7178352620830497
0.1284450667668454,0.7178352620830497
0.1284450667668454,0.7181756296800544
0.1291110276288378,0.7181756296800544
0.1291110276288378,0.7185159972770592
0.1291622553874526,0.7185159972770592
0.1291622553874526,0.718856364874064
0.12935009050237356,0.718856364874064
0.12935009050237356,0.7191967324710687
0.1295379256172945,0.7191967324710687
0.1295379256172945,0.7195371000680735
0.13110891021481508,0.7195371000680735
0.13110891021481508,0.7198774676650783
0.13119428981250641,0.7198774676650783
0.13119428981250641,0.720217835262083
0.13138212492742735,0.720217835262083
0.13138212492742735,0.7205582028590878
0.13156996004234828,0.7205582028590878
0.13156996004234828,0.7208985704560926
0.13163826372050136,0.7208985704560926
0.13163826372050136,0.7212389380530974
0.13168949147911616,0.7212389380530974
0.13168949147911616,0.7215793056501021
0.13184317475496055,0.7215793056501021
0.13184317475496055,0.7219196732471069
0.13189440251357534,0.7219196732471069
0.13189440251357534,0.7222600408441117
0.13209931354803456,0.7222600408441117
0.13209931354803456,0.7226004084411164
0.13215054130664936,0.7226004084411164
0.13215054130664936,0.7229407760381211
0.13232130050203203,0.7229407760381211
0.13232130050203203,0.723281143635126
0.1324920596974147,0.723281143635126
0.1324920596974147,0.7236215112321307
0.13250913561695296,0.7236215112321307
0.13250913561695296,0.7239618788291354
0.13252621153649125,0.7239618788291354
0.13252621153649125,0.7243022464261403
0.13261159113418258,0.7243022464261403
0.13261159113418258,0.724642614023145
0.1329701854444862,0.724642614023145
0.1329701854444862,0.7249829816201497
0.13298726136402444,0.7249829816201497
0.13298726136402444,0.7253233492171546
0.13314094463986886,0.7253233492171546
0.13314094463986886,0.7256637168141593
0.1331750964789454,0.7256637168141593
0.1331750964789454,0.726004084411164
0.13324340015709846,0.726004084411164
0.13324340015709846,0.7263444520081688
0.13372152590416994,0.7263444520081688
0.13372152590416994,0.7266848196051736
0.13392643693862916,0.7266848196051736
0.13392643693862916,0.7270251872021783
0.13430210716847102,0.7270251872021783
0.13430210716847102,0.7273655547991831
0.1346777773983129,0.7273655547991831
0.1346777773983129,0.7277059223961879
0.13503637170861651,0.7277059223961879
0.13503637170861651,0.7280462899931927
0.1352412827430757,0.7280462899931927
0.1352412827430757,0.7283866575901974
0.13542911785799666,0.7283866575901974
0.13542911785799666,0.7287270251872022
0.13585601584645332,0.7287270251872022
0.13585601584645332,0.729067392784207
0.1358730917659916,0.729067392784207
0.1358730917659916,0.7294077603812117
0.1362316860762952,0.7294077603812117
0.1362316860762952,0.7297481279782164
0.13631706567398655,0.7297481279782164
0.13631706567398655,0.7300884955752213
0.13770021515658618,0.7300884955752213
0.13770021515658618,0.730428863172226
0.138263720501349,0.730428863172226
0.138263720501349,0.7307692307692307
0.13927119975410676,0.7307692307692307
0.13927119975410676,0.7311095983662356
0.13949318670810423,0.7311095983662356
0.13949318670810423,0.7314499659632403
0.14032990676547932,0.7314499659632403
0.14032990676547932,0.731790333560245
0.140500665960862,0.731790333560245
0.140500665960862,0.7321307011572499
0.1406031214780916,0.7321307011572499
0.1406031214780916,0.7324710687542546
0.14142276561592843,0.7324710687542546
0.14142276561592843,0.7328114363512593
0.14191796728253817,0.7328114363512593
0.14191796728253817,0.7331518039482642
0.14237901711007137,0.7331518039482642
0.14237901711007137,0.7334921715452689
0.14260100406406884,0.7334921715452689
0.14260100406406884,0.7338325391422736
0.14302790205252552,0.7338325391422736
0.14302790205252552,0.7341729067392784
0.14386462210990061,0.7341729067392784
0.14386462210990061,0.7345132743362832
0.1439841535466685,0.7345132743362832
0.1439841535466685,0.734853641933288
0.14401830538574503,0.734853641933288
0.14401830538574503,0.7351940095302927
0.14468426624773745,0.7351940095302927
0.14468426624773745,0.7355343771272975
0.1450770123971176,0.7355343771272975
0.1450770123971176,0.7358747447243023
0.14560636590280387,0.7358747447243023
0.14560636590280387,0.736215112321307
0.14576004917864827,0.736215112321307
0.14576004917864827,0.7365554799183118
0.14634063044294934,0.7365554799183118
0.14634063044294934,0.7368958475153166
0.14675045251186777,0.7368958475153166
0.14675045251186777,0.7372362151123213
0.1473651856152454,0.7372362151123213
0.1473651856152454,0.737576582709326
0.14770670400601071,0.737576582709326
0.14770670400601071,0.7379169503063309
0.14956797923568185,0.7379169503063309
0.14956797923568185,0.7382573179033356
0.14985826986783238,0.7382573179033356
0.14985826986783238,0.7385976855003403
0.15009733274136813,0.7385976855003403
0.15009733274136813,0.7389380530973452
0.15033639561490386,0.7389380530973452
0.15033639561490386,0.7392784206943499
0.15049007889074828,0.7392784206943499
0.15049007889074828,0.7396187882913546
0.15079744544243706,0.7396187882913546
0.15079744544243706,0.7399591558883595
0.15086574912059014,0.7399591558883595
0.15086574912059014,0.7402995234853642
0.15142925446535296,0.7402995234853642
0.15142925446535296,0.7406398910823689
0.15168539325842698,0.7406398910823689
0.15168539325842698,0.7409802586793737
0.15173662101704177,0.7409802586793737
0.15173662101704177,0.7416609938733832
0.15209521532734538,0.7416609938733832
0.15209521532734538,0.742001361470388
0.15211229124688364,0.742001361470388
0.15211229124688364,0.7423417290673928
0.1522830504422663,0.7423417290673928
0.1522830504422663,0.7426820966643976
0.1529148594651822,0.7426820966643976
0.1529148594651822,0.7430224642614023
0.152966087223797,0.7430224642614023
0.152966087223797,0.7433628318584071
0.15325637785594753,0.7433628318584071
0.15325637785594753,0.7437031994554119
0.1540589460742461,0.7437031994554119
0.1540589460742461,0.7440435670524166
0.1541101738328609,0.7440435670524166
0.1541101738328609,0.7443839346494214
0.15412724975239916,0.7443839346494214
0.15412724975239916,0.7447243022464262
0.15417847751101396,0.7447243022464262
0.15417847751101396,0.7450646698434309
0.15443461630408797,0.7450646698434309
0.15443461630408797,0.7454050374404356
0.15448584406270277,0.7454050374404356
0.15448584406270277,0.7457454050374405
0.15465660325808545,0.7457454050374405
0.15465660325808545,0.7460857726344452
0.15479321061439158,0.7460857726344452
0.15479321061439158,0.7464261402314499
0.15487859021208292,0.7464261402314499
0.15487859021208292,0.7467665078284548
0.15516888084423347,0.7467665078284548
0.15516888084423347,0.7471068754254595
0.15554455107407533,0.7471068754254595
0.15554455107407533,0.7474472430224642
0.1557836139476111,0.7474472430224642
0.1557836139476111,0.7477876106194691
0.15602267682114682,0.7477876106194691
0.15602267682114682,0.7481279782164738
0.1560739045797616,0.7481279782164738
0.1560739045797616,0.7484683458134785
0.1563983470509887,0.7484683458134785
0.1563983470509887,0.7488087134104833
0.15646665072914176,0.7488087134104833
0.15646665072914176,0.7491490810074881
0.156927700556675,0.7491490810074881
0.156927700556675,0.7494894486044928
0.15725214302790205,0.7494894486044928
0.15725214302790205,0.7498298162014976
0.15803763532666235,0.7498298162014976
0.15803763532666235,0.7501701837985024
0.15817424268296848,0.7501701837985024
0.15817424268296848,0.7505105513955072
0.15913049417711145,0.7505105513955072
0.15913049417711145,0.7508509189925119
0.15933540521157064,0.7508509189925119
0.15933540521157064,0.7511912865895167
0.15935248113110892,0.7511912865895167
0.15935248113110892,0.7515316541865215
0.1595061644069533,0.7515316541865215
0.1595061644069533,0.7518720217835262
0.1596086199241829,0.7518720217835262
0.1596086199241829,0.7522123893805309
0.1600355179126396,0.7522123893805309
0.1600355179126396,0.7525527569775358
0.16053071957924933,0.7525527569775358
0.16053071957924933,0.7528931245745405
0.16078685837232334,0.7528931245745405
0.16078685837232334,0.7532334921715452
0.16177726170554285,0.7532334921715452
0.16177726170554285,0.7535738597685501
0.16196509682046378,0.7535738597685501
0.16196509682046378,0.7539142273655548
0.16199924865954032,0.7539142273655548
0.16199924865954032,0.7542545949625595
0.16239199480892047,0.7542545949625595
0.16239199480892047,0.7545949625595644
0.16324579078583382,0.7545949625595644
0.16324579078583382,0.7549353301565691
0.16355315733752263,0.7549353301565691
0.16355315733752263,0.7552756977535738
0.164150814521362,0.7552756977535738
0.164150814521362,0.7556160653505786
0.16474847170520132,0.7556160653505786
0.16474847170520132,0.7559564329475834
0.1653802807281172,0.7559564329475834
0.1653802807281172,0.7562968005445881
0.16555103992349987,0.7562968005445881
0.16555103992349987,0.7566371681415929
0.1657559509579591,0.7566371681415929
0.1657559509579591,0.7569775357385977
0.16587548239472696,0.7569775357385977
0.16587548239472696,0.7573179033356024
0.16602916567057135,0.7573179033356024
0.16602916567057135,0.7576582709326072
0.16619992486595403,0.7576582709326072
0.16619992486595403,0.757998638529612
0.16650729141764284,0.757998638529612
0.16650729141764284,0.7583390061266168
0.16659267101533418,0.7583390061266168
0.16659267101533418,0.7586793737236215
0.16737816331409447,0.7586793737236215
0.16737816331409447,0.7590197413206263
0.167924592739319,0.7590197413206263
0.167924592739319,0.7593601089176311
0.1682490352105461,0.7593601089176311
0.1682490352105461,0.7597004765146358
0.16833441480823744,0.7597004765146358
0.16833441480823744,0.7600408441116405
0.16884669239438543,0.7600408441116405
0.16884669239438543,0.7603812117086454
0.16917113486561253,0.7603812117086454
0.16917113486561253,0.7607215793056501
0.16963218469314573,0.7607215793056501
0.16963218469314573,0.7610619469026548
0.17028106963559989,0.7610619469026548
0.17028106963559989,0.7614023144996597
0.17055428434821215,0.7614023144996597
0.17055428434821215,0.7617426820966644
0.17200573750896486,0.7617426820966644
0.17200573750896486,0.7620830496936691
0.17207404118711792,0.7620830496936691
0.17207404118711792,0.762423417290674
0.1720911171066562,0.762423417290674
0.1720911171066562,0.7627637848876787
0.17396946825586557,0.7627637848876787
0.17396946825586557,0.7631041524846834
0.1750452511867764,0.7631041524846834
0.1750452511867764,0.7634445200816882
0.1755233769338479,0.7634445200816882
0.1755233769338479,0.763784887678693
