fpr,tpr
0.0,0.0
0.0,0.0003403675970047651
0.0,0.0013614703880190605
1.7075919538267136e-05,0.0013614703880190605
1.7075919538267136e-05,0.013614703880190605
3.415183907653427e-05,0.013614703880190605
3.415183907653427e-05,0.0302927161334241
5.1227758614801405e-05,0.0302927161334241
5.1227758614801405e-05,0.05752212389380531
6.830367815306854e-05,0.05752212389380531
6.830367815306854e-05,0.06262763784887679
8.537959769133568e-05,0.06262763784887679
8.537959769133568e-05,0.06569094622191968
0.00010245551722960281,0.06569094622191968
0.00010245551722960281,0.06705241660993873
0.00011953143676786995,0.06705241660993873
0.00011953143676786995,0.08236895847515316
0.0001366073563061371,0.08236895847515316
0.0001366073563061371,0.08883594281824371
0.00015368327584440423,0.08883594281824371
0.00015368327584440423,0.10040844111640572
0.00017075919538267137,0.10040844111640572
0.00017075919538267137,0.11300204220558203
0.00018783511492093848,0.11300204220558203
0.00018783511492093848,0.12389380530973451
0.00022198695399747276,0.12389380530973451
0.00022198695399747276,0.13274336283185842
0.0002390628735357399,0.13274336283185842
0.0002390628735357399,0.1453369639210347
0.000256138793074007,0.1453369639210347
0.000256138793074007,0.1456773315180395
0.0002732147126122742,0.1456773315180395
0.0002732147126122742,0.16269571136827773
0.00030736655168880846,0.16269571136827773
0.00030736655168880846,0.16337644656228728
0.00034151839076534274,0.16337644656228728
0.00034151839076534274,0.1671204901293397
0.00035859431030360985,0.1671204901293397
0.00035859431030360985,0.17699115044247787
0.00037567022984187696,0.17699115044247787
0.00037567022984187696,0.18447923757658272
0.00039274614938014413,0.18447923757658272
0.00039274614938014413,0.18515997277059223
0.00040982206891841124,0.18515997277059223
0.00040982206891841124,0.2021783526208305
0.0004268979884566784,0.2021783526208305
0.0004268979884566784,0.20558202859087815
0.0004439739079949455,0.20558202859087815
0.0004439739079949455,0.2198774676650783
0.0004610498275332127,0.2198774676650783
0.0004610498275332127,0.22089857045609257
0.0004781257470714798,0.22089857045609257
0.0004781257470714798,0.22498298162014976
0.0004952016666097469,0.22498298162014976
0.0004952016666097469,0.22532334921715452
0.000512277586148014,0.22532334921715452
0.000512277586148014,0.23349217154526888
0.0005293535056862812,0.23349217154526888
0.0005293535056862812,0.23417290673927843
0.0005464294252245484,0.23417290673927843
0.0005464294252245484,0.2345132743362832
0.0005805812643010826,0.2345132743362832
0.0005805812643010826,0.23485364193328795
0.0005976571838393497,0.23485364193328795
0.0005976571838393497,0.23689584751531653
0.0006147331033776169,0.23689584751531653
0.0006147331033776169,0.2498298162014976
0.0006488849424541511,0.2498298162014976
0.0006488849424541511,0.2518720217835262
0.0006830367815306855,0.2518720217835262
0.0006830367815306855,0.25697753573859766
0.0007001127010689526,0.25697753573859766
0.0007001127010689526,0.25936010891763106
0.0007171886206072197,0.25936010891763106
0.0007171886206072197,0.2603812117086453
0.0007342645401454868,0.2603812117086453
0.0007342645401454868,0.2610619469026549
0.0007513404596837539,0.2610619469026549
0.0007513404596837539,0.26548672566371684
0.0007684163792220211,0.26548672566371684
0.0007684163792220211,0.26582709326072157
0.0007854922987602883,0.26582709326072157
0.0007854922987602883,0.26616746085772636
0.0008025682182985554,0.26616746085772636
0.0008025682182985554,0.2682096664397549
0.0008196441378368225,0.2682096664397549
0.0008196441378368225,0.2702518720217835
0.0008367200573750896,0.2702518720217835
0.0008367200573750896,0.27161334240980256
0.0008537959769133568,0.27161334240980256
0.0008537959769133568,0.27297481279782165
0.0008708718964516239,0.27297481279782165
0.0008708718964516239,0.2756977535738598
0.000887947815989891,0.2756977535738598
0.000887947815989891,0.2767188563648741
0.0009050237355281582,0.2767188563648741
0.0009050237355281582,0.27773995915588834
0.0009220996550664254,0.27773995915588834
0.0009220996550664254,0.2784206943498979
0.0009391755746046925,0.2784206943498979
0.0009391755746046925,0.2842069434989789
0.0009904033332194938,0.2842069434989789
0.0009904033332194938,0.2852280462899932
0.001024555172296028,0.2852280462899932
0.001024555172296028,0.28795098706603134
0.0010416310918342953,0.28795098706603134
0.0010416310918342953,0.2910142954390742
0.0010587070113725625,0.2910142954390742
0.0010587070113725625,0.2916950306330837
0.0010757829309108295,0.2916950306330837
0.0010757829309108295,0.29646017699115046
0.0010928588504490967,0.29646017699115046
0.0010928588504490967,0.29714091218516
0.001127010689525631,0.29714091218516
0.001127010689525631,0.2978216473791695
0.0011440866090638982,0.2978216473791695
0.0011440866090638982,0.298502382573179
0.0011782384481404324,0.298502382573179
0.0011782384481404324,0.30020422055820284
0.0011953143676786994,0.30020422055820284
0.0011953143676786994,0.3008849557522124
0.0012123902872169666,0.3008849557522124
0.0012123902872169666,0.30122532334921714
0.0012294662067552338,0.30122532334921714
0.0012294662067552338,0.30156569094622193
0.0012465421262935008,0.30156569094622193
0.0012465421262935008,0.30224642614023145
0.0012806939653700353,0.30224642614023145
0.0012806939653700353,0.3039482641252553
0.0012977698849083023,0.3039482641252553
0.0012977698849083023,0.3056501021102791
0.0013148458044465695,0.3056501021102791
0.0013148458044465695,0.3063308373042886
0.0013319217239848365,0.3063308373042886
0.0013319217239848365,0.30905377808032675
0.0013489976435231037,0.30905377808032675
0.0013489976435231037,0.3134785568413887
0.001366073563061371,0.3134785568413887
0.001366073563061371,0.3138189244383935
0.001383149482599638,0.3138189244383935
0.001383149482599638,0.3141592920353982
0.0014173013216761722,0.3141592920353982
0.0014173013216761722,0.3151803948264125
0.0014343772412144394,0.3151803948264125
0.0014343772412144394,0.31586113002042204
0.0014514531607527066,0.31586113002042204
0.0014514531607527066,0.31756296800544587
0.0014685290802909736,0.31756296800544587
0.0014685290802909736,0.320285908781484
0.0014856049998292408,0.320285908781484
0.0014856049998292408,0.3233492171545269
0.001519756838905775,0.3233492171545269
0.001519756838905775,0.32402995234853643
0.0015368327584440423,0.32402995234853643
0.0015368327584440423,0.32471068754254595
0.0015709845975205765,0.32471068754254595
0.0015709845975205765,0.32539142273655547
0.0015880605170588435,0.32539142273655547
0.0015880605170588435,0.326072157930565
0.001639288275673645,0.326072157930565
0.001639288275673645,0.3264125255275698
0.0016563641952119122,0.3264125255275698
0.0016563641952119122,0.32947583390061264
0.0016905160342884464,0.32947583390061264
0.0016905160342884464,0.33185840707964603
0.0017246678733649806,0.33185840707964603
0.0017246678733649806,0.33356024506466986
0.001775895631979782,0.33356024506466986
0.001775895631979782,0.3356024506466984
0.0018100474710563163,0.3356024506466984
0.0018100474710563163,0.3359428182437032
0.0018441993101328507,0.3359428182437032
0.0018441993101328507,0.3366235534377127
0.0018612752296711178,0.3366235534377127
0.0018612752296711178,0.33866575901974133
0.001878351149209385,0.33866575901974133
0.001878351149209385,0.33968686181075564
0.0019295789078241864,0.33968686181075564
0.0019295789078241864,0.343430905377808
0.0019466548273624534,0.343430905377808
0.0019466548273624534,0.34649421375085093
0.0019637307469007204,0.34649421375085093
0.0019637307469007204,0.3488767869298843
0.0019808066664389876,0.3488767869298843
0.0019808066664389876,0.3522804628999319
0.001997882585977255,0.3522804628999319
0.001997882585977255,0.35398230088495575
0.002014958505515522,0.35398230088495575
0.002014958505515522,0.35432266848196053
0.0020320344250537893,0.35432266848196053
0.0020320344250537893,0.35466303607896527
0.002049110344592056,0.35466303607896527
0.002049110344592056,0.35704560925799866
0.0020661862641303233,0.35704560925799866
0.0020661862641303233,0.3584070796460177
0.0021003381032068578,0.3584070796460177
0.0021003381032068578,0.3587474472430225
0.002117414022745125,0.3587474472430225
0.002117414022745125,0.35976855003403674
0.0021857177008981934,0.35976855003403674
0.0021857177008981934,0.36113002042205583
0.0022027936204364607,0.36113002042205583
0.0022027936204364607,0.36181075561606535
0.0022198695399747274,0.36181075561606535
0.0022198695399747274,0.36215112321307014
0.002254021379051262,0.36215112321307014
0.002254021379051262,0.36385296119809396
0.0022881732181277963,0.36385296119809396
0.0022881732181277963,0.365214431586113
0.002305249137666063,0.365214431586113
0.002305249137666063,0.3662355343771273
0.0023223250572043303,0.3662355343771273
0.0023223250572043303,0.3672566371681416
0.0023394009767425976,0.3672566371681416
0.0023394009767425976,0.36895847515316543
0.0023564768962808648,0.36895847515316543
0.0023564768962808648,0.3727025187202178
0.002373552815819132,0.3727025187202178
0.002373552815819132,0.3740639891082369
0.0023906287353573988,0.3740639891082369
0.0023906287353573988,0.37848876786929886
0.002407704654895666,0.37848876786929886
0.002407704654895666,0.3808713410483322
0.0024247805744339332,0.3808713410483322
0.0024247805744339332,0.3815520762423417
0.0024589324135104677,0.3815520762423417
0.0024589324135104677,0.38223281143635124
0.0024930842525870017,0.38223281143635124
0.0024930842525870017,0.38325391422736554
0.002510160172125269,0.38325391422736554
0.002510160172125269,0.38461538461538464
0.002527236091663536,0.38461538461538464
0.002527236091663536,0.386997957794418
0.0025443120112018033,0.386997957794418
0.0025443120112018033,0.3873383253914227
0.0025613879307400706,0.3873383253914227
0.0025613879307400706,0.388359428182437
0.0026467675284314062,0.388359428182437
0.0026467675284314062,0.3886997957794418
0.0026979952870462075,0.3886997957794418
0.0026979952870462075,0.39108236895847515
0.0027150712065844747,0.39108236895847515
0.0027150712065844747,0.39176310415248466
0.002732147126122742,0.39176310415248466
0.002732147126122742,0.39278420694349897
0.002783374884737543,0.39278420694349897
0.002783374884737543,0.3934649421375085
0.0028346026433523444,0.3934649421375085
0.0028346026433523444,0.3958475153165419
0.0028516785628906116,0.3958475153165419
0.0028516785628906116,0.3965282505105514
0.002868754482428879,0.3965282505105514
0.002868754482428879,0.39823008849557523
0.002885830401967146,0.39823008849557523
0.002885830401967146,0.39857045609257996
0.0029029063215054132,0.39857045609257996
0.0029029063215054132,0.39959155888359427
0.00291998224104368,0.39959155888359427
0.00291998224104368,0.40197413206262766
0.0029370581605819472,0.40197413206262766
0.0029370581605819472,0.4023144996596324
0.0029712099996584817,0.4023144996596324
0.0029712099996584817,0.4026548672566372
0.002988285919196749,0.4026548672566372
0.002988285919196749,0.4033356024506467
0.003022437758273283,0.4033356024506467
0.003022437758273283,0.4036759700476515
0.00303951367781155,0.4036759700476515
0.00303951367781155,0.4050374404356705
0.0030736655168880846,0.4050374404356705
0.0030736655168880846,0.4053778080326753
0.0031078173559646186,0.4053778080326753
0.0031078173559646186,0.40571817562968004
0.003141969195041153,0.40571817562968004
0.003141969195041153,0.40605854322668483
0.0031590451145794203,0.40605854322668483
0.0031590451145794203,0.40639891082368956
0.003176121034117687,0.40639891082368956
0.003176121034117687,0.4084411164057182
0.0031931969536559543,0.4084411164057182
0.0031931969536559543,0.4094622191967325
0.0032102728731942215,0.4094622191967325
0.0032102728731942215,0.4104833219877468
0.0032273487927324887,0.4104833219877468
0.0032273487927324887,0.4111640571817563
0.003244424712270756,0.4111640571817563
0.003244424712270756,0.4118447923757658
0.0032615006318090227,0.4118447923757658
0.0032615006318090227,0.4121851599727706
0.00327857655134729,0.4121851599727706
0.00327857655134729,0.41252552756977534
0.003295652470885557,0.41252552756977534
0.003295652470885557,0.41286589516678013
0.0033127283904238244,0.41286589516678013
0.0033127283904238244,0.41422736555479917
0.0033468802295003584,0.41422736555479917
0.0033468802295003584,0.41490810074880874
0.0033639561490386256,0.41490810074880874
0.0033639561490386256,0.4169503063308373
0.00339810798811516,0.4169503063308373
0.00339810798811516,0.4172906739278421
0.0034151839076534273,0.4172906739278421
0.0034151839076534273,0.4179714091218516
0.0034322598271916945,0.4179714091218516
0.0034322598271916945,0.4183117767188564
0.0034834875858064957,0.4183117767188564
0.0034834875858064957,0.4196732471068754
0.003500563505344763,0.4196732471068754
0.003500563505344763,0.4200136147038802
0.003534715344421297,0.4200136147038802
0.003534715344421297,0.42205582028590877
0.003551791263959564,0.42205582028590877
0.003551791263959564,0.42239618788291355
0.0035688671834978314,0.42239618788291355
0.0035688671834978314,0.4227365554799183
0.0036200949421126326,0.4227365554799183
0.0036200949421126326,0.4230769230769231
0.003654246781189167,0.4230769230769231
0.003654246781189167,0.42341729067392786
0.0036713227007274343,0.42341729067392786
0.0036713227007274343,0.426140231449966
0.0036883986202657015,0.426140231449966
0.0036883986202657015,0.4268209666439755
0.0037054745398039683,0.4268209666439755
0.0037054745398039683,0.42920353982300885
0.0037225504593422355,0.42920353982300885
0.0037225504593422355,0.42988427501701837
0.0037396263788805027,0.42988427501701837
0.0037396263788805027,0.4305650102110279
0.00375670229841877,0.4305650102110279
0.00375670229841877,0.43124574540503746
0.003773778217957037,0.43124574540503746
0.003773778217957037,0.4315861130020422
0.003807930057033571,0.4315861130020422
0.003807930057033571,0.431926480599047
0.0038250059765718384,0.431926480599047
0.0038250059765718384,0.4322668481960517
0.0038420818961101056,0.4322668481960517
0.0038420818961101056,0.4336283185840708
0.003859157815648373,0.4336283185840708
0.003859157815648373,0.4346494213750851
0.003910385574263174,0.4346494213750851
0.003910385574263174,0.43533015656909463
0.0039445374133397085,0.43533015656909463
0.0039445374133397085,0.43669162695711367
0.003961613332877975,0.43669162695711367
0.003961613332877975,0.43737236215112324
0.003978689252416243,0.43737236215112324
0.003978689252416243,0.43771272974812797
0.00399576517195451,0.43771272974812797
0.00399576517195451,0.43805309734513276
0.0040128410914927765,0.43805309734513276
0.0040128410914927765,0.4387338325391423
0.004046992930569311,0.4387338325391423
0.004046992930569311,0.4404356705241661
0.004064068850107579,0.4404356705241661
0.004064068850107579,0.4421375085091899
0.004098220689184112,0.4421375085091899
0.004098220689184112,0.44486044928522805
0.00411529660872238,0.44486044928522805
0.00411529660872238,0.44588155207624236
0.004132372528260647,0.44588155207624236
0.004132372528260647,0.4462219196732471
0.004149448447798914,0.4462219196732471
0.004149448447798914,0.4465622872702519
0.004166524367337181,0.4465622872702519
0.004166524367337181,0.4489448604492852
0.004183600286875448,0.4489448604492852
0.004183600286875448,0.44928522804629
0.004217752125951982,0.44928522804629
0.004217752125951982,0.44962559564329474
0.00423482804549025,0.44962559564329474
0.00423482804549025,0.4499659632402995
0.004251903965028517,0.4499659632402995
0.004251903965028517,0.45064669843430905
0.004286055804105051,0.45064669843430905
0.004286055804105051,0.45098706603131383
0.004320207643181586,0.45098706603131383
0.004320207643181586,0.4533696392103472
0.004337283562719852,0.4533696392103472
0.004337283562719852,0.45371000680735196
0.004371435401796387,0.45371000680735196
0.004371435401796387,0.4543907420013615
0.004388511321334654,0.4543907420013615
0.004388511321334654,0.455071477195371
0.004405587240872921,0.455071477195371
0.004405587240872921,0.45643294758339004
0.004422663160411188,0.45643294758339004
0.004422663160411188,0.45745405037440434
0.004439739079949455,0.45745405037440434
0.004439739079949455,0.45813478556841386
0.0044568149994877225,0.45813478556841386
0.0044568149994877225,0.45847515316541865
0.004473890919025989,0.45847515316541865
0.004473890919025989,0.45881552076242343
0.004490966838564257,0.45881552076242343
0.004490966838564257,0.46017699115044247
0.004508042758102524,0.46017699115044247
0.004508042758102524,0.4611980939414568
0.0045251186776407906,0.4611980939414568
0.0045251186776407906,0.4618788291354663
0.004542194597179058,0.4618788291354663
0.004542194597179058,0.4622191967324711
0.0045934223557938594,0.4622191967324711
0.0045934223557938594,0.4625595643294758
0.004610498275332126,0.4625595643294758
0.004610498275332126,0.4632402995234854
0.004695877873023462,0.4632402995234854
0.004695877873023462,0.4649421375085092
0.0047129537925617295,0.4649421375085092
0.0047129537925617295,0.46528250510551394
0.004730029712099996,0.46528250510551394
0.004730029712099996,0.46562287270251873
0.004747105631638264,0.46562287270251873
0.004747105631638264,0.46596324029952346
0.004764181551176531,0.46596324029952346
0.004764181551176531,0.46630360789652825
0.0047812574707147976,0.46630360789652825
0.0047812574707147976,0.46698434309053777
0.004815409309791332,0.46698434309053777
0.004815409309791332,0.46732471068754255
0.0048324852293296,0.46732471068754255
0.0048324852293296,0.4676650782845473
0.0048495611488678664,0.4676650782845473
0.0048495611488678664,0.4686861810755616
0.004883712987944401,0.4686861810755616
0.004883712987944401,0.4693669162695711
0.004900788907482668,0.4693669162695711
0.004900788907482668,0.4700476514635807
0.004917864827020935,0.4700476514635807
0.004917864827020935,0.4707283866575902
0.004986168505174003,0.4707283866575902
0.004986168505174003,0.4714091218515997
0.005054472183327072,0.4714091218515997
0.005054472183327072,0.4717494894486045
0.005071548102865339,0.4717494894486045
0.005071548102865339,0.47208985704560924
0.005088624022403607,0.47208985704560924
0.005088624022403607,0.47311095983662355
0.0051056999419418735,0.47311095983662355
0.0051056999419418735,0.47345132743362833
0.005156927700556675,0.47345132743362833
0.005156927700556675,0.47447243022464264
0.005191079539633209,0.47447243022464264
0.005191079539633209,0.4775357385976855
0.005259383217786278,0.4775357385976855
0.005259383217786278,0.478216473791695
0.005276459137324545,0.478216473791695
0.005276459137324545,0.47889720898570454
0.0052935350568628125,0.47889720898570454
0.0052935350568628125,0.4792375765827093
0.005327686895939346,0.4792375765827093
0.005327686895939346,0.4795779441797141
0.005344762815477614,0.4795779441797141
0.005344762815477614,0.48196051735874745
0.0053618387350158805,0.48196051735874745
0.0053618387350158805,0.4833219877467665
0.005378914654554148,0.4833219877467665
0.005378914654554148,0.4846834581347856
0.005395990574092415,0.4846834581347856
0.005395990574092415,0.4857045609257999
0.005413066493630682,0.4857045609257999
0.005413066493630682,0.48808713410483323
0.005464294252245484,0.48808713410483323
0.005464294252245484,0.48876786929884275
0.005498446091322017,0.48876786929884275
0.005498446091322017,0.48910823689584754
0.005583825689013353,0.48910823689584754
0.005583825689013353,0.48944860449285227
0.005600901608551621,0.48944860449285227
0.005600901608551621,0.48978897208985706
0.0056179775280898875,0.48978897208985706
0.0056179775280898875,0.4901293396868618
0.005635053447628155,0.4901293396868618
0.005635053447628155,0.4911504424778761
0.005652129367166422,0.4911504424778761
0.005652129367166422,0.4921715452688904
0.005686281206242956,0.4921715452688904
0.005686281206242956,0.4925119128658952
0.005703357125781223,0.4925119128658952
0.005703357125781223,0.4931926480599047
0.005737508964857758,0.4931926480599047
0.005737508964857758,0.4938733832539142
0.005754584884396024,0.4938733832539142
0.005754584884396024,0.49557522123893805
0.005771660803934292,0.49557522123893805
0.005771660803934292,0.49591558883594283
0.0058058126430108265,0.49591558883594283
0.0058058126430108265,0.49625595643294756
0.00583996448208736,0.49625595643294756
0.00583996448208736,0.49659632402995235
0.005857040401625628,0.49659632402995235
0.005857040401625628,0.49727705922396187
0.0058741163211638945,0.49727705922396187
0.0058741163211638945,0.49761742682096666
0.005925344079778696,0.49761742682096666
0.005925344079778696,0.4996596324029952
0.00595949591885523,0.4996596324029952
0.00595949591885523,0.5017018379850239
0.005993647757931765,0.5017018379850239
0.005993647757931765,0.5027229407760381
0.006010723677470031,0.5027229407760381
0.006010723677470031,0.5051055139550715
0.006027799597008299,0.5051055139550715
0.006027799597008299,0.5064669843430906
0.006044875516546566,0.5064669843430906
0.006044875516546566,0.5068073519400953
0.006096103275161367,0.5068073519400953
0.006096103275161367,0.5071477195371
0.0061302551142379015,0.5071477195371
0.0061302551142379015,0.5074880871341049
0.006147331033776169,0.5074880871341049
0.006147331033776169,0.5091899251191286
0.00619855879239097,0.5091899251191286
0.00619855879239097,0.510211027910143
0.006232710631467505,0.510211027910143
0.006232710631467505,0.511572498298162
0.006283938390082306,0.511572498298162
0.006283938390082306,0.5119128658951668
0.006352242068235374,0.5119128658951668
0.006352242068235374,0.5122532334921716
0.0063863939073119085,0.5122532334921716
0.0063863939073119085,0.5125936010891763
0.006420545746388443,0.5125936010891763
0.006420545746388443,0.5132743362831859
0.00643762166592671,0.5132743362831859
0.00643762166592671,0.5136147038801906
0.006488849424541512,0.5136147038801906
0.006488849424541512,0.5153165418652145
0.006523001263618045,0.5153165418652145
0.006523001263618045,0.5163376446562288
0.00655715310269458,0.5163376446562288
0.00655715310269458,0.5166780122532335
0.0066425327003859155,0.5166780122532335
0.0066425327003859155,0.5170183798502382
0.00667668453946245,0.5170183798502382
0.00667668453946245,0.517358747447243
0.006693760459000717,0.517358747447243
0.006693760459000717,0.5180394826412525
0.006710836378538984,0.5180394826412525
0.006710836378538984,0.5187202178352621
0.0067791400566920524,0.5187202178352621
0.0067791400566920524,0.5190605854322669
0.006864519654383389,0.5190605854322669
0.006864519654383389,0.5197413206262764
0.006881595573921656,0.5197413206262764
0.006881595573921656,0.5204220558202859
0.0068986714934599225,0.5204220558202859
0.0068986714934599225,0.5221238938053098
0.006966975171612991,0.5221238938053098
0.006966975171612991,0.5224642614023145
0.007052354769304327,0.5224642614023145
0.007052354769304327,0.5238257317903335
0.007069430688842594,0.5238257317903335
0.007069430688842594,0.5255275697753574
0.0070865066083808615,0.5255275697753574
0.0070865066083808615,0.5258679373723621
0.007120658447457396,0.5258679373723621
0.007120658447457396,0.5282505105513955
0.0071548102865339296,0.5282505105513955
0.0071548102865339296,0.5299523485364194
0.007171886206072197,0.5299523485364194
0.007171886206072197,0.5306330837304288
0.007188962125610464,0.5306330837304288
0.007188962125610464,0.5316541865214431
0.0072743417233018,0.5316541865214431
0.0072743417233018,0.5323349217154527
0.007308493562378334,0.5323349217154527
0.007308493562378334,0.5326752893124574
0.007325569481916601,0.5326752893124574
0.007325569481916601,0.5330156569094622
0.007359721320993135,0.5330156569094622
0.007359721320993135,0.533356024506467
0.007376797240531403,0.533356024506467
0.007376797240531403,0.5336963921034718
0.007428024999146204,0.5336963921034718
0.007428024999146204,0.5343771272974813
0.007445100918684471,0.5343771272974813
0.007445100918684471,0.5347174948944861
0.007462176838222739,0.5347174948944861
0.007462176838222739,0.5350578624914908
0.007530480516375807,0.5350578624914908
0.007530480516375807,0.5353982300884956
0.007581708274990608,0.5353982300884956
0.007581708274990608,0.5357385976855004
0.007598784194528876,0.5357385976855004
0.007598784194528876,0.5360789652825051
0.007615860114067142,0.5360789652825051
0.007615860114067142,0.5384615384615384
0.007650011953143677,0.5384615384615384
0.007650011953143677,0.5388019060585433
0.007667087872681944,0.5388019060585433
0.007667087872681944,0.5394826412525527
0.007701239711758478,0.5394826412525527
0.007701239711758478,0.5401633764465623
0.0077353915508350125,0.5401633764465623
0.0077353915508350125,0.540503744043567
0.007803695228988081,0.540503744043567
0.007803695228988081,0.5408441116405718
0.007854922987602882,0.5408441116405718
0.007854922987602882,0.5411844792375766
0.007889074826679417,0.5411844792375766
0.007889074826679417,0.5425459496255957
0.00792322666575595,0.5425459496255957
0.00792322666575595,0.5428863172226004
0.00799153034390902,0.5428863172226004
0.00799153034390902,0.5432266848196051
0.008008606263447286,0.5432266848196051
0.008008606263447286,0.54356705241661
0.008025682182985553,0.54356705241661
0.008025682182985553,0.5439074200136147
0.008042758102523822,0.5439074200136147
0.008042758102523822,0.5442477876106194
0.008093985861138622,0.5442477876106194
0.008093985861138622,0.5445881552076243
0.008179365458829958,0.5445881552076243
0.008179365458829958,0.5452688904016337
0.008196441378368224,0.5452688904016337
0.008196441378368224,0.5456092579986386
0.008213517297906493,0.5456092579986386
0.008213517297906493,0.5459496255956433
0.008247669136983026,0.5459496255956433
0.008247669136983026,0.5466303607896529
0.00828182097605956,0.5466303607896529
0.00828182097605956,0.5476514635806671
0.008298896895597829,0.5476514635806671
0.008298896895597829,0.5486725663716814
0.008350124654212629,0.5486725663716814
0.008350124654212629,0.5503744043567053
0.008452580171442231,0.5503744043567053
0.008452580171442231,0.5510551395507147
0.008486732010518767,0.5510551395507147
0.008486732010518767,0.5513955071477196
0.0085208838495953,0.5513955071477196
0.0085208838495953,0.5517358747447243
0.00858918752774837,0.5517358747447243
0.00858918752774837,0.552076242341729
0.008606263447286636,0.552076242341729
0.008606263447286636,0.5524166099387339
0.008640415286363171,0.5524166099387339
0.008640415286363171,0.5534377127297482
0.008691643044977972,0.5534377127297482
0.008691643044977972,0.5541184479237576
0.008708718964516238,0.5541184479237576
0.008708718964516238,0.5547991831177672
0.008725794884054507,0.5547991831177672
0.008725794884054507,0.555139550714772
0.008811174481745843,0.555139550714772
0.008811174481745843,0.5558202859087815
0.00882825040128411,0.5558202859087815
0.00882825040128411,0.5561606535057863
0.008862402240360643,0.5561606535057863
0.008862402240360643,0.5585432266848196
0.008896554079437178,0.5585432266848196
0.008896554079437178,0.5595643294758339
0.008913629998975445,0.5595643294758339
0.008913629998975445,0.5602450646698435
0.008930705918513712,0.5602450646698435
0.008930705918513712,0.5609257998638529
0.008947781838051979,0.5609257998638529
0.008947781838051979,0.5616065350578625
0.008964857757590245,0.5616065350578625
0.008964857757590245,0.562287270251872
0.00899900959666678,0.562287270251872
0.00899900959666678,0.5626276378488768
0.009033161435743314,0.5626276378488768
0.009033161435743314,0.5639891082368959
0.009050237355281581,0.5639891082368959
0.009050237355281581,0.5643294758339006
0.00906731327481985,0.5643294758339006
0.00906731327481985,0.5650102110279102
0.009169768792049452,0.5650102110279102
0.009169768792049452,0.5653505786249149
0.009220996550664252,0.5653505786249149
0.009220996550664252,0.5660313138189245
0.009255148389740788,0.5660313138189245
0.009255148389740788,0.5663716814159292
0.009289300228817321,0.5663716814159292
0.009289300228817321,0.5667120490129339
0.00935760390697039,0.5667120490129339
0.00935760390697039,0.5673927842069435
0.009425907585123459,0.5673927842069435
0.009425907585123459,0.5677331518039482
0.009442983504661726,0.5677331518039482
0.009442983504661726,0.5680735194009531
0.009460059424199993,0.5680735194009531
0.009460059424199993,0.5684138869979578
0.00947713534373826,0.5684138869979578
0.00947713534373826,0.5687542545949625
0.009494211263276528,0.5687542545949625
0.009494211263276528,0.5690946221919673
0.009511287182814795,0.5690946221919673
0.009511287182814795,0.5697753573859768
0.009545439021891328,0.5697753573859768
0.009545439021891328,0.5701157249829816
0.009579590860967864,0.5701157249829816
0.009579590860967864,0.5718175629680055
0.00959666678050613,0.5718175629680055
0.00959666678050613,0.572498298162015
0.009613742700044397,0.572498298162015
0.009613742700044397,0.5728386657590198
0.00964789453912093,0.5728386657590198
0.00964789453912093,0.5735194009530292
0.009699122297735733,0.5735194009530292
0.009699122297735733,0.5745405037440435
0.009716198217274,0.5745405037440435
0.009716198217274,0.5752212389380531
0.009767425975888802,0.5752212389380531
0.009767425975888802,0.5755616065350578
0.009784501895427069,0.5755616065350578
0.009784501895427069,0.5759019741320627
0.00990403333219494,0.5759019741320627
0.00990403333219494,0.5765827093260721
0.009921109251733206,0.5765827093260721
0.009921109251733206,0.5779441797140912
0.010074792527577611,0.5779441797140912
0.010074792527577611,0.5786249149081008
0.010091868447115878,0.5786249149081008
0.010091868447115878,0.5789652825051055
0.010126020286192411,0.5789652825051055
0.010126020286192411,0.5793056501021103
0.010245551722960282,0.5793056501021103
0.010245551722960282,0.5796460176991151
0.010262627642498549,0.5796460176991151
0.010262627642498549,0.5803267528931245
0.010279703562036816,0.5803267528931245
0.010279703562036816,0.5810074880871341
0.01031385540111335,0.5810074880871341
0.01031385540111335,0.5816882232811437
0.010330931320651618,0.5816882232811437
0.010330931320651618,0.5820285908781484
0.010399234998804685,0.5820285908781484
0.010399234998804685,0.5823689584751531
0.01050169051603429,0.5823689584751531
0.01050169051603429,0.582709326072158
0.01055291827464909,0.582709326072158
0.01055291827464909,0.5830496936691627
0.010587070113725625,0.5830496936691627
0.010587070113725625,0.5837304288631723
0.010621221952802158,0.5837304288631723
0.010621221952802158,0.584070796460177
0.010638297872340425,0.584070796460177
0.010638297872340425,0.5847515316541865
0.010655373791878692,0.5847515316541865
0.010655373791878692,0.585432266848196
0.01067244971141696,0.585432266848196
0.01067244971141696,0.5871341048332199
0.010723677470031761,0.5871341048332199
0.010723677470031761,0.5878148400272294
0.010757829309108296,0.5878148400272294
0.010757829309108296,0.5888359428182437
0.010774905228646563,0.5888359428182437
0.010774905228646563,0.5891763104152484
0.010911512584952699,0.5891763104152484
0.010911512584952699,0.5895166780122533
0.010996892182644035,0.5895166780122533
0.010996892182644035,0.5901974132062627
0.011013968102182303,0.5901974132062627
0.011013968102182303,0.5905377808032676
0.01108227178033537,0.5905377808032676
0.01108227178033537,0.591218515997277
0.011099347699873639,0.591218515997277
0.011099347699873639,0.5915588835942818
0.011167651378026706,0.5915588835942818
0.011167651378026706,0.5922396187882913
0.011287182814794577,0.5922396187882913
0.011287182814794577,0.5925799863852961
0.011355486492947646,0.5925799863852961
0.011355486492947646,0.5932607215793056
0.011440866090638982,0.5932607215793056
0.011440866090638982,0.5936010891763104
0.011475017929715515,0.5936010891763104
0.011475017929715515,0.5939414567733152
0.011492093849253782,0.5939414567733152
0.011492093849253782,0.5946221919673247
0.011509169768792049,0.5946221919673247
0.011509169768792049,0.5949625595643295
0.011526245688330317,0.5949625595643295
0.011526245688330317,0.595643294758339
0.011543321607868584,0.595643294758339
0.011543321607868584,0.5959836623553437
0.01156039752740685,0.5959836623553437
0.01156039752740685,0.597004765146358
0.011594549366483384,0.597004765146358
0.011594549366483384,0.5973451327433629
0.01162870120555992,0.5973451327433629
0.01162870120555992,0.5976855003403676
0.011662853044636453,0.5976855003403676
0.011662853044636453,0.5980258679373723
0.01167992896417472,0.5980258679373723
0.01167992896417472,0.5983662355343772
0.011731156722789522,0.5983662355343772
0.011731156722789522,0.5987066031313819
0.011748232642327789,0.5987066031313819
0.011748232642327789,0.5990469707283866
0.011782384481404324,0.5990469707283866
0.011782384481404324,0.600068073519401
0.011833612240019125,0.600068073519401
0.011833612240019125,0.6010891763104153
0.011884839998633927,0.6010891763104153
0.011884839998633927,0.6017699115044248
0.011936067757248727,0.6017699115044248
0.011936067757248727,0.6021102791014296
0.011953143676786996,0.6021102791014296
0.011953143676786996,0.602791014295439
0.01198729551586353,0.602791014295439
0.01198729551586353,0.6034717494894486
0.012021447354940063,0.6034717494894486
0.012021447354940063,0.6038121170864533
0.012106826952631398,0.6038121170864533
0.012106826952631398,0.6041524846834582
0.012123902872169667,0.6041524846834582
0.012123902872169667,0.6044928522804629
0.0121580547112462,0.6044928522804629
0.0121580547112462,0.6048332198774676
0.01222635838939927,0.6048332198774676
0.01222635838939927,0.6051735874744725
0.01227758614801407,0.6051735874744725
0.01227758614801407,0.6055139550714772
0.012311737987090605,0.6055139550714772
0.012311737987090605,0.6058543226684819
0.012345889826167139,0.6058543226684819
0.012345889826167139,0.6061946902654868
0.012362965745705405,0.6061946902654868
0.012362965745705405,0.6065350578624915
0.012414193504320208,0.6065350578624915
0.012414193504320208,0.6068754254594962
0.012499573102011543,0.6068754254594962
0.012499573102011543,0.607215793056501
0.01251664902154981,0.607215793056501
0.01251664902154981,0.6075561606535058
0.012550800860626345,0.6075561606535058
0.012550800860626345,0.6078965282505105
0.012567876780164612,0.6078965282505105
0.012567876780164612,0.6082368958475153
0.012584952699702879,0.6082368958475153
0.012584952699702879,0.6089176310415249
0.012602028619241146,0.6089176310415249
0.012602028619241146,0.6092579986385296
0.012687408216932481,0.6092579986385296
0.012687408216932481,0.6095983662355344
0.012772787814623817,0.6095983662355344
0.012772787814623817,0.6099387338325392
0.012789863734162084,0.6099387338325392
0.012789863734162084,0.6102791014295439
0.012841091492776886,0.6102791014295439
0.012841091492776886,0.6106194690265486
0.012909395170929955,0.6106194690265486
0.012909395170929955,0.6109598366235535
0.012926471090468222,0.6109598366235535
0.012926471090468222,0.6113002042205582
0.012960622929544755,0.6113002042205582
0.012960622929544755,0.6116405718175629
0.013131382124927427,0.6116405718175629
0.013131382124927427,0.6119809394145678
0.013285065400771831,0.6119809394145678
0.013285065400771831,0.6126616746085772
0.013302141320310098,0.6126616746085772
0.013302141320310098,0.6130020422055821
0.013438748676616236,0.6130020422055821
0.013438748676616236,0.6153846153846154
0.013524128274307571,0.6153846153846154
0.013524128274307571,0.6160653505786249
0.013541204193845838,0.6160653505786249
0.013541204193845838,0.6164057181756297
0.013660735630613709,0.6164057181756297
0.013660735630613709,0.6170864533696392
0.01371196338922851,0.6170864533696392
0.01371196338922851,0.617426820966644
0.013729039308766778,0.617426820966644
0.013729039308766778,0.6181075561606535
0.013848570745534647,0.6181075561606535
0.013848570745534647,0.6187882913546631
0.013933950343225983,0.6187882913546631
0.013933950343225983,0.6191286589516678
0.01395102626276425,0.6191286589516678
0.01395102626276425,0.6194690265486725
0.013968102182302516,0.6194690265486725
0.013968102182302516,0.6198093941456774
0.014019329940917319,0.6198093941456774
0.014019329940917319,0.6201497617426821
0.014036405860455585,0.6201497617426821
0.014036405860455585,0.6204901293396868
0.01407055769953212,0.6204901293396868
0.01407055769953212,0.6208304969366917
0.014121785458146921,0.6208304969366917
0.014121785458146921,0.6211708645336964
0.014173013216761723,0.6211708645336964
0.014173013216761723,0.6215112321307011
0.014207165055838257,0.6215112321307011
0.014207165055838257,0.6218515997277059
0.014224240975376523,0.6218515997277059
0.014224240975376523,0.6221919673247107
0.014241316894914792,0.6221919673247107
0.014241316894914792,0.6225323349217154
0.014309620573067859,0.6225323349217154
0.014309620573067859,0.6228727025187202
0.014343772412144394,0.6228727025187202
0.014343772412144394,0.6235534377127298
0.014377924251220928,0.6235534377127298
0.014377924251220928,0.6238938053097345
0.014395000170759195,0.6238938053097345
0.014395000170759195,0.6245745405037441
0.01442915200983573,0.6245745405037441
0.01442915200983573,0.6249149081007488
0.014497455687988799,0.6249149081007488
0.014497455687988799,0.6252552756977535
0.0145486834466036,0.6252552756977535
0.0145486834466036,0.6255956432947584
0.014599911205218401,0.6255956432947584
0.014599911205218401,0.6262763784887678
0.014616987124756668,0.6262763784887678
0.014616987124756668,0.6269571136827774
0.014651138963833202,0.6269571136827774
0.014651138963833202,0.627637848876787
0.014685290802909737,0.627637848876787
0.014685290802909737,0.6279782164737917
0.014702366722448004,0.6279782164737917
0.014702366722448004,0.628999319264806
0.01471944264198627,0.628999319264806
0.01471944264198627,0.6293396868618107
0.014736518561524537,0.6293396868618107
0.014736518561524537,0.6296800544588155
0.014838974078754142,0.6296800544588155
0.014838974078754142,0.6300204220558203
0.014856049998292408,0.6300204220558203
0.014856049998292408,0.630360789652825
0.014958505515522011,0.630360789652825
0.014958505515522011,0.6307011572498298
0.015009733274136813,0.6307011572498298
0.015009733274136813,0.6310415248468346
0.015060961032751613,0.6310415248468346
0.015060961032751613,0.6313818924438394
0.01507803695228988,0.6313818924438394
0.01507803695228988,0.6317222600408441
0.015197568389057751,0.6317222600408441
0.015197568389057751,0.6320626276378489
0.015248796147672551,0.6320626276378489
0.015248796147672551,0.6330837304288631
0.015368327584440422,0.6330837304288631
0.015368327584440422,0.6341048332198774
0.015402479423516956,0.6341048332198774
0.015402479423516956,0.6344452008168823
0.015419555343055223,0.6344452008168823
0.015419555343055223,0.6351259360108917
0.015436631262593491,0.6351259360108917
0.015436631262593491,0.6354663036078966
0.015504934940746559,0.6354663036078966
0.015504934940746559,0.6358066712049013
0.015522010860284827,0.6358066712049013
0.015522010860284827,0.636147038801906
0.015539086779823094,0.636147038801906
0.015539086779823094,0.6364874063989108
0.01555616269936136,0.6364874063989108
0.01555616269936136,0.6368277739959156
0.015607390457976163,0.6368277739959156
0.015607390457976163,0.6371681415929203
0.0157952255728971,0.6371681415929203
0.0157952255728971,0.6378488767869299
0.015897681090126705,0.6378488767869299
0.015897681090126705,0.6381892443839347
0.016051364365971106,0.6381892443839347
0.016051364365971106,0.6385296119809394
0.01610259212458591,0.6385296119809394
0.01610259212458591,0.639210347174949
0.016136743963662444,0.639210347174949
0.016136743963662444,0.6395507147719537
0.016187971722277244,0.6395507147719537
0.016187971722277244,0.640571817562968
0.016222123561353777,0.640571817562968
0.016222123561353777,0.6409121851599727
0.016290427239506848,0.6409121851599727
0.016290427239506848,0.6412525527569776
0.016307503159045115,0.6412525527569776
0.016307503159045115,0.6415929203539823
0.01658071787165739,0.6415929203539823
0.01658071787165739,0.6436351259360109
0.016649021549810458,0.6436351259360109
0.016649021549810458,0.6446562287270252
0.016700249308425258,0.6446562287270252
0.016700249308425258,0.64499659632403
0.01676855298657833,0.64499659632403
0.01676855298657833,0.6453369639210347
0.016785628906116595,0.6453369639210347
0.016785628906116595,0.6460176991150443
0.016853932584269662,0.6460176991150443
0.016853932584269662,0.646358066712049
0.01687100850380793,0.646358066712049
0.01687100850380793,0.6466984343090538
0.016939312181961,0.6466984343090538
0.016939312181961,0.6470388019060586
0.016973464021037533,0.6470388019060586
0.016973464021037533,0.6480599046970729
0.017058843618728867,0.6480599046970729
0.017058843618728867,0.6484002722940776
0.01729790649226461,0.6484002722940776
0.01729790649226461,0.6487406398910823
0.017485741607185547,0.6487406398910823
0.017485741607185547,0.6490810074880872
0.017502817526723814,0.6490810074880872
0.017502817526723814,0.6494213750850919
0.01751989344626208,0.6494213750850919
0.01751989344626208,0.6497617426820966
0.01757112120487688,0.6497617426820966
0.01757112120487688,0.6501021102791015
0.017622348963491685,0.6501021102791015
0.017622348963491685,0.6504424778761062
0.017690652641644752,0.6504424778761062
0.017690652641644752,0.6507828454731109
0.01777603223933609,0.6507828454731109
0.01777603223933609,0.6511232130701157
0.017810184078412623,0.6511232130701157
0.017810184078412623,0.6518039482641252
0.01782725999795089,0.6518039482641252
0.01782725999795089,0.6524846834581348
0.017861411837027424,0.6524846834581348
0.017861411837027424,0.6528250510551395
0.01794679143471876,0.6528250510551395
0.01794679143471876,0.6531654186521443
0.01806632287148663,0.6531654186521443
0.01806632287148663,0.6535057862491491
0.018117550630101432,0.6535057862491491
0.018117550630101432,0.6538461538461539
0.0181346265496397,0.6538461538461539
0.0181346265496397,0.6541865214431586
0.018168778388716233,0.6541865214431586
0.018168778388716233,0.6548672566371682
0.0181858543082545,0.6548672566371682
0.0181858543082545,0.6552076242341729
0.018322461664560637,0.6552076242341729
0.018322461664560637,0.6555479918311776
0.018424917181790238,0.6555479918311776
0.018424917181790238,0.6558883594281825
0.018527372699019842,0.6558883594281825
0.018527372699019842,0.6565690946221919
0.01859567637717291,0.6565690946221919
0.01859567637717291,0.6572498298162015
0.01871520781394078,0.6572498298162015
0.01871520781394078,0.6575901974132062
0.018732283733479047,0.6575901974132062
0.018732283733479047,0.6582709326072158
0.018783511492093848,0.6582709326072158
0.018783511492093848,0.6589516678012253
0.018800587411632118,0.6589516678012253
0.018800587411632118,0.6596324029952348
0.018868891089785185,0.6596324029952348
0.018868891089785185,0.6606535057862492
0.018937194767938252,0.6606535057862492
0.018937194767938252,0.6613342409802587
0.01895427068747652,0.6613342409802587
0.01895427068747652,0.6616746085772635
0.019005498446091323,0.6616746085772635
0.019005498446091323,0.6623553437712729
0.01902257436562959,0.6623553437712729
0.01902257436562959,0.6630360789652825
0.019090878043782657,0.6630360789652825
0.019090878043782657,0.6633764465622872
0.01924456131962706,0.6633764465622872
0.01924456131962706,0.6637168141592921
0.019347016836856665,0.6637168141592921
0.019347016836856665,0.6640571817562968
0.019483624193162803,0.6640571817562968
0.019483624193162803,0.6647379169503064
0.019517776032239337,0.6647379169503064
0.019517776032239337,0.6650782845473111
0.019534851951777604,0.6650782845473111
0.019534851951777604,0.6664397549353301
0.019586079710392404,0.6664397549353301
0.019586079710392404,0.6671204901293397
0.019637307469007208,0.6671204901293397
0.019637307469007208,0.6674608577263444
0.01967145930808374,0.6674608577263444
0.01967145930808374,0.6678012253233492
0.019688535227622008,0.6678012253233492
0.019688535227622008,0.668141592920354
0.019773914825313342,0.668141592920354
0.019773914825313342,0.6684819605173588
0.01985929442300468,0.6684819605173588
0.01985929442300468,0.6688223281143635
0.01991052218161948,0.6688223281143635
0.01991052218161948,0.6691626957113683
0.019944674020696013,0.6691626957113683
0.019944674020696013,0.6695030633083731
0.01997882585977255,0.6695030633083731
0.01997882585977255,0.6698434309053778
0.02016666097469349,0.6698434309053778
0.02016666097469349,0.6701837985023825
0.02021788873330829,0.6701837985023825
0.02021788873330829,0.6708645336963921
0.020320344250537893,0.6708645336963921
0.020320344250537893,0.6718856364874064
0.020354496089614427,0.6718856364874064
0.020354496089614427,0.672566371681416
0.02043987568730576,0.672566371681416
0.02043987568730576,0.6732471068754254
0.020525255284997098,0.6732471068754254
0.020525255284997098,0.673927842069435
0.020542331204535365,0.673927842069435
0.020542331204535365,0.6742682096664397
0.020713090399918036,0.6742682096664397
0.020713090399918036,0.6746085772634445
0.02074724223899457,0.6746085772634445
0.02074724223899457,0.6749489448604493
0.020815545917147637,0.6749489448604493
0.020815545917147637,0.675289312457454
0.020832621836685907,0.675289312457454
0.020832621836685907,0.6756296800544588
0.02086677367576244,0.6756296800544588
0.02086677367576244,0.6759700476514636
0.020952153273453775,0.6759700476514636
0.020952153273453775,0.6763104152484684
0.02100338103206858,0.6763104152484684
0.02100338103206858,0.6766507828454731
0.021020456951606845,0.6766507828454731
0.021020456951606845,0.6769911504424779
0.021037532871145112,0.6769911504424779
0.021037532871145112,0.6773315180394827
0.021071684710221646,0.6773315180394827
0.021071684710221646,0.6780122532334921
0.021208292066527783,0.6780122532334921
0.021208292066527783,0.6786929884275017
0.02139612718144872,0.6786929884275017
0.02139612718144872,0.6793737236215113
0.02141320310098699,0.6793737236215113
0.02141320310098699,0.6800544588155207
0.021447354940063522,0.6800544588155207
0.021447354940063522,0.6803948264125256
0.021618114135446193,0.6803948264125256
0.021618114135446193,0.681075561606535
0.02180594925036713,0.681075561606535
0.02180594925036713,0.6817562968005446
0.02189132884805847,0.6817562968005446
0.02189132884805847,0.6820966643975493
0.02206208804344114,0.6820966643975493
0.02206208804344114,0.6824370319945541
0.022249923158362078,0.6824370319945541
0.022249923158362078,0.6827773995915589
0.022506061951436084,0.6827773995915589
0.022506061951436084,0.6831177671885637
0.02254021379051262,0.6831177671885637
0.02254021379051262,0.6837985023825732
0.022659745227280488,0.6837985023825732
0.022659745227280488,0.6851599727705923
0.022710972985895292,0.6851599727705923
0.022710972985895292,0.6858407079646017
0.02277927666404836,0.6858407079646017
0.02277927666404836,0.6861810755616066
0.022915884020354497,0.6861810755616066
0.022915884020354497,0.6865214431586113
0.022932959939892764,0.6865214431586113
0.022932959939892764,0.686861810755616
0.022967111778969297,0.686861810755616
0.022967111778969297,0.6872021783526209
0.02300126361804583,0.6872021783526209
0.02300126361804583,0.6875425459496256
0.023103719135275435,0.6875425459496256
0.023103719135275435,0.6878829135466303
0.02318909873296677,0.6878829135466303
0.02318909873296677,0.6882232811436352
0.02335985792834944,0.6882232811436352
0.02335985792834944,0.6885636487406399
0.023462313445579044,0.6885636487406399
0.023462313445579044,0.6892443839346494
0.02347938936511731,0.6892443839346494
0.02347938936511731,0.6895847515316542
0.023752604077729587,0.6895847515316542
0.023752604077729587,0.689925119128659
0.023855059594959187,0.689925119128659
0.023855059594959187,0.6902654867256637
0.023923363273112258,0.6902654867256637
0.023923363273112258,0.6906058543226685
0.023940439192650525,0.6906058543226685
0.023940439192650525,0.6909462219196733
0.02395751511218879,0.6909462219196733
0.02395751511218879,0.691286589516678
0.02397459103172706,0.691286589516678
0.02397459103172706,0.6923076923076923
0.02402581879034186,0.6923076923076923
0.02402581879034186,0.6929884275017019
0.024042894709880126,0.6929884275017019
0.024042894709880126,0.6936691626957113
0.024077046548956663,0.6936691626957113
0.024077046548956663,0.6943498978897209
0.02409412246849493,0.6943498978897209
0.02409412246849493,0.6946902654867256
0.02450394453741334,0.6946902654867256
0.02450394453741334,0.6960517358747447
0.024589324135104677,0.6960517358747447
0.024589324135104677,0.6967324710687542
0.024640551893719477,0.6967324710687542
0.024640551893719477,0.697072838665759
0.024708855571872544,0.697072838665759
0.024708855571872544,0.6974132062627638
0.02472593149141081,0.6974132062627638
0.02472593149141081,0.6977535738597685
0.02479423516956388,0.6977535738597685
0.02479423516956388,0.6980939414567733
0.024845462928178682,0.6980939414567733
0.024845462928178682,0.6984343090537781
0.024913766606331753,0.6984343090537781
0.024913766606331753,0.6987746766507829
0.025016222123561353,0.6987746766507829
0.025016222123561353,0.6991150442477876
0.02515282947986749,0.6991150442477876
0.02515282947986749,0.6994554118447924
0.025186981318944025,0.6994554118447924
0.025186981318944025,0.6997957794417972
0.02520405723848229,0.6997957794417972
0.02520405723848229,0.7004765146358066
0.025221133158020558,0.7004765146358066
0.025221133158020558,0.7008168822328115
0.025272360916635362,0.7008168822328115
0.025272360916635362,0.7011572498298162
0.025323588675250162,0.7011572498298162
0.025323588675250162,0.7014976174268209
0.025374816433864963,0.7014976174268209
0.025374816433864963,0.7021783526208305
0.025426044192479767,0.7021783526208305
0.025426044192479767,0.7025187202178352
0.0255114237901711,0.7025187202178352
0.0255114237901711,0.7031994554118448
0.025545575629247634,0.7031994554118448
0.025545575629247634,0.7035398230088495
0.0255626515487859,0.7035398230088495
0.0255626515487859,0.7038801906058543
0.02563095522693897,0.7038801906058543
0.02563095522693897,0.7045609257998638
0.02564803114647724,0.7045609257998638
0.02564803114647724,0.7049012933968686
0.025665107066015505,0.7049012933968686
0.025665107066015505,0.7052416609938734
0.02575048666370684,0.7052416609938734
0.02575048666370684,0.7062627637848877
0.02576756258324511,0.7062627637848877
0.02576756258324511,0.7066031313818925
0.02592124585908951,0.7066031313818925
0.02592124585908951,0.7069434989788972
0.026211536491240053,0.7069434989788972
0.026211536491240053,0.7072838665759019
0.026313992008469657,0.7072838665759019
0.026313992008469657,0.7079646017699115
0.02634814384754619,0.7079646017699115
0.02634814384754619,0.7083049693669162
0.026416447525699258,0.7083049693669162
0.026416447525699258,0.7086453369639211
0.026655510399235,0.7086453369639211
0.026655510399235,0.7089857045609258
0.026672586318773266,0.7089857045609258
0.026672586318773266,0.7093260721579305
0.026723814077388067,0.7093260721579305
0.026723814077388067,0.7096664397549354
0.026740889996926333,0.7096664397549354
0.026740889996926333,0.7103471749489448
0.0267579659164646,0.7103471749489448
0.0267579659164646,0.7106875425459497
0.026860421433694204,0.7106875425459497
0.026860421433694204,0.7110279101429544
0.027099484307229943,0.7110279101429544
0.027099484307229943,0.7113682777399591
0.02723609166353608,0.7113682777399591
0.02723609166353608,0.7117086453369639
0.027253167583074348,0.7117086453369639
0.027253167583074348,0.7120490129339687
0.027406850858918752,0.7120490129339687
0.027406850858918752,0.7127297481279782
0.027458078617533556,0.7127297481279782
0.027458078617533556,0.713070115724983
0.027509306376148356,0.713070115724983
0.027509306376148356,0.7134104833219878
0.027526382295686623,0.7134104833219878
0.027526382295686623,0.7137508509189925
0.0277995970082989,0.7137508509189925
0.0277995970082989,0.7140912185159973
0.027816672927837165,0.7140912185159973
0.027816672927837165,0.7147719537100068
0.027833748847375432,0.7147719537100068
0.027833748847375432,0.7157930565010211
0.028106963559987704,0.7157930565010211
0.028106963559987704,0.7161334240980258
0.028619241146135718,0.7161334240980258
0.028619241146135718,0.7164737916950307
0.02868754482428879,0.7164737916950307
0.02868754482428879,0.7168141592920354
0.028824152180594927,0.7168141592920354
0.028824152180594927,0.7171545268890401
0.02896075953690106,0.7171545268890401
0.02896075953690106,0.717494894486045
0.028994911375977598,0.717494894486045
0.028994911375977598,0.7178352620830497
0.029131518732283732,0.7178352620830497
0.029131518732283732,0.7185159972770592
0.029233974249513336,0.7185159972770592
0.029233974249513336,0.718856364874064
0.029831631433352684,0.718856364874064
0.029831631433352684,0.7191967324710687
0.029882859191967488,0.7191967324710687
0.029882859191967488,0.7195371000680735
0.029899935111505755,0.7195371000680735
0.029899935111505755,0.720217835262083
0.029917011031044022,0.720217835262083
0.029917011031044022,0.7205582028590878
0.030565895973498174,0.7205582028590878
0.030565895973498174,0.7208985704560926
0.03058297189303644,0.7208985704560926
0.03058297189303644,0.7212389380530974
0.030617123732112974,0.7212389380530974
0.030617123732112974,0.7215793056501021
0.03063419965165124,0.7215793056501021
0.03063419965165124,0.7222600408441117
0.030719579249342578,0.7222600408441117
0.030719579249342578,0.7226004084411164
0.031146477237799255,0.7226004084411164
0.031146477237799255,0.7229407760381211
0.03128308459410539,0.7229407760381211
0.03128308459410539,0.7236215112321307
0.031402616030873264,0.7236215112321307
0.031402616030873264,0.7239618788291354
0.0314367678699498,0.7239618788291354
0.0314367678699498,0.7243022464261403
0.0315392233871794,0.7243022464261403
0.0315392233871794,0.724642614023145
0.03157337522625593,0.724642614023145
0.03157337522625593,0.7249829816201497
0.03196612137563608,0.7249829816201497
0.03196612137563608,0.7253233492171546
0.032051500973327415,0.7253233492171546
0.032051500973327415,0.7256637168141593
0.03206857689286568,0.7256637168141593
0.03206857689286568,0.726004084411164
0.03213688057101875,0.726004084411164
0.03213688057101875,0.7263444520081688
0.032171032410095286,0.7263444520081688
0.032171032410095286,0.7266848196051736
0.03237594344455449,0.7266848196051736
0.03237594344455449,0.7270251872021783
0.03241009528363102,0.7270251872021783
0.03241009528363102,0.7273655547991831
0.032768689593934634,0.7273655547991831
0.032768689593934634,0.7280462899931927
0.03290529695024077,0.7280462899931927
0.03290529695024077,0.7283866575901974
0.03324681534100611,0.7283866575901974
0.03324681534100611,0.729067392784207
0.03334927085823572,0.729067392784207
0.03334927085823572,0.7294077603812117
0.03348587821454185,0.7294077603812117
0.03348587821454185,0.7297481279782164
0.03353710597315666,0.7297481279782164
0.03353710597315666,0.730428863172226
0.033588333731771454,0.730428863172226
0.033588333731771454,0.7307692307692307
0.03369078924900106,0.7307692307692307
0.03369078924900106,0.731790333560245
0.033707865168539325,0.731790333560245
0.033707865168539325,0.7321307011572499
0.033724941088077595,0.7321307011572499
0.033724941088077595,0.7324710687542546
0.033844472524845466,0.7324710687542546
0.033844472524845466,0.7328114363512593
0.03386154844438373,0.7328114363512593
0.03386154844438373,0.7331518039482642
0.0339298521225368,0.7331518039482642
0.0339298521225368,0.7334921715452689
0.033998155800689864,0.7334921715452689
0.033998155800689864,0.7338325391422736
0.0340835353983812,0.7338325391422736
0.0340835353983812,0.7345132743362832
0.034134763156996005,0.7345132743362832
0.034134763156996005,0.734853641933288
0.03418599091561081,0.734853641933288
0.03418599091561081,0.7351940095302927
0.034237218674225606,0.7351940095302927
0.034237218674225606,0.7355343771272975
0.03432259827191694,0.7355343771272975
0.03432259827191694,0.7358747447243023
0.034425053789146544,0.7358747447243023
0.034425053789146544,0.736215112321307
0.03461288890406748,0.736215112321307
0.03461288890406748,0.7365554799183118
0.0350227109729859,0.7365554799183118
0.0350227109729859,0.7368958475153166
0.03505686281206243,0.7368958475153166
0.03505686281206243,0.737576582709326
0.035091014651138966,0.737576582709326
0.035091014651138966,0.7379169503063309
0.035176394248830296,0.7379169503063309
0.035176394248830296,0.7382573179033356
0.03521054608790684,0.7382573179033356
0.03521054608790684,0.7385976855003403
0.03596188654759059,0.7385976855003403
0.03596188654759059,0.7389380530973452
0.036115569823434994,0.7389380530973452
0.036115569823434994,0.7392784206943499
0.036320480857894195,0.7392784206943499
0.036320480857894195,0.7396187882913546
0.0364229363751238,0.7396187882913546
0.0364229363751238,0.7399591558883595
0.03667907516819781,0.7399591558883595
0.03667907516819781,0.7402995234853642
0.036747378846350875,0.7402995234853642
0.036747378846350875,0.7406398910823689
0.03678153068542741,0.7406398910823689
0.03678153068542741,0.7409802586793737
0.036866910283118746,0.7409802586793737
0.036866910283118746,0.7413206262763785
0.03696936580034835,0.7413206262763785
0.03696936580034835,0.7416609938733832
0.037071821317577955,0.7416609938733832
0.037071821317577955,0.742001361470388
0.03719135275434582,0.742001361470388
0.03719135275434582,0.7423417290673928
0.03734503603019022,0.7423417290673928
0.03734503603019022,0.7426820966643976
0.03773778217957037,0.7426820966643976
0.03773778217957037,0.7430224642614023
0.03782316177726171,0.7430224642614023
0.03782316177726171,0.7433628318584071
0.03794269321402958,0.7433628318584071
0.03794269321402958,0.7437031994554119
0.038113452409412246,0.7437031994554119
0.038113452409412246,0.7440435670524166
0.038403743041562785,0.7440435670524166
0.038403743041562785,0.7443839346494214
0.038420818961101055,0.7443839346494214
0.038420818961101055,0.7447243022464262
0.03847204671971586,0.7447243022464262
0.03847204671971586,0.7450646698434309
0.038864792869096,0.7450646698434309
0.038864792869096,0.7457454050374405
0.03888186878863427,0.7457454050374405
0.03888186878863427,0.7460857726344452
0.038967248386325606,0.7460857726344452
0.038967248386325606,0.7464261402314499
0.03920631125986134,0.7464261402314499
0.03920631125986134,0.7467665078284548
0.039274614938014415,0.7467665078284548
0.039274614938014415,0.7471068754254595
0.03934291861616748,0.7471068754254595
0.03934291861616748,0.7474472430224642
0.03939414637478228,0.7474472430224642
0.03939414637478228,0.7477876106194691
0.03970151292647109,0.7477876106194691
0.03970151292647109,0.7481279782164738
0.039769816604624156,0.7481279782164738
0.039769816604624156,0.7484683458134785
0.04002595539769817,0.7484683458134785
0.04002595539769817,0.7488087134104833
0.04023086643215737,0.7488087134104833
0.04023086643215737,0.7491490810074881
0.04055530890338445,0.7491490810074881
0.04055530890338445,0.7494894486044928
0.04057238482292271,0.7494894486044928
0.04057238482292271,0.7498298162014976
0.04086267545507326,0.7498298162014976
0.04086267545507326,0.7501701837985024
0.04089682729414979,0.7501701837985024
0.04089682729414979,0.7505105513955072
0.040930979133226325,0.7505105513955072
0.040930979133226325,0.7511912865895167
0.04099928281137939,0.7511912865895167
0.04099928281137939,0.7515316541865215
0.041050510569994196,0.7515316541865215
0.041050510569994196,0.7518720217835262
0.041443256719374336,0.7518720217835262
0.041443256719374336,0.7522123893805309
0.04152863631706567,0.7522123893805309
0.04152863631706567,0.7528931245745405
0.04181892694921621,0.7528931245745405
0.04181892694921621,0.7532334921715452
0.04192138246644582,0.7532334921715452
0.04192138246644582,0.7539142273655548
0.04204091390321369,0.7539142273655548
0.04204091390321369,0.7542545949625595
0.04231412861582596,0.7542545949625595
0.04231412861582596,0.7545949625595644
0.042604419247976505,0.7545949625595644
0.042604419247976505,0.7549353301565691
0.04298008947781838,0.7549353301565691
0.04298008947781838,0.7552756977535738
0.04321915235135412,0.7552756977535738
0.04321915235135412,0.7556160653505786
0.043424063385813325,0.7556160653505786
0.043424063385813325,0.7559564329475834
0.04366312625934907,0.7559564329475834
0.04366312625934907,0.7566371681415929
0.043731429937502134,0.7566371681415929
0.043731429937502134,0.7569775357385977
0.04390218913288481,0.7569775357385977
0.04390218913288481,0.7573179033356024
0.04393634097196134,0.7573179033356024
0.04393634097196134,0.7576582709326072
0.04402172056965267,0.7576582709326072
0.04402172056965267,0.7583390061266168
0.04409002424780575,0.7583390061266168
0.04409002424780575,0.7586793737236215
0.04412417608688228,0.7586793737236215
0.04412417608688228,0.7590197413206263
0.044277859362726685,0.7590197413206263
0.044277859362726685,0.7593601089176311
0.044687681431645095,0.7593601089176311
0.044687681431645095,0.7597004765146358
0.04477306102933643,0.7597004765146358
0.04477306102933643,0.7600408441116405
0.0450462757419487,0.7600408441116405
0.0450462757419487,0.7603812117086454
0.04516580717871657,0.7603812117086454
0.04516580717871657,0.7607215793056501
0.04537071821317578,0.7607215793056501
0.04537071821317578,0.7610619469026548
0.04547317373040538,0.7610619469026548
0.04547317373040538,0.7614023144996597
0.045626857006249785,0.7614023144996597
0.045626857006249785,0.7617426820966644
0.04588299579932379,0.7617426820966644
0.04588299579932379,0.7620830496936691
0.045951299477476865,0.7620830496936691
0.045951299477476865,0.762423417290674
0.04601960315562993,0.762423417290674
0.04601960315562993,0.7627637848876787
0.046036679075168195,0.7627637848876787
0.046036679075168195,0.7631041524846834
0.04612205867285953,0.7631041524846834
0.04612205867285953,0.7634445200816882
0.046156210511936066,0.7634445200816882
0.046156210511936066,0.763784887678693
0.0461903623510126,0.763784887678693
0.0461903623510126,0.7641252552756977
0.046258666029165674,0.7641252552756977
0.046258666029165674,0.7644656228727025
0.04637819746593354,0.7644656228727025
0.04637819746593354,0.7648059904697073
0.04675386769577542,0.7648059904697073
0.04675386769577542,0.765146358066712
0.04706123424746422,0.765146358066712
0.04706123424746422,0.7654867256637168
0.04707831016700249,0.7654867256637168
0.04707831016700249,0.7658270932607216
0.0471295379256173,0.7658270932607216
0.0471295379256173,0.7661674608577264
0.04716368976469383,0.7661674608577264
0.04736860079915303,0.7661674608577264
0.04736860079915303,0.7665078284547311
0.04755643591407397,0.7665078284547311
0.04755643591407397,0.7668481960517358
0.04757351183361224,0.7668481960517358
0.04757351183361224,0.7675289312457454
0.04781257470714798,0.7675289312457454
0.04781257470714798,0.7678692988427501
0.047846726546224516,0.7678692988427501
0.047846726546224516,0.768209666439755
0.04788087838530105,0.768209666439755
0.04788087838530105,0.7685500340367597
0.04793210614391585,0.7685500340367597
0.04793210614391585,0.7688904016337644
0.048017485741607184,0.7688904016337644
0.048017485741607184,0.7692307692307693
0.04841023189098733,0.7692307692307693
0.04841023189098733,0.769571136827774
0.04849561148867867,0.769571136827774
0.04849561148867867,0.7699115044247787
0.04870052252313787,0.7699115044247787
0.04870052252313787,0.7705922396187883
0.0487346743622144,0.7705922396187883
0.0487346743622144,0.770932607215793
0.04876882620129094,0.770932607215793
0.04876882620129094,0.7712729748127978
0.048973737235750145,0.7712729748127978
0.048973737235750145,0.7716133424098026
0.04912742051159455,0.7716133424098026
0.04912742051159455,0.7722940776038121
0.04945186298282162,0.7722940776038121
0.04945186298282162,0.7726344452008169
0.04955431850005123,0.7726344452008169
0.04955431850005123,0.7729748127978217
0.049912912810354836,0.7729748127978217
0.049912912810354836,0.7736555479918312
0.05013489976435231,0.7736555479918312
0.05013489976435231,0.773995915588836
0.05016905160342885,0.773995915588836
0.05016905160342885,0.7743362831858407
0.05028858304019671,0.7743362831858407
0.05028858304019671,0.7746766507828454
0.050322734879273245,0.7746766507828454
0.050322734879273245,0.7750170183798503
0.05042519039650285,0.7750170183798503
0.05042519039650285,0.775357385976855
0.05056179775280899,0.775357385976855
0.05056179775280899,0.7756977535738597
0.05068132918957686,0.7756977535738597
0.05068132918957686,0.7763784887678693
0.05073255694819166,0.7763784887678693
0.05073255694819166,0.776718856364874
0.05114237901711007,0.776718856364874
0.05114237901711007,0.7770592239618789
0.051159454936648335,0.7770592239618789
0.051159454936648335,0.7777399591558883
0.05121068269526314,0.7777399591558883
0.05121068269526314,0.7784206943498979
0.05126191045387794,0.7784206943498979
0.05126191045387794,0.7787610619469026
0.05133021413203101,0.7787610619469026
0.05133021413203101,0.7791014295439074
0.05153512516649022,0.7791014295439074
0.05153512516649022,0.7794417971409122
0.05156927700556675,0.7794417971409122
0.05156927700556675,0.779782164737917
0.05185956763771729,0.779782164737917
0.05185956763771729,0.7801225323349217
0.05223523786755917,0.7801225323349217
0.05223523786755917,0.7804628999319265
0.0522693897066357,0.7804628999319265
0.0522693897066357,0.7808032675289313
0.05228646562617397,0.7808032675289313
0.05228646562617397,0.781143635125936
0.05233769338478877,0.781143635125936
0.05233769338478877,0.7814840027229408
0.052525528499709706,0.7814840027229408
0.052525528499709706,0.7818243703199456
0.05279874321232198,0.7818243703199456
0.05279874321232198,0.7821647379169503
0.05344762815477613,0.7821647379169503
0.05344762815477613,0.782505105513955
0.05377207062600321,0.782505105513955
0.05377207062600321,0.7831858407079646
0.05384037430415628,0.7831858407079646
0.05384037430415628,0.7835262083049693
0.05385745022369454,0.7835262083049693
0.05385745022369454,0.7842069434989789
0.05402820941907722,0.7842069434989789
0.05402820941907722,0.7845473110959836
0.05426727229261296,0.7845473110959836
0.05426727229261296,0.7848876786929885
0.0545575629247635,0.7848876786929885
0.0545575629247635,0.7855684138869979
0.05472832212014617,0.7855684138869979
0.05472832212014617,0.7859087814840027
0.054933233154605375,0.7859087814840027
0.054933233154605375,0.7862491490810075
0.055035688671834976,0.7862491490810075
0.055035688671834976,0.7865895166780122
0.05520644786721765,0.7865895166780122
0.05520644786721765,0.786929884275017
0.055257675625832454,0.786929884275017
0.055257675625832454,0.7872702518720218
0.05529182746490899,0.7872702518720218
0.05529182746490899,0.7876106194690266
0.05530890338444725,0.7876106194690266
0.05530890338444725,0.7879509870660313
0.05583825689013353,0.7879509870660313
0.05583825689013353,0.7882913546630361
0.055872408729210066,0.7882913546630361
0.055872408729210066,0.7886317222600409
0.05597486424643967,0.7886317222600409
0.05597486424643967,0.7889720898570456
0.05599194016597794,0.7889720898570456
0.05599194016597794,0.7893124574540503
0.05612854752228408,0.7893124574540503
0.05612854752228408,0.7896528250510552
0.05614562344182234,0.7896528250510552
0.05614562344182234,0.7899931926480599
0.05638468631535808,0.7899931926480599
0.05638468631535808,0.7903335602450646
0.056606673269355555,0.7903335602450646
0.056606673269355555,0.7910142954390742
0.056709128786585156,0.7910142954390742
0.056709128786585156,0.7913546630360789
0.05681158430381476,0.7913546630360789
0.05681158430381476,0.7916950306330838
0.05686281206242956,0.7916950306330838
0.05686281206242956,0.7920353982300885
0.05706772309688877,0.7920353982300885
0.05706772309688877,0.7923757658270932
0.05718725453365664,0.7923757658270932
0.05718725453365664,0.7927161334240981
0.057238482292271436,0.7927161334240981
0.057238482292271436,0.7930565010211028
0.05727263413134797,0.7930565010211028
0.05727263413134797,0.7933968686181075
0.05730678597042451,0.7933968686181075
0.05730678597042451,0.7940776038121171
0.05752877292442198,0.7940776038121171
0.05752877292442198,0.7944179714091218
0.05781906355657252,0.7944179714091218
0.05781906355657252,0.7947583390061266
0.058263037464567465,0.7947583390061266
0.058263037464567465,0.7950987066031314
0.0583484170622588,0.7950987066031314
0.0583484170622588,0.7954390742001362
0.05836549298179707,0.7954390742001362
0.05836549298179707,0.7957794417971409
0.05841672074041187,0.7957794417971409
0.05841672074041187,0.7961198093941457
0.05846794849902667,0.7961198093941457
0.05846794849902667,0.7964601769911505
0.058587479935794544,0.7964601769911505
0.058587479935794544,0.7968005445881552
0.05908268160240429,0.7968005445881552
0.05908268160240429,0.7971409121851599
0.0594925036713227,0.7971409121851599
0.0594925036713227,0.7974812797821648
0.0595949591885523,0.7974812797821648
0.0595949591885523,0.7978216473791695
0.059834022062088044,0.7978216473791695
0.059834022062088044,0.7981620149761742
0.059851097981626314,0.7981620149761742
0.059851097981626314,0.7985023825731791
0.059953553498855915,0.7985023825731791
0.059953553498855915,0.7988427501701838
0.060363375567774324,0.7988427501701838
0.060363375567774324,0.7995234853641934
0.06041460332638913,0.7995234853641934
0.06041460332638913,0.7998638529611981
0.060482907004542195,0.7998638529611981
0.060482907004542195,0.8002042205582028
0.060602438441310066,0.8002042205582028
0.060602438441310066,0.8005445881552076
0.06094395683207541,0.8005445881552076
0.06094395683207541,0.8008849557522124
0.061012260510228476,0.8008849557522124
0.061012260510228476,0.8012253233492171
0.061217171544687685,0.8012253233492171
0.061217171544687685,0.8015656909462219
0.06126839930330248,0.8015656909462219
0.06126839930330248,0.8019060585432267
0.06154161401591476,0.8019060585432267
0.06154161401591476,0.8022464261402315
0.06191728424575663,0.8022464261402315
0.06191728424575663,0.8025867937372362
0.061934360165294904,0.8025867937372362
0.061934360165294904,0.802927161334241
0.06239540999282812,0.802927161334241
0.06239540999282812,0.8032675289312458
0.06253201734913424,0.8032675289312458
0.06253201734913424,0.8036078965282505
0.06268570062497865,0.8036078965282505
0.06268570062497865,0.8039482641252553
0.06271985246405519,0.8039482641252553
0.06271985246405519,0.8042886317222601
0.0628223079812848,0.8042886317222601
0.0628223079812848,0.8046289993192648
0.06306137085482053,0.8046289993192648
0.06306137085482053,0.8056501021102791
0.06316382637205013,0.8056501021102791
0.06316382637205013,0.8059904697072838
0.06326628188927974,0.8059904697072838
0.06326628188927974,0.8066712049012934
0.06364195211912162,0.8066712049012934
0.06364195211912162,0.8070115724982981
0.06393224275127216,0.8070115724982981
0.06393224275127216,0.807351940095303
0.0639663945903487,0.807351940095303
0.0639663945903487,0.8076923076923077
0.0642737611420375,0.8076923076923077
0.0642737611420375,0.8080326752893124
0.0643249889006523,0.8080326752893124
0.0643249889006523,0.808713410483322
0.0643762166592671,0.808713410483322
0.0643762166592671,0.8090537780803267
0.0645811276937263,0.8090537780803267
0.0645811276937263,0.8093941456773315
0.06463235545234111,0.8093941456773315
0.06463235545234111,0.8097345132743363
0.06526416447525699,0.8097345132743363
0.06526416447525699,0.810074880871341
0.0653153922338718,0.810074880871341
0.0653153922338718,0.8104152484683458
0.06543492367063966,0.8104152484683458
0.06543492367063966,0.8110959836623554
0.0657252143027902,0.8110959836623554
0.0657252143027902,0.8114363512593601
0.06584474573955808,0.8114363512593601
0.06584474573955808,0.8117767188563648
0.06608380861309382,0.8117767188563648
0.06608380861309382,0.8121170864533697
0.06620334004986168,0.8121170864533697
0.06620334004986168,0.8124574540503744
0.06628871964755302,0.8124574540503744
0.06628871964755302,0.8127978216473791
0.06630579556709129,0.8127978216473791
0.06630579556709129,0.813138189244384
0.06635702332570609,0.813138189244384
0.06635702332570609,0.8134785568413887
0.06642532700385916,0.8134785568413887
0.06642532700385916,0.8138189244383934
0.0664594788429357,0.8138189244383934
0.0664594788429357,0.8141592920353983
0.06649363068201222,0.8141592920353983
0.06649363068201222,0.814499659632403
0.06685222499231584,0.814499659632403
0.06685222499231584,0.8148400272294077
0.06722789522215772,0.8148400272294077
0.06722789522215772,0.8151803948264126
0.06726204706123425,0.8151803948264126
0.06726204706123425,0.815861130020422
0.06736450257846385,0.815861130020422
0.06736450257846385,0.8162014976174268
0.0676035654519996,0.8162014976174268
0.0676035654519996,0.8165418652144316
0.06763771729107612,0.8165418652144316
0.06763771729107612,0.8168822328114363
0.06772309688876746,0.8168822328114363
0.06772309688876746,0.8172226004084411
0.0678084764864588,0.8172226004084411
0.0678084764864588,0.8175629680054459
0.06844028550937468,0.8175629680054459
0.06844028550937468,0.8179033356024507
0.06876472798060175,0.8179033356024507
0.06876472798060175,0.8182437031994554
0.06881595573921656,0.8182437031994554
0.06881595573921656,0.8185840707964602
0.06885010757829309,0.8185840707964602
0.06885010757829309,0.8192648059904697
0.06965267579659165,0.8192648059904697
0.06965267579659165,0.8196051735874744
0.06970390355520645,0.8196051735874744
0.06970390355520645,0.8199455411844793
0.06973805539428299,0.8199455411844793
0.06973805539428299,0.820285908781484
0.06990881458966565,0.820285908781484
0.06990881458966565,0.8206262763784887
0.0706089272907346,0.8206262763784887
0.0706089272907346,0.8209666439754936
0.07093336976196168,0.8209666439754936
0.07093336976196168,0.8219877467665079
0.07096752160103821,0.8219877467665079
0.07096752160103821,0.8223281143635126
0.07118950855503568,0.8223281143635126
0.07118950855503568,0.8226684819605173
0.07141149550903317,0.8226684819605173
0.07141149550903317,0.8230088495575221
0.07187254533656637,0.8230088495575221
0.07187254533656637,0.8243703199455412
0.07233359516409958,0.8243703199455412
0.07233359516409958,0.824710687542546
0.07245312660086746,0.824710687542546
0.07245312660086746,0.8250510551395507
0.07267511355486493,0.8250510551395507
0.07267511355486493,0.8253914227365555
0.07327277073870428,0.8253914227365555
0.07327277073870428,0.8257317903335603
0.07397288343977323,0.8257317903335603
0.07397288343977323,0.826072157930565
0.0739899593593115,0.826072157930565
0.0739899593593115,0.8264125255275698
0.07469007206038045,0.8264125255275698
0.07469007206038045,0.8267528931245746
0.07477545165807178,0.8267528931245746
0.07477545165807178,0.8270932607215793
0.07489498309483966,0.8270932607215793
0.07489498309483966,0.827433628318584
0.07491205901437792,0.827433628318584
0.07491205901437792,0.8277739959155889
0.07492913493391619,0.8277739959155889
0.07492913493391619,0.8281143635125936
0.07499743861206926,0.8281143635125936
0.07499743861206926,0.8284547311095983
0.07521942556606673,0.8284547311095983
0.07521942556606673,0.8287950987066032
0.07557801987637035,0.8287950987066032
0.07557801987637035,0.8291354663036079
0.07566339947406168,0.8291354663036079
0.07566339947406168,0.8294758339006126
0.07609029746251836,0.8294758339006126
0.07609029746251836,0.8298162014976175
0.07615860114067143,0.8298162014976175
0.07615860114067143,0.8301565690946222
0.07679041016358731,0.8301565690946222
0.07679041016358731,0.8304969366916269
0.07684163792220211,0.8304969366916269
0.07684163792220211,0.8311776718856365
0.07689286568081691,0.8311776718856365
0.07689286568081691,0.8315180394826412
0.07742221918650319,0.8315180394826412
0.07742221918650319,0.831858407079646
0.07745637102557973,0.831858407079646
0.07745637102557973,0.8321987746766508
0.07766128206003893,0.8321987746766508
0.07766128206003893,0.8325391422736556
0.07778081349680681,0.8325391422736556
0.07778081349680681,0.8328795098706603
0.07800280045080428,0.8328795098706603
0.07800280045080428,0.8332198774676651
0.07805402820941908,0.8332198774676651
0.07805402820941908,0.8335602450646699
0.07810525596803387,0.8335602450646699
0.07810525596803387,0.8339006126616746
0.07849800211741402,0.8339006126616746
0.07849800211741402,0.8342409802586793
0.07871998907141149,0.8342409802586793
0.07871998907141149,0.8345813478556842
0.07916396297940644,0.8345813478556842
0.07916396297940644,0.8349217154526889
0.07930057033571258,0.8349217154526889
0.07930057033571258,0.8352620830496936
0.07936887401386565,0.8352620830496936
0.07936887401386565,0.8356024506466985
0.07947132953109524,0.8356024506466985
0.07947132953109524,0.8359428182437032
0.07982992384139886,0.8359428182437032
0.07982992384139886,0.8362831858407079
0.08003483487585807,0.8362831858407079
0.08003483487585807,0.8366235534377128
0.0803763532666234,0.8366235534377128
0.0803763532666234,0.8373042886317222
0.08123014924353676,0.8373042886317222
0.08123014924353676,0.8376446562287271
0.08133260476076637,0.8376446562287271
0.08133260476076637,0.8379850238257318
0.0814692121170725,0.8379850238257318
0.0814692121170725,0.8383253914227365
0.0815204398756873,0.8383253914227365
0.0815204398756873,0.8390061266167461
0.08157166763430211,0.8390061266167461
0.08157166763430211,0.8393464942137508
0.08165704723199345,0.8393464942137508
0.08165704723199345,0.8396868618107556
0.08172535091014652,0.8396868618107556
0.08172535091014652,0.8400272294077604
0.08179365458829958,0.8400272294077604
0.08179365458829958,0.8403675970047652
0.08181073050783785,0.8403675970047652
0.08181073050783785,0.8407079646017699
0.08204979338137358,0.8407079646017699
0.08204979338137358,0.8410483321987747
0.08220347665721799,0.8410483321987747
0.08220347665721799,0.8413886997957795
0.0824083876916772,0.8413886997957795
0.0824083876916772,0.8417290673927842
0.08264745056521294,0.8417290673927842
0.08264745056521294,0.8420694349897889
0.0826645264847512,0.8420694349897889
0.0826645264847512,0.8424098025867938
0.08268160240428947,0.8424098025867938
0.08268160240428947,0.8427501701837985
0.08293774119736348,0.8427501701837985
0.08293774119736348,0.8430905377808032
0.08322803182951402,0.8430905377808032
0.08322803182951402,0.8434309053778081
0.08333048734674363,0.8434309053778081
0.08333048734674363,0.8437712729748128
0.08334756326628188,0.8437712729748128
0.08334756326628188,0.8441116405718175
0.08363785389843242,0.8441116405718175
0.08363785389843242,0.8444520081688224
0.08377446125473857,0.8444520081688224
0.08377446125473857,0.8447923757658271
0.08428673884088658,0.8447923757658271
0.08428673884088658,0.8451327433628318
0.08467948499026673,0.8451327433628318
0.08467948499026673,0.8454731109598366
0.08476486458795807,0.8454731109598366
0.08476486458795807,0.8458134785568414
0.0847990164270346,0.8458134785568414
0.0847990164270346,0.8461538461538461
0.08496977562241727,0.8461538461538461
0.08496977562241727,0.8464942137508509
0.08575526792117756,0.8464942137508509
0.08575526792117756,0.8468345813478557
0.08597725487517503,0.8468345813478557
0.08597725487517503,0.8471749489448605
0.08607971039240463,0.8471749489448605
0.08607971039240463,0.8475153165418652
0.08647245654178477,0.8475153165418652
0.08647245654178477,0.84785568413887
0.08654076021993784,0.84785568413887
0.08654076021993784,0.8481960517358748
0.08674567125439706,0.8481960517358748
0.08674567125439706,0.8485364193328795
0.08679689901301185,0.8485364193328795
0.08679689901301185,0.8488767869298843
0.08693350636931799,0.8488767869298843
0.08693350636931799,0.8492171545268891
0.08715549332331546,0.8492171545268891
0.08715549332331546,0.8495575221238938
0.0873945561968512,0.8495575221238938
0.0873945561968512,0.8498978897208985
0.08807759297838189,0.8498978897208985
0.08807759297838189,0.8502382573179034
0.0883337317714559,0.8502382573179034
0.0883337317714559,0.8505786249149081
0.08845326320822376,0.8505786249149081
0.08845326320822376,0.8512593601089177
0.08870940200129777,0.8512593601089177
0.08870940200129777,0.8515997277059224
0.08905092039206311,0.8515997277059224
0.08905092039206311,0.8519400953029271
0.08937536286329019,0.8519400953029271
0.08937536286329019,0.852280462899932
0.09000717188620608,0.852280462899932
0.09000717188620608,0.8526208304969367
0.0900413237252826,0.8526208304969367
0.0900413237252826,0.8529611980939414
0.09014377924251221,0.8529611980939414
0.09014377924251221,0.8533015656909462
0.09057067723096889,0.8533015656909462
0.09057067723096889,0.853641933287951
0.09079266418496636,0.853641933287951
0.09079266418496636,0.8539823008849557
0.09104880297804037,0.8539823008849557
0.09104880297804037,0.8546630360789653
0.09157815648372665,0.8546630360789653
0.09157815648372665,0.85500340367597
0.09173183975957105,0.85500340367597
0.09173183975957105,0.8556841388699796
0.09219288958710427,0.8556841388699796
0.09219288958710427,0.8560245064669844
0.0922270414261808,0.8560245064669844
0.0922270414261808,0.8563648740639891
0.09226119326525734,0.8563648740639891
0.09226119326525734,0.8567052416609938
0.0923807247020252,0.8567052416609938
0.0923807247020252,0.8570456092579987
0.09272224309279055,0.8570456092579987
0.09272224309279055,0.8573859768550034
0.09299545780540282,0.8573859768550034
0.09299545780540282,0.8577263444520081
0.09301253372494109,0.8577263444520081
0.09301253372494109,0.858066712049013
0.09304668556401763,0.858066712049013
0.09304668556401763,0.8584070796460177
0.09361019090878044,0.8584070796460177
0.09361019090878044,0.8587474472430224
0.09431030360984939,0.8587474472430224
0.09431030360984939,0.859428182437032
0.09501041631091835,0.859428182437032
0.09501041631091835,0.8597685500340367
0.09533485878214541,0.8597685500340367
0.09533485878214541,0.8601089176310415
0.09579590860967863,0.8601089176310415
0.09579590860967863,0.8604492852280463
0.09634233803490318,0.8604492852280463
0.09634233803490318,0.860789652825051
0.09745227280489055,0.860789652825051
0.09745227280489055,0.8611300204220558
0.09767425975888802,0.8611300204220558
0.09767425975888802,0.8614703880190606
0.09777671527611762,0.8614703880190606
0.09777671527611762,0.8621511232130701
0.09799870223011509,0.8621511232130701
0.09799870223011509,0.8624914908100749
0.0983060687818039,0.8624914908100749
0.0983060687818039,0.8628318584070797
0.09842560021857177,0.8628318584070797
0.09842560021857177,0.8631722260040844
0.09863051125303098,0.8631722260040844
0.09863051125303098,0.8635125936010892
0.0994501553908678,0.8635125936010892
0.0994501553908678,0.863852961198094
0.09953553498855913,0.863852961198094
0.09953553498855913,0.8641933287950987
0.09974044602301833,0.8641933287950987
0.09974044602301833,0.8645336963921034
0.09992828113793928,0.8645336963921034
0.09992828113793928,0.8648740639891083
0.09999658481609235,0.8648740639891083
0.09999658481609235,0.865214431586113
0.10042348280454902,0.865214431586113
0.10042348280454902,0.8655547991831177
0.10050886240224036,0.8655547991831177
0.10050886240224036,0.8658951667801226
0.10151634165499812,0.8658951667801226
0.10151634165499812,0.8662355343771273
0.10161879717222773,0.8662355343771273
0.10161879717222773,0.8669162695711369
0.10172125268945732,0.8669162695711369
0.10172125268945732,0.8672566371681416
0.10175540452853386,0.8672566371681416
0.10175540452853386,0.8675970047651463
0.10187493596530173,0.8675970047651463
0.10187493596530173,0.8679373723621511
0.10206277108022267,0.8679373723621511
0.10206277108022267,0.8682777399591559
0.10238721355144975,0.8682777399591559
0.10238721355144975,0.8686181075561606
0.10264335234452375,0.8686181075561606
0.10264335234452375,0.8689584751531654
0.10375328711451112,0.8689584751531654
0.10375328711451112,0.8692988427501702
0.10402650182712339,0.8692988427501702
0.10402650182712339,0.869639210347175
0.10409480550527646,0.869639210347175
0.10409480550527646,0.8699795779441797
0.10431679245927393,0.8699795779441797
0.10431679245927393,0.8703199455411845
0.10436802021788873,0.8703199455411845
0.10436802021788873,0.8706603131381893
0.10455585533280967,0.8706603131381893
0.10455585533280967,0.871000680735194
0.10505105699941941,0.871000680735194
0.10505105699941941,0.8713410483321987
0.10556333458556744,0.8713410483321987
0.10556333458556744,0.8716814159292036
0.10571701786141184,0.8716814159292036
0.10571701786141184,0.8720217835262083
0.10581947337864143,0.8720217835262083
0.10581947337864143,0.872362151123213
0.10624637136709812,0.872362151123213
0.10624637136709812,0.8727025187202179
0.10631467504525119,0.8727025187202179
0.10631467504525119,0.8730428863172226
0.1066732693555548,0.8730428863172226
0.1066732693555548,0.8733832539142273
0.10675864895324613,0.8733832539142273
0.10675864895324613,0.8737236215112322
0.10704893958539667,0.8737236215112322
0.10704893958539667,0.8740639891082369
0.10710016734401147,0.8740639891082369
0.10710016734401147,0.8744043567052416
0.10716847102216455,0.8744043567052416
0.10716847102216455,0.8747447243022465
0.10720262286124108,0.8747447243022465
0.10720262286124108,0.8750850918992512
0.10742460981523855,0.8750850918992512
0.10742460981523855,0.8754254594962559
0.10757829309108295,0.8754254594962559
0.10757829309108295,0.8757658270932607
0.1079710392404631,0.8757658270932607
0.1079710392404631,0.8761061946902655
0.10940541648167754,0.8761061946902655
0.10940541648167754,0.8764465622872702
0.1094737201598306,0.8764465622872702
0.1094737201598306,0.876786929884275
0.11008845326320822,0.876786929884275
0.11008845326320822,0.8771272974812798
0.11015675694136129,0.8771272974812798
0.11015675694136129,0.8774676650782846
0.11017383286089956,0.8774676650782846
0.11017383286089956,0.8781484002722941
0.11032751613674396,0.8781484002722941
0.11032751613674396,0.8784887678692989
0.11087394556196851,0.8784887678692989
0.11087394556196851,0.8788291354663036
0.1116594378607288,0.8788291354663036
0.1116594378607288,0.8791695030633083
0.11235955056179775,0.8791695030633083
0.11235955056179775,0.8795098706603132
0.11292305590656057,0.8795098706603132
0.11292305590656057,0.8801906058543226
0.11309381510194325,0.8801906058543226
0.11309381510194325,0.8805309734513275
0.11324749837778765,0.8805309734513275
0.11324749837778765,0.8808713410483322
0.11334995389501724,0.8808713410483322
0.11334995389501724,0.8812117086453369
0.11341825757317031,0.8812117086453369
0.11341825757317031,0.8815520762423418
0.11355486492947645,0.8815520762423418
0.11355486492947645,0.8818924438393465
0.11375977596393566,0.8818924438393465
0.11375977596393566,0.8822328114363512
0.11413544619377754,0.8822328114363512
0.11413544619377754,0.882573179033356
0.11430620538916021,0.882573179033356
0.11430620538916021,0.8829135466303608
0.11432328130869847,0.8829135466303608
0.11432328130869847,0.8832539142273655
0.11497216625115263,0.8832539142273655
0.11497216625115263,0.8835942818243703
0.11521122912468837,0.8835942818243703
0.11521122912468837,0.8839346494213751
0.11522830504422663,0.8839346494213751
0.11522830504422663,0.8842750170183798
0.11599672142344865,0.8842750170183798
0.11599672142344865,0.8846153846153846
0.1161845565383696,0.8846153846153846
0.1161845565383696,0.8849557522123894
0.11685051740036201,0.8849557522123894
0.11685051740036201,0.8852961198093942
0.11691882107851508,0.8852961198093942
0.11691882107851508,0.8856364874063989
0.11785799665311977,0.8856364874063989
0.11785799665311977,0.8859768550034037
0.11821659096342338,0.8859768550034037
0.11821659096342338,0.8863172226004085
0.11854103343465046,0.8863172226004085
0.11854103343465046,0.8866575901974132
0.11871179263003313,0.8866575901974132
0.11871179263003313,0.8869979577944179
0.11895085550356886,0.8869979577944179
0.11895085550356886,0.8873383253914228
0.11896793142310713,0.8873383253914228
0.11896793142310713,0.8876786929884275
0.11925822205525767,0.8876786929884275
0.11925822205525767,0.8880190605854322
0.11941190533110208,0.8880190605854322
0.11941190533110208,0.8883594281824371
0.11953143676786995,0.8883594281824371
0.11956558860694648,0.8883594281824371
0.11999248659540317,0.8883594281824371
0.11999248659540317,0.8886997957794418
0.12040230866432157,0.8886997957794418
0.12043646050339811,0.8886997957794418
0.1204876882620129,0.8886997957794418
0.1204876882620129,0.8893805309734514
0.12059014377924251,0.8893805309734514
0.12059014377924251,0.8897208985704561
0.1215293193538472,0.8897208985704561
0.1215293193538472,0.8900612661674608
0.12173423038830641,0.8900612661674608
0.12173423038830641,0.8904016337644656
0.12176838222738294,0.8904016337644656
0.12176838222738294,0.8907420013614704
0.12183668590553601,0.8907420013614704
0.12183668590553601,0.8910823689584751
0.12192206550322734,0.8910823689584751
0.12192206550322734,0.8914227365554799
0.12216112837676309,0.8914227365554799
0.12216112837676309,0.8921034717494895
0.123561353778901,0.8921034717494895
0.123561353778901,0.8924438393464942
0.12444930159489088,0.8924438393464942
0.12444930159489088,0.892784206943499
0.1248591236638093,0.892784206943499
0.1248591236638093,0.8931245745405038
0.12554216044533997,0.8931245745405038
0.12554216044533997,0.8934649421375085
0.12583245107749053,0.8934649421375085
0.12583245107749053,0.8938053097345132
0.12654963969809774,0.8938053097345132
0.12654963969809774,0.8941456773315181
0.12680577849117175,0.8941456773315181
0.12680577849117175,0.8944860449285228
0.12685700624978655,0.8944860449285228
0.12685700624978655,0.8948264125255275
0.12699361360609268,0.8948264125255275
0.12699361360609268,0.8951667801225324
0.12723267647962844,0.8951667801225324
0.12723267647962844,0.8955071477195371
0.12726682831870495,0.8955071477195371
0.12726682831870495,0.8958475153165418
0.12757419487039376,0.8958475153165418
0.12757419487039376,0.8961878829135467
0.12776202998531472,0.8961878829135467
0.12776202998531472,0.8965282505105514
0.12789863734162085,0.8965282505105514
0.12789863734162085,0.8968686181075561
0.1289573443529934,0.8968686181075561
0.1289573443529934,0.897208985704561
0.1290085721116082,0.897208985704561
0.1290085721116082,0.8975493533015657
0.12957207745637103,0.8975493533015657
0.12957207745637103,0.8978897208985704
0.13046002527236092,0.8978897208985704
0.13046002527236092,0.8982300884955752
0.13081861958266452,0.8982300884955752
0.13081861958266452,0.89857045609258
0.1308869232608176,0.89857045609258
0.1308869232608176,0.8989108236895847
0.1309381510194324,0.8989108236895847
0.1309381510194324,0.8992511912865895
0.13097230285850894,0.8992511912865895
0.13097230285850894,0.8995915588835943
0.13122844165158293,0.8995915588835943
0.13122844165158293,0.899931926480599
0.13126259349065947,0.899931926480599
0.13126259349065947,0.9002722940776038
0.131296745329736,0.9002722940776038
0.131296745329736,0.9006126616746086
0.13131382124927427,0.9006126616746086
0.13131382124927427,0.9009530292716134
0.13163826372050136,0.9009530292716134
0.13163826372050136,0.9012933968686181
0.13225299682387898,0.9012933968686181
0.13225299682387898,0.9016337644656228
0.13245790785833816,0.9016337644656228
0.13245790785833816,0.9019741320626277
0.13262866705372084,0.9019741320626277
0.13262866705372084,0.9023144996596324
0.13274819849048872,0.9023144996596324
0.13274819849048872,0.9026548672566371
0.13288480584679485,0.9026548672566371
0.1329189576858714,0.9026548672566371
0.13302141320310099,0.9026548672566371
0.13302141320310099,0.902995234853642
0.13308971688125407,0.902995234853642
0.13308971688125407,0.9033356024506467
0.1333287797547898,0.9033356024506467
0.1333287797547898,0.9036759700476514
0.1333800075134046,0.9036759700476514
0.1333800075134046,0.9040163376446563
0.13351661486971073,0.9040163376446563
0.13351661486971073,0.904356705241661
0.13370444998463168,0.904356705241661
0.13370444998463168,0.9046970728386657
0.13377275366278474,0.9046970728386657
0.13377275366278474,0.9050374404356705
0.13392643693862916,0.9050374404356705
0.13392643693862916,0.9053778080326753
0.13402889245585875,0.9053778080326753
0.13402889245585875,0.90571817562968
0.13421672757077968,0.90571817562968
0.13421672757077968,0.9060585432266848
0.1343191830880093,0.9060585432266848
0.1343191830880093,0.9063989108236896
0.1346777773983129,0.9063989108236896
0.1346777773983129,0.9067392784206944
0.13529251050169053,0.9067392784206944
0.13529251050169053,0.9070796460176991
0.13542911785799666,0.9070796460176991
0.13542911785799666,0.9074200136147039
0.13626583791537175,0.9074200136147039
0.13626583791537175,0.9077603812117087
0.13641952119121614,0.9077603812117087
0.13641952119121614,0.9081007488087134
0.13677811550151975,0.9081007488087134
0.1368122673405963,0.9081007488087134
0.13718793757043818,0.9081007488087134
0.13718793757043818,0.9084411164057182
0.1378538984324306,0.9084411164057182
0.1378538984324306,0.908781484002723
0.13807588538642807,0.908781484002723
0.13807588538642807,0.9091218515997277
0.14010791981148185,0.9091218515997277
0.14010791981148185,0.9094622191967324
0.1401249957310201,0.9094622191967324
0.1401249957310201,0.9098025867937373
0.14021037532871145,0.9098025867937373
0.14021037532871145,0.910142954390742
0.14029575492640278,0.910142954390742
0.14029575492640278,0.9104833219877467
0.14097879170793348,0.9104833219877467
0.14097879170793348,0.9108236895847516
0.14155937297223456,0.9108236895847516
0.14155937297223456,0.9111640571817563
0.14207165055838256,0.9111640571817563
0.14207165055838256,0.911504424778761
0.14260100406406884,0.911504424778761
0.14260100406406884,0.9118447923757659
0.14275468733991326,0.9118447923757659
0.14275468733991326,0.9121851599727706
0.1427888391789898,0.9121851599727706
0.1427888391789898,0.9128658951667801
0.14287421877668113,0.9128658951667801
0.14287421877668113,0.9132062627637849
0.1431986612479082,0.9132062627637849
0.1431986612479082,0.9135466303607896
0.14333526860421433,0.9135466303607896
0.14333526860421433,0.9138869979577944
0.14369386291451794,0.9138869979577944
0.14369386291451794,0.914567733151804
0.14372801475359448,0.914567733151804
0.14372801475359448,0.9149081007488087
0.14401830538574503,0.9149081007488087
0.14401830538574503,0.9152484683458135
0.14435982377651035,0.9152484683458135
0.14435982377651035,0.9155888359428183
0.14441105153512518,0.9155888359428183
0.14441105153512518,0.915929203539823
0.14461596256958437,0.915929203539823
0.14461596256958437,0.9162695711368277
0.144718418086814,0.9162695711368277
0.144718418086814,0.9166099387338326
0.1456917455004952,0.9166099387338326
0.1456917455004952,0.9169503063308373
0.14603326389126053,0.9169503063308373
0.14603326389126053,0.917290673927842
0.1465284655578703,0.917290673927842
0.1465284655578703,0.9176310415248469
0.14685290802909737,0.9176310415248469
0.14685290802909737,0.9179714091218516
0.14745056521293673,0.9179714091218516
0.14745056521293673,0.9183117767188563
0.14753594481062804,0.9183117767188563
0.14753594481062804,0.9186521443158612
0.14758717256924286,0.9186521443158612
0.14758717256924286,0.9189925119128659
0.14862880366107714,0.9189925119128659
0.14862880366107714,0.9193328795098706
0.1489190942932277,0.9193328795098706
0.1489190942932277,0.9196732471068755
0.14898739797138075,0.9196732471068755
0.1490215498104573,0.9196732471068755
0.14907277756907208,0.9196732471068755
0.14907277756907208,0.9200136147038802
0.14997780130460026,0.9200136147038802
0.14997780130460026,0.9203539823008849
0.1500461049827533,0.9203539823008849
0.1500461049827533,0.9206943498978897
0.15023394009767427,0.9206943498978897
0.15023394009767427,0.9210347174948945
0.15069498992520747,0.9210347174948945
0.15069498992520747,0.9213750850918992
0.15110481199412587,0.9213750850918992
0.15110481199412587,0.921715452688904
0.1512584952699703,0.921715452688904
0.1512584952699703,0.9220558202859088
0.15180492469519483,0.9220558202859088
0.15180492469519483,0.9223961878829136
0.1519244561319627,0.9223961878829136
0.1519244561319627,0.9227365554799183
0.15212936716642192,0.9227365554799183
0.15212936716642192,0.9230769230769231
0.1523513541204194,0.9230769230769231
0.1523513541204194,0.9234172906739279
0.15305146682148835,0.9234172906739279
0.15305146682148835,0.9237576582709326
0.15313684641917968,0.9237576582709326
0.1531709982582562,0.9237576582709326
0.15364912400532768,0.9237576582709326
0.15364912400532768,0.9240980258679373
0.15371742768348076,0.9240980258679373
0.15371742768348076,0.9244383934649422
0.15378573136163382,0.9244383934649422
0.15378573136163382,0.9247787610619469
0.1539052627984017,0.9247787610619469
0.1539052627984017,0.9251191286589516
0.15434923670639664,0.9251191286589516
0.15434923670639664,0.9254594962559565
0.1545712236603941,0.9254594962559565
0.1545712236603941,0.9257998638529612
0.15481028653392986,0.9257998638529612
0.15481028653392986,0.9261402314499659
0.15557870291315187,0.9261402314499659
0.15557870291315187,0.9264805990469708
0.1560909804992999,0.9264805990469708
0.1560909804992999,0.9268209666439755
0.15713261159113417,0.9268209666439755
0.15713261159113417,0.9271613342409802
0.15742290222328473,0.9271613342409802
0.15742290222328473,0.927501701837985
0.15749120590143778,0.927501701837985
0.15749120590143778,0.9278420694349898
0.1575424336600526,0.9278420694349898
0.1575424336600526,0.9281824370319945
0.1577473446945118,0.9281824370319945
0.1577473446945118,0.9285228046289993
0.15776442061405008,0.9285228046289993
0.15776442061405008,0.9288631722260041
0.15814009084389194,0.9288631722260041
0.15814009084389194,0.9292035398230089
0.15866944434957822,0.9292035398230089
0.15870359618865476,0.9292035398230089
0.1596086199241829,0.9292035398230089
0.15964277176325944,0.9292035398230089
0.16012089751033093,0.9292035398230089
0.16012089751033093,0.9295439074200136
0.16042826406201974,0.9295439074200136
0.16046241590109628,0.9295439074200136
0.16053071957924933,0.9295439074200136
0.16053071957924933,0.9298842750170184
0.1606502510160172,0.9298842750170184
0.1606502510160172,0.9302246426140232
0.16215293193538471,0.9302246426140232
0.16215293193538471,0.9305650102110279
0.1650729141764284,0.9305650102110279
0.1650729141764284,0.9309053778080327
0.1652265974522728,0.9309053778080327
0.1652265974522728,0.9312457454050375
0.16534612888904068,0.9312457454050375
0.16534612888904068,0.9315861130020422
0.1664731395785663,0.9315861130020422
0.1664731395785663,0.9319264805990469
0.16649021549810458,0.9319264805990469
0.16649021549810458,0.9322668481960518
0.16669512653256377,0.9322668481960518
0.1667292783716403,0.9322668481960518
0.1667975820497934,0.9322668481960518
0.1667975820497934,0.9326072157930565
0.16768552986578328,0.9326072157930565
0.16768552986578328,0.9329475833900612
0.167924592739319,0.9329475833900612
0.167924592739319,0.9332879509870661
0.16811242785423994,0.9332879509870661
0.16811242785423994,0.9336283185840708
0.16833441480823744,0.9336283185840708
0.16833441480823744,0.9339686861810755
0.1686588572794645,0.9339686861810755
0.1686588572794645,0.9343090537780804
0.16877838871623238,0.9343090537780804
0.16877838871623238,0.9346494213750851
0.1688125405553089,0.9346494213750851
0.1688125405553089,0.9349897889720898
0.16918821078515078,0.9349897889720898
0.16918821078515078,0.9353301565690946
0.1695468050954544,0.9353301565690946
0.1695468050954544,0.9356705241660994
0.16992247532529628,0.9356705241660994
0.16992247532529628,0.9360108917631041
0.17009323452067893,0.9360108917631041
0.17009323452067893,0.9363512593601089
0.17019569003790855,0.9363512593601089
0.17019569003790855,0.9366916269571137
0.1702639937160616,0.9366916269571137
0.1702639937160616,0.9370319945541185
0.1706908917045183,0.9370319945541185
0.1706908917045183,0.9373723621511232
0.17084457498036268,0.9373723621511232
0.17084457498036268,0.9380530973451328
0.17087872681943922,0.9380530973451328
0.17087872681943922,0.9387338325391422
0.17308152043987568,0.9387338325391422
0.17308152043987568,0.9390742001361471
0.17313274819849048,0.9390742001361471
0.17313274819849048,0.9394145677331518
0.17321812779618181,0.9394145677331518
0.17321812779618181,0.9397549353301565
0.17371332946279158,0.9397549353301565
0.1737474813018681,0.9397549353301565
0.1740548478535569,0.9397549353301565
0.1740548478535569,0.9400953029271614
0.1746866568764728,0.9400953029271614
0.1746866568764728,0.9404356705241661
0.17480618831324066,0.9404356705241661
0.17480618831324066,0.9407760381211708
0.17545507325569482,0.9407760381211708
0.17545507325569482,0.9411164057181757
0.17565998429015403,0.9411164057181757
0.17569413612923057,0.9411164057181757
0.17704313377275366,0.9411164057181757
0.17704313377275366,0.9414567733151804
0.1771797411290598,0.9414567733151804
0.1771797411290598,0.9417971409121851
0.1772821966462894,0.9417971409121851
0.1772821966462894,0.94213750850919
0.17798230934735834,0.94213750850919
0.17798230934735834,0.9424778761061947
0.17815306854274102,0.9424778761061947
0.17815306854274102,0.9428182437031994
0.17998019193333561,0.9428182437031994
0.17998019193333561,0.9431586113002042
0.18027048256548614,0.9431586113002042
0.18027048256548614,0.943498978897209
0.1804583176804071,0.943498978897209
0.1804583176804071,0.9438393464942137
0.1810218230251699,0.9438393464942137
0.1810218230251699,0.9441797140912185
0.1812779618182439,0.9441797140912185
0.1812779618182439,0.9445200816882233
0.18149994877224138,0.9445200816882233
0.18149994877224138,0.944860449285228
0.1824391243468461,0.944860449285228
0.1824391243468461,0.9452008168822328
0.1824732761859226,0.9452008168822328
0.1824732761859226,0.9455411844792376
0.1827806427376114,0.9455411844792376
0.1827806427376114,0.9458815520762424
0.18303678153068542,0.9458815520762424
0.18303678153068542,0.9462219196732471
0.18322461664560635,0.9462219196732471
0.18322461664560635,0.9465622872702518
0.18324169256514464,0.9465622872702518
0.18324169256514464,0.9469026548672567
0.18334414808237423,0.9469026548672567
0.18334414808237423,0.9472430224642614
0.18380519790990746,0.9472430224642614
0.18380519790990746,0.9475833900612661
0.1838735015880605,0.9475833900612661
0.1838735015880605,0.947923757658271
0.18409548854205798,0.947923757658271
0.18409548854205798,0.9482641252552757
0.18489805676035653,0.9482641252552757
0.18489805676035653,0.9486044928522804
0.1850175881971244,0.9486044928522804
0.1850175881971244,0.9489448604492853
0.18522249923158363,0.9489448604492853
0.18522249923158363,0.94928522804629
0.1853420306683515,0.94928522804629
0.1853420306683515,0.9496255956432947
0.18558109354188723,0.9496255956432947
0.18558109354188723,0.9499659632402995
0.1866398005532598,0.9499659632402995
0.1866398005532598,0.9503063308373043
0.18677640790956593,0.9503063308373043
0.18677640790956593,0.950646698434309
0.18889382193231105,0.950646698434309
0.18889382193231105,0.9509870660313138
0.18944025135753562,0.9509870660313138
0.18947440319661213,0.9509870660313138
0.19051603428844643,0.9509870660313138
0.19051603428844643,0.9513274336283186
0.19136983026535978,0.9513274336283186
0.19136983026535978,0.9516678012253234
0.19181380417335472,0.9516678012253234
0.19181380417335472,0.9520081688223281
0.1922407021618114,0.9520081688223281
0.1922407021618114,0.9523485364193329
0.1922919299204262,0.9523485364193329
0.1922919299204262,0.9526889040163377
0.193811686759332,0.9526889040163377
0.193811686759332,0.9530292716133424
0.19437519210409482,0.9530292716133424
0.19437519210409482,0.9533696392103471
0.19481916601208976,0.9533696392103471
0.19481916601208976,0.953710006807352
0.19555343055223523,0.953710006807352
0.19555343055223523,0.9540503744043567
0.19690242819575834,0.9540503744043567
0.19690242819575834,0.9543907420013614
0.1969195041152966,0.9543907420013614
0.1969195041152966,0.9547311095983663
0.19751716129913596,0.9547311095983663
0.19751716129913596,0.955071477195371
0.19792698336805437,0.955071477195371
0.19792698336805437,0.9554118447923757
0.19821727400020492,0.9554118447923757
0.19821727400020492,0.9560925799863853
0.19872955158635291,0.9560925799863853
0.19872955158635291,0.9567733151803949
0.19896861445988867,0.9567733151803949
0.19896861445988867,0.9574540503744043
0.1991564495748096,0.9574540503744043
0.1991564495748096,0.9577944179714091
0.20018100474710562,0.9577944179714091
0.20018100474710562,0.9581347855684139
0.20021515658618216,0.9581347855684139
0.20021515658618216,0.9584751531654186
0.20059082681602405,0.9584751531654186
0.20059082681602405,0.9588155207624234
0.20260578532153956,0.9588155207624234
0.20260578532153956,0.9591558883594282
0.20357911273522078,0.9591558883594282
0.20357911273522078,0.959496255956433
0.20424507359721322,0.959496255956433
0.20424507359721322,0.9598366235534377
0.20453536422936375,0.9598366235534377
0.20453536422936375,0.9601769911504425
0.2056623749188894,0.9601769911504425
0.2056623749188894,0.9605173587474473
0.206533246815341,0.9605173587474473
0.206533246815341,0.960857726344452
0.20723335951640995,0.960857726344452
0.20723335951640995,0.9611980939414567
0.2083091424473208,0.9611980939414567
0.2083091424473208,0.9615384615384616
0.21003381032068577,0.9615384615384616
0.21003381032068577,0.9618788291354663
0.21075099894129298,0.9618788291354663
0.21075099894129298,0.962219196732471
0.2113657320446706,0.962219196732471
0.2113657320446706,0.9625595643294759
0.21379051261910453,0.9625595643294759
0.21379051261910453,0.9628999319264806
0.21549810457293125,0.9628999319264806
0.21549810457293125,0.9632402995234853
0.21566886376831393,0.9632402995234853
0.21570301560739047,0.9632402995234853
0.2178204296301356,0.9632402995234853
0.2178204296301356,0.9635806671204902
0.2186913015265872,0.9635806671204902
0.2186913015265872,0.9639210347174949
0.21877668112427853,0.9639210347174949
0.21877668112427853,0.9642614023144996
0.21975000853795976,0.9642614023144996
0.21975000853795976,0.9646017699115044
0.22106485434240633,0.9646017699115044
0.22106485434240633,0.9649421375085092
0.22258461118131212,0.9649421375085092
0.22258461118131212,0.9652825051055139
0.2236262422731464,0.9652825051055139
0.2236262422731464,0.9656228727025187
0.22364331819268468,0.9656228727025187
0.22364331819268468,0.9659632402995235
0.22651207267511356,0.9659632402995235
0.22651207267511356,0.9663036078965282
0.2271097298589529,0.9663036078965282
0.2271097298589529,0.966643975493533
0.2273829445715652,0.966643975493533
0.2273829445715652,0.9669843430905378
0.22789522215771318,0.9669843430905378
0.22789522215771318,0.9673247106875426
0.22828796830709333,0.9673247106875426
0.22828796830709333,0.9676650782845473
0.22910761244493016,0.9676650782845473
0.22910761244493016,0.9680054458815521
0.22915884020354496,0.9680054458815521
0.22915884020354496,0.9683458134785569
0.23419623646733376,0.9683458134785569
0.2342303883064103,0.9683458134785569
0.23470851405348178,0.9683458134785569
0.23470851405348178,0.9686861810755616
0.23590382842116048,0.9686861810755616
0.23590382842116048,0.9690265486725663
0.23744066117960452,0.9690265486725663
0.23744066117960452,0.9693669162695712
0.23846521635190054,0.9693669162695712
0.23848229227143883,0.9697072838665759
0.23894334209897203,0.9697072838665759
0.23897749393804857,0.9697072838665759
0.23981421399542366,0.9697072838665759
0.23981421399542366,0.9700476514635806
0.23983128991496191,0.9700476514635806
0.23983128991496191,0.9703880190605855
0.24087292100679622,0.9703880190605855
0.24087292100679622,0.9707283866575902
0.24360506813291896,0.9707283866575902
0.24360506813291896,0.9710687542545949
0.24391243468460777,0.9710687542545949
0.24391243468460777,0.9714091218515998
0.24454424370752365,0.9714091218515998
0.24454424370752365,0.9717494894486045
0.2452443564085926,0.9717494894486045
0.2452443564085926,0.9720898570456092
0.24526143232813086,0.9720898570456092
0.24526143232813086,0.972430224642614
0.24819849048871281,0.972430224642614
0.24823264232778935,0.972430224642614
0.24896690686793485,0.972430224642614
0.24896690686793485,0.9727705922396188
0.2503329804309962,0.9727705922396188
0.2503329804309962,0.9731109598366235
0.25058911922407023,0.9731109598366235
0.25058911922407023,0.9734513274336283
0.25156244663775146,0.9734513274336283
0.25156244663775146,0.9737916950306331
0.2516136743963662,0.9737916950306331
0.2516136743963662,0.9741320626276379
0.2516819780745193,0.9741320626276379
0.2516819780745193,0.9744724302246426
0.2526382295686623,0.9744724302246426
0.2526382295686623,0.9748127978216474
0.2529968238789659,0.9748127978216474
0.2529968238789659,0.9751531654186522
0.25385061985587926,0.9751531654186522
0.25385061985587926,0.9754935330156569
0.25489225094771356,0.9754935330156569
0.25489225094771356,0.9758339006126616
0.2553874526143233,0.9758339006126616
0.2553874526143233,0.9761742682096665
0.256326628188928,0.9761742682096665
0.256326628188928,0.9765146358066712
0.25702674088999694,0.9765146358066712
0.25702674088999694,0.9768550034036759
0.2608346709470305,0.9768550034036759
0.2608346709470305,0.9771953710006808
0.26206413715378574,0.9771953710006808
0.26206413715378574,0.9775357385976855
0.26353266623407673,0.9775357385976855
0.26353266623407673,0.9778761061946902
0.26481336019944673,0.9778761061946902
0.26481336019944673,0.9782164737916951
0.2651890304292886,0.9782164737916951
0.2651890304292886,0.9785568413886998
0.26546224514190087,0.9785568413886998
0.26546224514190087,0.9788972089857045
0.2655476247395922,0.9788972089857045
0.2655476247395922,0.9792375765827094
0.26563300433728354,0.9792375765827094
0.26563300433728354,0.9795779441797141
0.26653802807281174,0.9795779441797141
0.26653802807281174,0.9799183117767188
0.2668453946245005,0.9799183117767188
0.2668453946245005,0.9802586793737236
0.26718691301526587,0.9802586793737236
0.26718691301526587,0.9805990469707284
0.2703801099689218,0.9805990469707284
0.2703801099689218,0.9809394145677331
0.27680065571531026,0.9809394145677331
0.27680065571531026,0.9812797821647379
0.2780301219220655,0.9812797821647379
0.2780301219220655,0.9816201497617427
0.2789180697380554,0.9816201497617427
0.2789180697380554,0.9819605173587475
0.2812062429561832,0.9819605173587475
0.2812062429561832,0.9823008849557522
0.28127454663433626,0.9823008849557522
0.2816843687032547,0.9823008849557522
0.2816843687032547,0.982641252552757
0.2840408455995355,0.982641252552757
0.2840408455995355,0.9829816201497618
0.28684129640381134,0.9829816201497618
0.28684129640381134,0.9833219877467665
0.2884122810013319,0.9833219877467665
0.2884122810013319,0.9836623553437712
0.2895563676103958,0.9836623553437712
0.2895563676103958,0.9840027229407761
0.2902564803114648,0.9840027229407761
0.2902906321505413,0.9840027229407761
0.2903589358286944,0.9840027229407761
0.2903930876677709,0.9840027229407761
0.2905126191045388,0.9840027229407761
0.2905126191045388,0.9843430905377808
0.2910419726102251,0.9843430905377808
0.2910419726102251,0.9846834581347855
0.2953792561729449,0.9846834581347855
0.2953792561729449,0.9850238257317904
0.2961989003107817,0.9850238257317904
0.2961989003107817,0.9853641933287951
0.2979747959427615,0.9853641933287951
0.2979747959427615,0.9857045609257998
0.3002629691608893,0.9857045609257998
0.3002629691608893,0.9860449285228047
0.3046344045626857,0.9860449285228047
0.3046685564017622,0.9860449285228047
0.30794713295310955,0.9860449285228047
0.30794713295310955,0.9863852961198094
0.30830572726341315,0.9863852961198094
0.30830572726341315,0.9867256637168141
0.3117892148492196,0.9867256637168141
0.3117892148492196,0.9870660313138189
0.3158532836993272,0.9870660313138189
0.31588743553840376,0.9870660313138189
0.3220518424917182,0.9870660313138189
0.3220518424917182,0.9874063989108237
0.32295686622724634,0.9874063989108237
0.32295686622724634,0.9877467665078284
0.3235032956524709,0.9877467665078284
0.3235032956524709,0.9880871341048332
0.32459615450292,0.9880871341048332
0.32459615450292,0.988427501701838
0.3259793039855196,0.988427501701838
0.3259793039855196,0.9887678692988427
0.32939448789317305,0.9887678692988427
0.32939448789317305,0.9891082368958475
0.3298896895597828,0.9891082368958475
0.3299067654793211,0.9894486044928523
0.3309483965711554,0.9894486044928523
0.3309483965711554,0.989788972089857
0.33272429220313515,0.989788972089857
0.33275844404221167,0.989788972089857
0.3348417062258803,0.989788972089857
0.3348758580649568,0.989788972089857
0.33753970151292645,0.989788972089857
0.33753970151292645,0.9901293396868618
0.3419965165124142,0.9901293396868618
0.3419965165124142,0.9904697072838666
0.34327721047778426,0.9904697072838666
0.34331136231686077,0.9904697072838666
0.3447457395580752,0.9904697072838666
0.34477989139715176,0.9904697072838666
0.34920255455756294,0.9904697072838666
0.34920255455756294,0.9908100748808714
0.34998804685632323,0.9908100748808714
0.34998804685632323,0.9911504424778761
0.3516956388101499,0.9911504424778761
0.3516956388101499,0.9914908100748808
0.3518151702469178,0.9914908100748808
0.3518151702469178,0.9918311776718857
0.35253235886752504,0.9918311776718857
0.35253235886752504,0.9921715452688904
0.35767221064854343,0.9921715452688904
0.35767221064854343,0.9925119128658951
0.35932857484375536,0.9925119128658951
0.35932857484375536,0.9928522804629
0.3614459888665005,0.9928522804629
0.3614459888665005,0.9931926480599047
0.3628291383491001,0.9931926480599047
0.3628291383491001,0.9935330156569094
0.36897646938287626,0.9935330156569094
0.36897646938287626,0.9938733832539143
0.37580683719818314,0.9938733832539143
0.37580683719818314,0.994213750850919
0.37942693214029577,0.994213750850919
0.3794610839793723,0.994213750850919
0.38192001639288276,0.994213750850919
0.38195416823195927,0.994213750850919
0.3835763805880947,0.994213750850919
0.3835763805880947,0.9945541184479237
0.38415696185239573,0.9945541184479237
0.3841911136914723,0.9945541184479237
0.3871452477715925,0.9945541184479237
0.3871452477715925,0.9948944860449285
0.3874696902428196,0.9948944860449285
0.3874696902428196,0.9952348536419333
0.3885967009323452,0.9952348536419333
0.3885967009323452,0.995575221238938
0.3932755028858304,0.995575221238938
0.3933096547249069,0.995575221238938
0.3933438065639835,0.995575221238938
0.39337795840306,0.995575221238938
0.39860318978176973,0.995575221238938
0.3986373416208463,0.995575221238938
0.40090843891943584,0.995575221238938
0.40090843891943584,0.9959155888359428
0.40155732386188997,0.9959155888359428
0.4015914757009665,0.9959155888359428
0.40224036064342067,0.9959155888359428
0.40224036064342067,0.9962559564329476
0.4032819917352549,0.9962559564329476
0.4033161435743315,0.9962559564329476
0.4044602301833954,0.9962559564329476
0.4044602301833954,0.9965963240299524
0.4089170451828831,0.9965963240299524
0.40895119702195964,0.9965963240299524
0.4097537652402582,0.9965963240299524
0.4097537652402582,0.9969366916269571
0.41076124449301593,0.9969366916269571
0.4107953963320925,0.9969366916269571
0.4139373655271336,0.9969366916269571
0.4139715173662102,0.9969366916269571
0.41477408558450873,0.9969366916269571
0.41480823742358525,0.9969366916269571
0.4148936170212766,0.9969366916269571
0.41492776886035315,0.9969366916269571
0.427700556674977,0.9969366916269571
0.4277347085140535,0.9969366916269571
0.4316109422492401,0.9969366916269571
0.43164509408831664,0.9969366916269571
0.4319524606400055,0.9969366916269571
0.4319524606400055,0.9972770592239619
0.4394317133977665,0.9972770592239619
0.439465865236843,0.9972770592239619
0.4417540384549708,0.9972770592239619
0.4417881902940473,0.9972770592239619
0.44516922236262424,0.9972770592239619
0.44520337420170075,0.9972770592239619
0.4505822888562549,0.9972770592239619
0.45061644069533147,0.9972770592239619
0.4527167787985383,0.9972770592239619
0.45275093063761485,0.9972770592239619
0.4527680065571531,0.9972770592239619
0.4528021583962296,0.9972770592239619
0.4583347563266282,0.9972770592239619
0.45836890816570475,0.9972770592239619
0.46046924626891156,0.9972770592239619
0.4605033981079881,0.9972770592239619
0.46501144086609064,0.9972770592239619
0.46504559270516715,0.9972770592239619
0.4722516307503159,0.9972770592239619
0.4722516307503159,0.9976174268209667
0.4729688193709231,0.9976174268209667
0.4729688193709231,0.9979577944179714
0.4743348929339845,0.9979577944179714
0.474369044773061,0.9979577944179714
0.48092619787575563,0.9979577944179714
0.48096034971483215,0.9979577944179714
0.4830948396571155,0.9979577944179714
0.4831289914961921,0.9979577944179714
0.48335097845018954,0.9979577944179714
0.48338513028926605,0.9979577944179714
0.4929476452306957,0.9979577944179714
0.4929476452306957,0.9982981620149761
0.4962774495406578,0.9982981620149761
0.4963116013797343,0.9982981620149761
0.5014002254021379,0.9982981620149761
0.5014343772412144,0.9982981620149761
0.5145999112052184,0.9982981620149761
0.5146340630442949,0.9982981620149761
0.5159489088487414,0.9982981620149761
0.5159830606878181,0.9982981620149761
0.5178614118370274,0.9982981620149761
0.517895563676104,0.9982981620149761
0.5190054984460913,0.9982981620149761
0.5190396502851679,0.9982981620149761
0.5232061746525051,0.9982981620149761
0.5232403264915816,0.9982981620149761
0.5233598579283495,0.9982981620149761
0.523394009767426,0.9982981620149761
0.5237013763191147,0.9982981620149761
0.5237355281581914,0.9982981620149761
0.5241282743075715,0.9982981620149761
0.524162426146648,0.9982981620149761
0.5369522898808101,0.9982981620149761
0.5369864417198866,0.9982981620149761
0.5553089033844473,0.9982981620149761
0.5553430552235238,0.9982981620149761
0.5635053447628154,0.9982981620149761
0.5635394966018921,0.9982981620149761
0.5725897339571736,0.9982981620149761
0.5726238857962501,0.9982981620149761
0.572811720911171,0.9982981620149761
0.5728458727502476,0.9982981620149761
0.5744851610259213,0.9982981620149761
0.5745193128649978,0.9982981620149761
0.58080325125508,0.9982981620149761
0.5808374030941567,0.9982981620149761
0.5895973498172876,0.9982981620149761
0.5896315016563642,0.9982981620149761
0.5899047163689765,0.9982981620149761
0.5899047163689765,0.998638529611981
0.5902120829206653,0.998638529611981
0.5902120829206653,0.9989788972089857
0.5959325159659847,0.9989788972089857
0.5959325159659847,0.9993192648059904
0.5961886547590588,0.9993192648059904
0.5962228065981353,0.9993192648059904
0.609371264642601,0.9993192648059904
0.6094054164816776,0.9993192648059904
0.6269936136060927,0.9993192648059904
0.6270277654451692,0.9993192648059904
0.6327994262491036,0.9993192648059904
0.6328335780881801,0.9993192648059904
0.6330043372835628,0.9993192648059904
0.6330384891226393,0.9993192648059904
0.6348656125132338,0.9993192648059904
0.6348997643523103,0.9993192648059904
0.6395444144667191,0.9993192648059904
0.6395785663057956,0.9993192648059904
0.6406885010757829,0.9993192648059904
0.6407226529148594,0.9993192648059904
0.6430962057306786,0.9993192648059904
0.6431303575697551,0.9993192648059904
0.6557836139476111,0.9993192648059904
0.6558177657866876,0.9993192648059904
0.6652607492913494,0.9993192648059904
0.6652949011304259,0.9993192648059904
0.6797752808988764,0.9993192648059904
0.6798094327379529,0.9993192648059904
0.6913698302653598,0.9993192648059904
0.6914039821044363,0.9993192648059904
0.6940849014719442,0.9993192648059904
0.6941190533110208,0.9993192648059904
0.7059697414705782,0.9993192648059904
0.7060038933096547,0.9993192648059904
0.7067552337693385,0.9993192648059904
0.706789385608415,0.9993192648059904
0.7074724223899457,0.9993192648059904
0.7075065742290222,0.9993192648059904
0.7089067996311601,0.9993192648059904
0.7089409514702367,0.9993192648059904
0.7134319183088009,0.9993192648059904
0.7134660701478774,0.9993192648059904
0.7166421911819951,0.9993192648059904
0.7166763430210716,0.9993192648059904
0.7177862777910591,0.9993192648059904
0.7178204296301356,0.9993192648059904
0.7214063727331717,0.9993192648059904
0.7214063727331717,0.9996596324029953
0.7219015743997814,0.9996596324029953
0.7219357262388579,0.9996596324029953
0.7267511355486493,0.9996596324029953
0.7267852873877259,0.9996596324029953
0.7398654417540385,0.9996596324029953
0.739899593593115,0.9996596324029953
0.7435538403743042,0.9996596324029953
0.7435879922133807,0.9996596324029953
0.7575390184761449,0.9996596324029953
0.7575731703152214,0.9996596324029953
0.7589221679587446,0.9996596324029953
0.7589563197978211,0.9996596324029953
0.7605614562344182,0.9996596324029953
0.7605956080734948,0.9996596324029953
0.7725487517502817,0.9996596324029953
0.7725829035893583,0.9996596324029953
0.78074519312865,0.9996596324029953
0.7807793449677265,0.9996596324029953
0.7998872989310475,0.9996596324029953
0.799921450770124,0.9996596324029953
0.8051466821488337,0.9996596324029953
0.8051808339879103,0.9996596324029953
0.8148287285270311,0.9996596324029953
0.8148628803661078,0.9996596324029953
0.8207882244458864,0.9996596324029953
0.8208223762849629,0.9996596324029953
0.8377275366278474,0.9996596324029953
0.8377616884669239,0.9996596324029953
0.8471192923738944,0.9996596324029953
0.8471534442129709,0.9996596324029953
0.8829274956456405,0.9996596324029953
0.8829616474847171,0.9996596324029953
0.8860523889211434,0.9996596324029953
0.88608654076022,0.9996596324029953
0.8914142276561593,0.9996596324029953
0.8914483794952358,0.9996596324029953
0.89209726443769,0.9996596324029953
0.8921314162767665,0.9996596324029953
0.8938560841501315,0.9996596324029953
0.893890235989208,0.9996596324029953
0.9116662682285441,0.9996596324029953
0.9117004200676206,0.9996596324029953
0.9219801236296574,0.9996596324029953
0.922014275468734,0.9996596324029953
0.9731395785663058,0.9996596324029953
0.9731395785663058,1.0
1.0,1.0
