fpr,tpr
0.0,0.0
0.0,0.0006944444444444445
0.0,0.03958333333333333
1.6518004625041296e-05,0.03958333333333333
1.6518004625041296e-05,0.04861111111111111
3.303600925008259e-05,0.04861111111111111
3.303600925008259e-05,0.06666666666666667
4.955401387512388e-05,0.06666666666666667
4.955401387512388e-05,0.0763888888888889
6.607201850016519e-05,0.0763888888888889
6.607201850016519e-05,0.08263888888888889
8.259002312520647e-05,0.08263888888888889
8.259002312520647e-05,0.09513888888888888
9.910802775024777e-05,0.09513888888888888
9.910802775024777e-05,0.11180555555555556
0.00011562603237528906,0.11180555555555556
0.00011562603237528906,0.11319444444444444
0.00013214403700033037,0.11319444444444444
0.00013214403700033037,0.11527777777777778
0.00013214403700033037,0.11666666666666667
0.00013214403700033037,0.12777777777777777
0.00013214403700033037,0.12916666666666668
0.00013214403700033037,0.1361111111111111
0.00014866204162537167,0.1361111111111111
0.00014866204162537167,0.17430555555555555
0.00016518004625041294,0.17430555555555555
0.00016518004625041294,0.1763888888888889
0.00018169805087545423,0.1763888888888889
0.00018169805087545423,0.1909722222222222
0.00019821605550049553,0.1909722222222222
0.00019821605550049553,0.19166666666666668
0.00021473406012553683,0.19166666666666668
0.00021473406012553683,0.19375
0.0002477700693756194,0.19375
0.0002477700693756194,0.19444444444444445
0.0002477700693756194,0.19583333333333333
0.0002477700693756194,0.20277777777777778
0.0002477700693756194,0.20416666666666666
0.0002477700693756194,0.20625
0.00026428807400066074,0.20625
0.00026428807400066074,0.20972222222222223
0.00026428807400066074,0.2111111111111111
0.00026428807400066074,0.22152777777777777
0.000280806078625702,0.22152777777777777
0.000280806078625702,0.22361111111111112
0.0003138420878757846,0.22361111111111112
0.0003138420878757846,0.22708333333333333
0.0003303600925008259,0.22708333333333333
0.0003303600925008259,0.22777777777777777
0.0003468780971258672,0.22777777777777777
0.0003468780971258672,0.22847222222222222
0.00036339610175090847,0.22847222222222222
0.00036339610175090847,0.23541666666666666
0.0003799141063759498,0.23541666666666666
0.0003799141063759498,0.23680555555555555
0.00039643211100099106,0.23680555555555555
0.00039643211100099106,0.23958333333333334
0.0004129501156260324,0.23958333333333334
0.0004129501156260324,0.24791666666666667
0.00042946812025107365,0.24791666666666667
0.00042946812025107365,0.25277777777777777
0.000445986124876115,0.25277777777777777
0.000445986124876115,0.2534722222222222
0.00046250412950115625,0.2534722222222222
0.00046250412950115625,0.25625
0.00047902213412619757,0.25625
0.00047902213412619757,0.2652777777777778
0.0004955401387512388,0.2652777777777778
0.0004955401387512388,0.2701388888888889
0.0005120581433762802,0.2701388888888889
0.0005120581433762802,0.27152777777777776
0.0005120581433762802,0.27291666666666664
0.0005120581433762802,0.2826388888888889
0.0005285761480013215,0.2826388888888889
0.0005285761480013215,0.28402777777777777
0.000561612157251404,0.28402777777777777
0.000561612157251404,0.29097222222222224
0.0005781301618764453,0.29097222222222224
0.0005781301618764453,0.2916666666666667
0.0005781301618764453,0.29305555555555557
0.0005781301618764453,0.29375
0.0005946481665014867,0.29375
0.0005946481665014867,0.29444444444444445
0.0006276841757515692,0.29444444444444445
0.0006276841757515692,0.2972222222222222
0.0006442021803766105,0.29791666666666666
0.0006442021803766105,0.3055555555555556
0.0006607201850016518,0.3055555555555556
0.0006607201850016518,0.30694444444444446
0.0006772381896266931,0.30694444444444446
0.0006772381896266931,0.3104166666666667
0.0006937561942517344,0.3104166666666667
0.0006937561942517344,0.3125
0.0007102741988767757,0.3125
0.0007102741988767757,0.31319444444444444
0.0007433102081268583,0.31319444444444444
0.0007433102081268583,0.3263888888888889
0.0007433102081268583,0.3277777777777778
0.0007433102081268583,0.3298611111111111
0.0007763462173769409,0.3298611111111111
0.0007763462173769409,0.3326388888888889
0.0007763462173769409,0.33402777777777776
0.0007763462173769409,0.34375
0.0008093822266270234,0.34375
0.0008093822266270234,0.3451388888888889
0.0008259002312520648,0.3451388888888889
0.0008259002312520648,0.34791666666666665
0.0008259002312520648,0.34930555555555554
0.0008259002312520648,0.3527777777777778
0.0008424182358771061,0.3527777777777778
0.0008424182358771061,0.36319444444444443
0.0008589362405021473,0.36319444444444443
0.0008589362405021473,0.3659722222222222
0.0008754542451271886,0.36666666666666664
0.00089197224975223,0.36666666666666664
0.00089197224975223,0.3701388888888889
0.0009084902543772713,0.3701388888888889
0.0009084902543772713,0.3715277777777778
0.0009250082590023125,0.3715277777777778
0.0009250082590023125,0.38055555555555554
0.0009415262636273538,0.38055555555555554
0.0009415262636273538,0.38263888888888886
0.0009580442682523951,0.38263888888888886
0.0009580442682523951,0.38333333333333336
0.0009910802775024777,0.38333333333333336
0.0009910802775024777,0.38472222222222224
0.001007598282127519,0.38472222222222224
0.001007598282127519,0.3902777777777778
0.0010241162867525603,0.3902777777777778
0.0010241162867525603,0.3923611111111111
0.0010406342913776017,0.3923611111111111
0.0010406342913776017,0.4
0.001057152296002643,0.4
0.001057152296002643,0.40208333333333335
0.001073670300627684,0.40208333333333335
0.001073670300627684,0.4041666666666667
0.0011067063098777667,0.4041666666666667
0.0011067063098777667,0.4152777777777778
0.001123224314502808,0.4152777777777778
0.001123224314502808,0.41944444444444445
0.0011397423191278494,0.41944444444444445
0.0011397423191278494,0.4215277777777778
0.0011562603237528907,0.4215277777777778
0.0011562603237528907,0.4222222222222222
0.0011892963330029733,0.4222222222222222
0.0011892963330029733,0.4236111111111111
0.0011892963330029733,0.425
0.0012058143376280145,0.425
0.0012058143376280145,0.4305555555555556
0.0012553683515031384,0.4305555555555556
0.0012553683515031384,0.43194444444444446
0.0012553683515031384,0.4375
0.0012718863561281797,0.4375
0.0012718863561281797,0.44166666666666665
0.001288404360753221,0.44166666666666665
0.001288404360753221,0.4423611111111111
0.0013214403700033035,0.4423611111111111
0.0013214403700033035,0.44375
0.0013214403700033035,0.4444444444444444
0.0013379583746283448,0.4444444444444444
0.0013379583746283448,0.4465277777777778
0.0013709943838784275,0.4465277777777778
0.0013709943838784275,0.45069444444444445
0.0013875123885034688,0.45069444444444445
0.0013875123885034688,0.4548611111111111
0.0014040303931285101,0.4548611111111111
0.0014040303931285101,0.45625
0.0014370664023785928,0.45625
0.0014370664023785928,0.4673611111111111
0.0014701024116286752,0.4673611111111111
0.0014701024116286752,0.4701388888888889
0.0014866204162537165,0.4701388888888889
0.0014866204162537165,0.475
0.0015196564255037992,0.475
0.0015196564255037992,0.47638888888888886
0.0015361744301288405,0.47638888888888886
0.0015361744301288405,0.47708333333333336
0.0015526924347538818,0.47708333333333336
0.0015526924347538818,0.4791666666666667
0.001569210439378923,0.4791666666666667
0.001569210439378923,0.48333333333333334
0.0015857284440039642,0.48333333333333334
0.0015857284440039642,0.4847222222222222
0.0016352824578790882,0.4847222222222222
0.0016352824578790882,0.4875
0.0016683184671291709,0.4875
0.0016683184671291709,0.48819444444444443
0.0016683184671291709,0.4895833333333333
0.0016848364717542122,0.4895833333333333
0.0016848364717542122,0.49027777777777776
0.0017013544763792533,0.49027777777777776
0.0017013544763792533,0.4930555555555556
0.0017178724810042946,0.4930555555555556
0.0017178724810042946,0.49444444444444446
0.001734390485629336,0.49444444444444446
0.001734390485629336,0.4951388888888889
0.0017509084902543773,0.4951388888888889
0.0017509084902543773,0.49930555555555556
0.0017674264948794186,0.49930555555555556
0.0017674264948794186,0.5006944444444444
0.00178394449950446,0.5006944444444444
0.00178394449950446,0.5020833333333333
0.0018004625041295012,0.5020833333333333
0.0018004625041295012,0.5048611111111111
0.0018334985133795837,0.5048611111111111
0.0018334985133795837,0.5069444444444444
0.001850016518004625,0.5069444444444444
0.001850016518004625,0.5076388888888889
0.0018665345226296663,0.5076388888888889
0.0018665345226296663,0.5090277777777777
0.0019160885365047903,0.5090277777777777
0.0019160885365047903,0.5104166666666666
0.0019491245457548727,0.5104166666666666
0.0019491245457548727,0.5131944444444444
0.001965642550379914,0.5131944444444444
0.001965642550379914,0.5145833333333333
0.0019821605550049554,0.5145833333333333
0.0019821605550049554,0.5152777777777777
0.002015196564255038,0.5152777777777777
0.002015196564255038,0.5166666666666667
0.0020482325735051207,0.5166666666666667
0.0020482325735051207,0.5229166666666667
0.002064750578130162,0.5229166666666667
0.002064750578130162,0.525
0.0020977865873802446,0.525
0.0020977865873802446,0.5263888888888889
0.0021308225966303273,0.5263888888888889
0.0021308225966303273,0.5270833333333333
0.002180376610505451,0.5270833333333333
0.002180376610505451,0.5277777777777778
0.002196894615130492,0.5277777777777778
0.002196894615130492,0.5284722222222222
0.0022134126197555335,0.5284722222222222
0.0022134126197555335,0.5305555555555556
0.00229600264288074,0.5305555555555556
0.00229600264288074,0.5354166666666667
0.0023125206475057814,0.5354166666666667
0.0023125206475057814,0.5368055555555555
0.0023290386521308227,0.5368055555555555
0.0023290386521308227,0.5388888888888889
0.0023785926660059467,0.5388888888888889
0.0023785926660059467,0.5416666666666666
0.0023951106706309876,0.5416666666666666
0.0023951106706309876,0.5423611111111111
0.002411628675256029,0.5423611111111111
0.002411628675256029,0.54375
0.0024281466798810702,0.54375
0.0024281466798810702,0.5493055555555556
0.0024446646845061116,0.5493055555555556
0.0024446646845061116,0.55
0.002527254707631318,0.55
0.002527254707631318,0.5506944444444445
0.0025437727122563595,0.5506944444444445
0.0025437727122563595,0.5527777777777778
0.002576808721506442,0.5527777777777778
0.002576808721506442,0.5534722222222223
0.0025933267261314835,0.5534722222222223
0.0025933267261314835,0.5541666666666667
0.0027089527585067723,0.5541666666666667
0.0027089527585067723,0.5548611111111111
0.002741988767756855,0.5548611111111111
0.002741988767756855,0.5576388888888889
0.0027585067723818963,0.5576388888888889
0.0027585067723818963,0.5590277777777778
0.0028080607862570202,0.5590277777777778
0.0028080607862570202,0.5597222222222222
0.0028741328047571855,0.5597222222222222
0.0028741328047571855,0.5618055555555556
0.0028906508093822264,0.5618055555555556
0.0028906508093822264,0.5645833333333333
0.0029402048232573504,0.5645833333333333
0.0029402048232573504,0.5652777777777778
0.0030062768417575157,0.5652777777777778
0.0030062768417575157,0.5673611111111111
0.003022794846382557,0.5673611111111111
0.003022794846382557,0.5680555555555555
0.0030393128510075983,0.5680555555555555
0.0030393128510075983,0.5694444444444444
0.003072348860257681,0.5694444444444444
0.003072348860257681,0.5715277777777777
0.0030888668648827223,0.5715277777777777
0.0030888668648827223,0.5722222222222222
0.0031714568880079285,0.5722222222222222
0.0031714568880079285,0.5736111111111111
0.00318797489263297,0.5736111111111111
0.00318797489263297,0.5798611111111112
0.003204492897258011,0.5798611111111112
0.003204492897258011,0.5805555555555556
0.0032210109018830525,0.5805555555555556
0.0032210109018830525,0.5833333333333334
0.003237528906508094,0.5833333333333334
0.003237528906508094,0.5840277777777778
0.003254046911133135,0.5840277777777778
0.003254046911133135,0.5875
0.0032705649157581764,0.5875
0.0032705649157581764,0.5895833333333333
0.003303600925008259,0.5895833333333333
0.003303600925008259,0.5916666666666667
0.0033201189296333004,0.5916666666666667
0.0033201189296333004,0.5923611111111111
0.003353154938883383,0.5923611111111111
0.003353154938883383,0.5930555555555556
0.0034357449620085892,0.5930555555555556
0.0034357449620085892,0.59375
0.0034522629666336306,0.59375
0.0034522629666336306,0.5951388888888889
0.003468780971258672,0.5951388888888889
0.003468780971258672,0.5965277777777778
0.0035018169805087545,0.5965277777777778
0.0035018169805087545,0.5972222222222222
0.003518334985133796,0.5972222222222222
0.003518334985133796,0.5979166666666667
0.0035513709943838785,0.5979166666666667
0.0035513709943838785,0.5993055555555555
0.0036009250082590025,0.5993055555555555
0.0036009250082590025,0.6
0.003617443012884044,0.6
0.003617443012884044,0.6013888888888889
0.003650479022134126,0.6013888888888889
0.0036669970267591673,0.6020833333333333
0.0036669970267591673,0.6027777777777777
0.0036835150313842087,0.6027777777777777
0.0036835150313842087,0.6034722222222222
0.00370003303600925,0.6034722222222222
0.00370003303600925,0.6055555555555555
0.0037165510406342913,0.6055555555555555
0.0037165510406342913,0.6069444444444444
0.0037330690452593326,0.6069444444444444
0.0037330690452593326,0.6104166666666667
0.003799141063759498,0.6104166666666667
0.003799141063759498,0.6111111111111112
0.0038817310868847045,0.6111111111111112
0.0038817310868847045,0.6118055555555556
0.0038982490915097454,0.6118055555555556
0.0038982490915097454,0.6125
0.003914767096134787,0.6125
0.003914767096134787,0.6131944444444445
0.003931285100759828,0.6131944444444445
0.003931285100759828,0.6152777777777778
0.003997357119259993,0.6152777777777778
0.003997357119259993,0.6166666666666667
0.004030393128510076,0.6166666666666667
0.004030393128510076,0.6173611111111111
0.004046911133135117,0.6173611111111111
0.004046911133135117,0.6180555555555556
0.0040799471423851996,0.6180555555555556
0.0040799471423851996,0.6194444444444445
0.004146019160885365,0.6194444444444445
0.004146019160885365,0.6201388888888889
0.004162537165510407,0.6201388888888889
0.004162537165510407,0.6208333333333333
0.0041790551701354475,0.6208333333333333
0.0041790551701354475,0.6215277777777778
0.00421209117938553,0.6215277777777778
0.00421209117938553,0.6222222222222222
0.004228609184010572,0.6222222222222222
0.004228609184010572,0.6236111111111111
0.004245127188635613,0.6236111111111111
0.004245127188635613,0.625
0.0042616451932606545,0.625
0.0042616451932606545,0.6256944444444444
0.0042781631978856954,0.6256944444444444
0.0042781631978856954,0.6270833333333333
0.004294681202510736,0.6270833333333333
0.004294681202510736,0.6291666666666667
0.004360753221010902,0.6291666666666667
0.004360753221010902,0.6298611111111111
0.004377271225635943,0.6298611111111111
0.004377271225635943,0.6305555555555555
0.004443343244136109,0.6305555555555555
0.004443343244136109,0.63125
0.0044598612487611496,0.63125
0.0044598612487611496,0.6354166666666666
0.004476379253386191,0.6354166666666666
0.004476379253386191,0.6361111111111111
0.004492897258011232,0.6361111111111111
0.004492897258011232,0.6368055555555555
0.004575487281136438,0.6368055555555555
0.004575487281136438,0.6375
0.00459200528576148,0.6375
0.00459200528576148,0.6381944444444444
0.004608523290386521,0.6381944444444444
0.004608523290386521,0.6388888888888888
0.004625041295011563,0.6388888888888888
0.004625041295011563,0.6395833333333333
0.004641559299636604,0.6395833333333333
0.004641559299636604,0.6402777777777777
0.0046580773042616454,0.6402777777777777
0.0046580773042616454,0.6409722222222223
0.004691113313511728,0.6409722222222223
0.004691113313511728,0.6416666666666667
0.004707631318136769,0.6416666666666667
0.004707631318136769,0.6430555555555556
0.004724149322761811,0.6430555555555556
0.004724149322761811,0.64375
0.004757185332011893,0.64375
0.004757185332011893,0.6451388888888889
0.004790221341261975,0.6451388888888889
0.004790221341261975,0.6458333333333334
0.0048397753551371,0.6458333333333334
0.0048397753551371,0.6465277777777778
0.0048562933597621405,0.6465277777777778
0.0048562933597621405,0.6472222222222223
0.004922365378262306,0.6472222222222223
0.004922365378262306,0.6479166666666667
0.004955401387512388,0.6479166666666667
0.004955401387512388,0.6486111111111111
0.00497191939213743,0.6486111111111111
0.00497191939213743,0.6493055555555556
0.004988437396762471,0.6493055555555556
0.004988437396762471,0.6506944444444445
0.005021473406012554,0.6506944444444445
0.005021473406012554,0.6513888888888889
0.005037991410637595,0.6513888888888889
0.005037991410637595,0.6541666666666667
0.005054509415262636,0.6541666666666667
0.005054509415262636,0.6548611111111111
0.005087545424512719,0.6548611111111111
0.005087545424512719,0.6555555555555556
0.005120581433762802,0.6555555555555556
0.005120581433762802,0.6569444444444444
0.0051370994383878425,0.6569444444444444
0.0051370994383878425,0.6576388888888889
0.005153617443012884,0.6576388888888889
0.005153617443012884,0.6597222222222222
0.005186653452262967,0.6597222222222222
0.005186653452262967,0.6604166666666667
0.005203171456888008,0.6604166666666667
0.005203171456888008,0.6611111111111111
0.005252725470763132,0.6611111111111111
0.005252725470763132,0.6631944444444444
0.005318797489263297,0.6631944444444444
0.005318797489263297,0.6638888888888889
0.005351833498513379,0.6638888888888889
0.005351833498513379,0.6645833333333333
0.005401387512388504,0.6645833333333333
0.005401387512388504,0.6652777777777777
0.005566567558638916,0.6652777777777777
0.005583085563263958,0.6659722222222222
0.005649157581764123,0.6659722222222222
0.005649157581764123,0.6666666666666666
0.005665675586389164,0.6666666666666666
0.005665675586389164,0.6673611111111111
0.005682193591014206,0.6673611111111111
0.005682193591014206,0.6680555555555555
0.005715229600264288,0.6680555555555555
0.005715229600264288,0.6694444444444444
0.005731747604889329,0.6694444444444444
0.005731747604889329,0.6701388888888888
0.005748265609514371,0.6701388888888888
0.005748265609514371,0.6715277777777777
0.0058143376280145355,0.6715277777777777
0.0058143376280145355,0.6722222222222223
0.005830855632639577,0.6722222222222223
0.005830855632639577,0.6729166666666667
0.006029071688140072,0.6729166666666667
0.006029071688140072,0.6736111111111112
0.006078625702015197,0.6736111111111112
0.006078625702015197,0.6756944444444445
0.006111661711265279,0.6756944444444445
0.006111661711265279,0.6763888888888889
0.006210769739015527,0.6763888888888889
0.006210769739015527,0.6777777777777778
0.00624380574826561,0.6777777777777778
0.00624380574826561,0.6784722222222223
0.006260323752890651,0.6784722222222223
0.006260323752890651,0.6791666666666667
0.006276841757515692,0.6791666666666667
0.006276841757515692,0.6798611111111111
0.0062933597621407334,0.6798611111111111
0.0062933597621407334,0.68125
0.006309877766765774,0.68125
0.006309877766765774,0.6833333333333333
0.00637594978526594,0.6833333333333333
0.00637594978526594,0.6840277777777778
0.006408985794516022,0.6840277777777778
0.006408985794516022,0.6847222222222222
0.006425503799141064,0.6847222222222222
0.006425503799141064,0.6854166666666667
0.006442021803766105,0.6854166666666667
0.006442021803766105,0.6868055555555556
0.006458539808391147,0.6868055555555556
0.006458539808391147,0.6888888888888889
0.006491575817641229,0.6888888888888889
0.006491575817641229,0.6895833333333333
0.00650809382226627,0.6895833333333333
0.00650809382226627,0.6902777777777778
0.006623719854641559,0.6902777777777778
0.006623719854641559,0.6923611111111111
0.006640237859266601,0.6923611111111111
0.006640237859266601,0.6930555555555555
0.006656755863891642,0.6930555555555555
0.006656755863891642,0.6944444444444444
0.006689791873141724,0.6944444444444444
0.006689791873141724,0.6958333333333333
0.00675586389164189,0.6958333333333333
0.00675586389164189,0.6965277777777777
0.0067723818962669305,0.6965277777777777
0.0067723818962669305,0.6986111111111111
0.006805417905517013,0.6986111111111111
0.006805417905517013,0.6993055555555555
0.006838453914767096,0.6993055555555555
0.0068714899240171785,0.6993055555555555
0.00688800792864222,0.6993055555555555
0.00688800792864222,0.7
0.006904525933267261,0.7
0.006904525933267261,0.7006944444444444
0.006921043937892303,0.7006944444444444
0.006921043937892303,0.7027777777777777
0.006970597951767426,0.7027777777777777
0.006970597951767426,0.7034722222222223
0.007003633961017509,0.7034722222222223
0.007003633961017509,0.7048611111111112
0.007020151965642551,0.7048611111111112
0.007020151965642551,0.7055555555555556
0.007053187974892633,0.7055555555555556
0.007053187974892633,0.70625
0.007086223984142715,0.70625
0.007086223984142715,0.7076388888888889
0.007185332011892963,0.7076388888888889
0.007185332011892963,0.7083333333333334
0.007201850016518005,0.7083333333333334
0.007201850016518005,0.7097222222222223
0.007218368021143046,0.7097222222222223
0.007218368021143046,0.7111111111111111
0.007234886025768088,0.7111111111111111
0.007234886025768088,0.7125
0.007284440039643211,0.7125
0.007284440039643211,0.7131944444444445
0.007350512058143376,0.7131944444444445
0.007350512058143376,0.7138888888888889
0.007383548067393459,0.7138888888888889
0.007383548067393459,0.7145833333333333
0.0074000660720185,0.7145833333333333
0.0074000660720185,0.7152777777777778
0.007416584076643542,0.7152777777777778
0.007416584076643542,0.7180555555555556
0.007466138090518665,0.7180555555555556
0.007466138090518665,0.7201388888888889
0.007499174099768748,0.7201388888888889
0.007499174099768748,0.7215277777777778
0.007548728113643871,0.7215277777777778
0.007548728113643871,0.7222222222222222
0.007581764122893954,0.7222222222222222
0.007581764122893954,0.7236111111111111
0.007664354146019161,0.7236111111111111
0.007664354146019161,0.7243055555555555
0.007680872150644202,0.7243055555555555
0.007680872150644202,0.725
0.007697390155269244,0.725
0.007697390155269244,0.7256944444444444
0.007746944169144367,0.7256944444444444
0.007746944169144367,0.7270833333333333
0.007813016187644533,0.7270833333333333
0.007813016187644533,0.7291666666666666
0.007879088206144698,0.7291666666666666
0.007879088206144698,0.73125
0.00791212421539478,0.73125
0.00791212421539478,0.7319444444444444
0.008093822266270234,0.7319444444444444
0.008093822266270234,0.7333333333333333
0.008143376280145359,0.7333333333333333
0.008143376280145359,0.7340277777777777
0.008159894284770399,0.7340277777777777
0.008159894284770399,0.7347222222222223
0.00817641228939544,0.7347222222222223
0.00817641228939544,0.7354166666666667
0.008242484307895606,0.7354166666666667
0.008242484307895606,0.7361111111111112
0.008259002312520648,0.7361111111111112
0.008259002312520648,0.7368055555555556
0.00829203832177073,0.7368055555555556
0.008374628344895937,0.7368055555555556
0.008374628344895937,0.7375
0.008440700363396102,0.7375
0.008440700363396102,0.7388888888888889
0.008457218368021144,0.7388888888888889
0.008457218368021144,0.7395833333333334
0.008589362405021473,0.7395833333333334
0.008589362405021473,0.7402777777777778
0.008721506442021803,0.7402777777777778
0.008721506442021803,0.7409722222222223
0.008837132474397092,0.7409722222222223
0.008837132474397092,0.7416666666666667
0.008870168483647176,0.7416666666666667
0.008903204492897257,0.7416666666666667
0.008952758506772383,0.7416666666666667
0.008952758506772383,0.7423611111111111
0.008969276511397423,0.7423611111111111
0.008969276511397423,0.7430555555555556
0.009035348529897588,0.7430555555555556
0.009035348529897588,0.74375
0.009068384539147671,0.74375
0.009068384539147671,0.7444444444444445
0.009101420548397753,0.7444444444444445
0.009101420548397753,0.7458333333333333
0.009117938553022795,0.7458333333333333
0.009117938553022795,0.7465277777777778
0.009250082590023126,0.7465277777777778
0.009250082590023126,0.7472222222222222
0.009266600594648167,0.7472222222222222
0.009266600594648167,0.7486111111111111
0.009497852659398745,0.7486111111111111
0.009497852659398745,0.7493055555555556
0.009596960687148992,0.7493055555555556
0.009596960687148992,0.75
0.009762140733399406,0.75
0.009762140733399406,0.7513888888888889
0.009844730756524612,0.7513888888888889
0.009844730756524612,0.7520833333333333
0.009877766765774695,0.7520833333333333
0.009877766765774695,0.7527777777777778
0.009894284770399735,0.7527777777777778
0.009894284770399735,0.7541666666666667
0.009910802775024777,0.7541666666666667
0.009910802775024777,0.7548611111111111
0.009976874793524942,0.7548611111111111
0.009976874793524942,0.7555555555555555
0.010026428807400066,0.7555555555555555
0.010026428807400066,0.7569444444444444
0.010092500825900231,0.7569444444444444
0.010092500825900231,0.7576388888888889
0.010142054839775354,0.7576388888888889
0.010142054839775354,0.7583333333333333
0.010175090849025438,0.7583333333333333
0.010175090849025438,0.7590277777777777
0.01019160885365048,0.7590277777777777
0.01019160885365048,0.7597222222222222
0.010241162867525603,0.7597222222222222
0.010241162867525603,0.7611111111111111
0.010389824909150974,0.7611111111111111
0.010389824909150974,0.7638888888888888
0.01058804096465147,0.7638888888888888
0.01058804096465147,0.7645833333333333
0.010670630987776677,0.7645833333333333
0.010670630987776677,0.7652777777777777
0.010901883052527254,0.7652777777777777
0.010901883052527254,0.7659722222222223
0.011067063098777667,0.7659722222222223
0.011067063098777667,0.7666666666666667
0.011083581103402709,0.7666666666666667
0.011083581103402709,0.7673611111111112
0.011116617112652792,0.7673611111111112
0.011116617112652792,0.7694444444444445
0.011298315163528246,0.7694444444444445
0.011331351172778328,0.7694444444444445
0.011331351172778328,0.7701388888888889
0.011744301288404362,0.7701388888888889
0.011744301288404362,0.7722222222222223
0.011793855302279485,0.7722222222222223
0.011793855302279485,0.7729166666666667
0.011843409316154609,0.7729166666666667
0.011843409316154609,0.7736111111111111
0.01185992732077965,0.7736111111111111
0.01185992732077965,0.7743055555555556
0.011925999339279816,0.7743055555555556
0.011925999339279816,0.775
0.012025107367030063,0.775
0.012025107367030063,0.7756944444444445
0.012041625371655105,0.7756944444444445
0.012041625371655105,0.7763888888888889
0.012074661380905186,0.7763888888888889
0.012074661380905186,0.7770833333333333
0.012272877436405682,0.7770833333333333
0.012272877436405682,0.7777777777777778
0.012305913445655764,0.7777777777777778
0.012305913445655764,0.7784722222222222
0.01235546745953089,0.7784722222222222
0.01235546745953089,0.7791666666666667
0.012619755533531549,0.7791666666666667
0.012619755533531549,0.7798611111111111
0.012669309547406674,0.7798611111111111
0.012669309547406674,0.7805555555555556
0.012702345556656756,0.7805555555555556
0.012702345556656756,0.78125
0.01273538156590684,0.78125
0.01273538156590684,0.7819444444444444
0.012768417575156921,0.7819444444444444
0.012768417575156921,0.7840277777777778
0.012801453584407003,0.7840277777777778
0.012834489593657086,0.7840277777777778
0.012834489593657086,0.7847222222222222
0.012966633630657417,0.7847222222222222
0.012966633630657417,0.7854166666666667
0.01301618764453254,0.7854166666666667
0.01301618764453254,0.7861111111111111
0.013197885695407995,0.7861111111111111
0.013197885695407995,0.7868055555555555
0.013214403700033036,0.7868055555555555
0.013214403700033036,0.7875
0.013346547737033367,0.7875
0.013346547737033367,0.7881944444444444
0.013478691774033697,0.7881944444444444
0.013478691774033697,0.7895833333333333
0.013561281797158903,0.7895833333333333
0.013561281797158903,0.7902777777777777
0.014106375949785265,0.7902777777777777
0.014106375949785265,0.7909722222222222
0.014205483977535514,0.7909722222222222
0.014205483977535514,0.7916666666666666
0.014288074000660721,0.7916666666666666
0.014288074000660721,0.7923611111111111
0.014304592005285761,0.7923611111111111
0.014337628014535845,0.7923611111111111
0.014370664023785926,0.7923611111111111
0.014370664023785926,0.7930555555555555
0.01455236207466138,0.7930555555555555
0.01455236207466138,0.7951388888888888
0.014734060125536835,0.7951388888888888
0.014734060125536835,0.7965277777777777
0.01478361413941196,0.7965277777777777
0.01478361413941196,0.7972222222222223
0.015097456227287743,0.7972222222222223
0.015097456227287743,0.7979166666666667
0.01518004625041295,0.7979166666666667
0.01518004625041295,0.7986111111111112
0.015196564255037992,0.7986111111111112
0.015196564255037992,0.7993055555555556
0.015493888338288735,0.7993055555555556
0.015526924347538818,0.7993055555555556
0.015526924347538818,0.8
0.01565906838453915,0.8
0.01569210439378923,0.8
0.015774694416914436,0.8
0.015774694416914436,0.8006944444444445
0.01579121242153948,0.8006944444444445
0.01579121242153948,0.8013888888888889
0.016055500495540137,0.8013888888888889
0.016055500495540137,0.8020833333333334
0.016253716551040635,0.8020833333333334
0.016253716551040635,0.8027777777777778
0.016617112652791543,0.8027777777777778
0.016617112652791543,0.8034722222222223
0.016798810703666997,0.8034722222222223
0.016798810703666997,0.8041666666666667
0.01721176081929303,0.8041666666666667
0.01721176081929303,0.8048611111111111
0.01745953088866865,0.8048611111111111
0.01745953088866865,0.8055555555555556
0.01747604889329369,0.8055555555555556
0.01747604889329369,0.80625
0.01749256689791873,0.80625
0.01749256689791873,0.8069444444444445
0.017575156921043937,0.8069444444444445
0.017575156921043937,0.8076388888888889
0.017789890981169475,0.8076388888888889
0.017789890981169475,0.8083333333333333
0.017839444995044598,0.8083333333333333
0.017839444995044598,0.8090277777777778
0.018004625041295012,0.8090277777777778
0.018004625041295012,0.8097222222222222
0.018169805087545423,0.8097222222222222
0.018169805087545423,0.8104166666666667
0.018401057152296004,0.8104166666666667
0.018401057152296004,0.8118055555555556
0.018450611166171128,0.8118055555555556
0.018450611166171128,0.8125
0.018533201189296335,0.8125
0.018533201189296335,0.8131944444444444
0.018549719193921375,0.8131944444444444
0.018549719193921375,0.8138888888888889
0.018599273207796498,0.8138888888888889
0.018599273207796498,0.8145833333333333
0.018648827221671622,0.8145833333333333
0.018648827221671622,0.8152777777777778
0.018665345226296662,0.8152777777777778
0.018665345226296662,0.8159722222222222
0.018896597291047243,0.8159722222222222
0.018896597291047243,0.8173611111111111
0.018913115295672283,0.8173611111111111
0.018913115295672283,0.8180555555555555
0.01914436736042286,0.8180555555555555
0.01914436736042286,0.81875
0.019441691443673605,0.81875
0.019441691443673605,0.8194444444444444
0.019524281466798812,0.8194444444444444
0.019524281466798812,0.8201388888888889
0.019557317476048892,0.8201388888888889
0.019739015526924347,0.8201388888888889
0.019739015526924347,0.8208333333333333
0.019821605550049554,0.8208333333333333
0.019821605550049554,0.8215277777777777
0.01988767756854972,0.8215277777777777
0.01988767756854972,0.8222222222222222
0.020069375619425175,0.8222222222222222
0.020102411628675255,0.8222222222222222
0.020366699702675916,0.8222222222222222
0.020366699702675916,0.8229166666666666
0.020482325735051207,0.8229166666666666
0.020482325735051207,0.8236111111111111
0.020597951767426494,0.8236111111111111
0.020597951767426494,0.8243055555555555
0.020713577799801784,0.8243055555555555
0.020713577799801784,0.825
0.020730095804426824,0.825
0.020730095804426824,0.8256944444444444
0.02081268582755203,0.8256944444444444
0.02081268582755203,0.8263888888888888
0.020862239841427155,0.8263888888888888
0.020862239841427155,0.8270833333333333
0.02101090188305253,0.8270833333333333
0.02101090188305253,0.8277777777777777
0.021093491906177732,0.8277777777777777
0.021093491906177732,0.8284722222222223
0.021242153947803107,0.8284722222222223
0.021242153947803107,0.8291666666666667
0.021770730095804425,0.8291666666666667
0.021770730095804425,0.8298611111111112
0.02178724810042947,0.8298611111111112
0.02182028410967955,0.8298611111111112
0.0219193921374298,0.8298611111111112
0.0219193921374298,0.8305555555555556
0.022001982160555007,0.8305555555555556
0.022001982160555007,0.83125
0.022167162206805417,0.83125
0.022167162206805417,0.8319444444444445
0.02221671622068054,0.8319444444444445
0.02221671622068054,0.8326388888888889
0.022381896266930955,0.8326388888888889
0.022381896266930955,0.8333333333333334
0.02281136438718203,0.8333333333333334
0.02281136438718203,0.8361111111111111
0.02310868847043277,0.8361111111111111
0.02310868847043277,0.8368055555555556
0.023141724479682855,0.8368055555555556
0.023141724479682855,0.8375
0.023505120581433763,0.8375
0.023538156590683847,0.8375
0.023538156590683847,0.8381944444444445
0.02358771060455897,0.8381944444444445
0.02358771060455897,0.8388888888888889
0.023686818632309217,0.8388888888888889
0.023686818632309217,0.8395833333333333
0.023802444664684508,0.8395833333333333
0.023802444664684508,0.8402777777777778
0.02386851668318467,0.8402777777777778
0.02386851668318467,0.8409722222222222
0.023918070697059795,0.8409722222222222
0.023918070697059795,0.8416666666666667
0.024281466798810703,0.8416666666666667
0.024314502808060787,0.8416666666666667
0.024595308886686488,0.8416666666666667
0.024595308886686488,0.8423611111111111
0.024793524942186985,0.8423611111111111
0.024793524942186985,0.8430555555555556
0.024793524942186985,0.8444444444444444
0.02484307895606211,0.8444444444444444
0.02484307895606211,0.8451388888888889
0.024942186983812356,0.8451388888888889
0.024942186983812356,0.8458333333333333
0.02497522299306244,0.8458333333333333
0.02514040303931285,0.8458333333333333
0.02514040303931285,0.8465277777777778
0.025239511067063097,0.8465277777777778
0.025239511067063097,0.8472222222222222
0.025569871159563926,0.8472222222222222
0.025569871159563926,0.8479166666666667
0.02561942517343905,0.8479166666666667
0.02561942517343905,0.8486111111111111
0.025702015196564256,0.8486111111111111
0.025702015196564256,0.8493055555555555
0.02603237528906508,0.8493055555555555
0.02603237528906508,0.85
0.026346217376940866,0.85
0.026346217376940866,0.8506944444444444
0.02637925338619095,0.8506944444444444
0.02637925338619095,0.8513888888888889
0.02641228939544103,0.8513888888888889
0.02641228939544103,0.8520833333333333
0.026627023455566567,0.8520833333333333
0.026627023455566567,0.8534722222222222
0.026693095474066734,0.8534722222222222
0.026693095474066734,0.8541666666666666
0.026742649487941857,0.8541666666666666
0.026742649487941857,0.8548611111111111
0.026891311529567228,0.8548611111111111
0.026891311529567228,0.85625
0.02730426164519326,0.85625
0.02730426164519326,0.8569444444444444
0.02741988767756855,0.8569444444444444
0.02741988767756855,0.8576388888888888
0.02743640568219359,0.8576388888888888
0.02743640568219359,0.8583333333333333
0.027634621737694088,0.8583333333333333
0.027634621737694088,0.8590277777777777
0.027667657746944168,0.8590277777777777
0.027667657746944168,0.8597222222222223
0.027832837793194582,0.8597222222222223
0.027832837793194582,0.8604166666666667
0.02806408985794516,0.8604166666666667
0.02806408985794516,0.8611111111111112
0.02832837793194582,0.8611111111111112
0.02832837793194582,0.8618055555555556
0.028592666005946482,0.8618055555555556
0.028592666005946482,0.8625
0.028658738024446646,0.8625
0.028658738024446646,0.8631944444444445
0.02869177403369673,0.8631944444444445
0.02869177403369673,0.8638888888888889
0.029154278163197885,0.8638888888888889
0.029154278163197885,0.8645833333333334
0.02956722827882392,0.8645833333333334
0.02956722827882392,0.8652777777777778
0.03021143045920053,0.8652777777777778
0.03021143045920053,0.8659722222222223
0.030806078625702015,0.8659722222222223
0.030806078625702015,0.8666666666666667
0.031053848695077636,0.8666666666666667
0.031086884704327716,0.8666666666666667
0.031219028741328047,0.8666666666666667
0.031219028741328047,0.8673611111111111
0.03125206475057813,0.8673611111111111
0.03125206475057813,0.8680555555555556
0.031301618764453254,0.8680555555555556
0.031301618764453254,0.86875
0.03164849686157912,0.86875
0.03164849686157912,0.8694444444444445
0.031747604889329366,0.8694444444444445
0.03178064089857945,0.8694444444444445
0.03189626693095474,0.8694444444444445
0.03191278493557978,0.8701388888888889
0.03191278493557978,0.8708333333333333
0.03206144697720515,0.8708333333333333
0.03206144697720515,0.8715277777777778
0.03272216716220681,0.8715277777777778
0.03272216716220681,0.8722222222222222
0.03287082920383218,0.8722222222222222
0.03287082920383218,0.8729166666666667
0.03343244136108358,0.8729166666666667
0.03343244136108358,0.8736111111111111
0.03354806739345887,0.8736111111111111
0.03354806739345887,0.8743055555555556
0.033597621407333994,0.8743055555555556
0.033597621407333994,0.875
0.03366369342583416,0.875
0.03366369342583416,0.8756944444444444
0.03410967955071027,0.8756944444444444
0.03410967955071027,0.8763888888888889
0.034225305583085563,0.8763888888888889
0.034225305583085563,0.8777777777777778
0.03429137760158573,0.8777777777777778
0.03429137760158573,0.8784722222222222
0.034522629666336305,0.8784722222222222
0.034522629666336305,0.8791666666666667
0.03470432771721176,0.8791666666666667
0.03470432771721176,0.8798611111111111
0.035381565906838455,0.8798611111111111
0.035381565906838455,0.8805555555555555
0.03562933597621407,0.8805555555555555
0.03562933597621407,0.88125
0.035777998017839444,0.88125
0.035777998017839444,0.8819444444444444
0.03605880409646515,0.8819444444444444
0.03605880409646515,0.8833333333333333
0.036124876114965315,0.8833333333333333
0.036157912124215395,0.8833333333333333
0.03660389824909151,0.8833333333333333
0.03662041625371655,0.8840277777777777
0.03662041625371655,0.8847222222222222
0.03683515031384209,0.8847222222222222
0.03683515031384209,0.8854166666666666
0.036901222332342255,0.8854166666666666
0.036901222332342255,0.8861111111111111
0.037082920383217706,0.8861111111111111
0.037082920383217706,0.8868055555555555
0.03734720845721837,0.8868055555555555
0.03734720845721837,0.8875
0.03751238850346878,0.8875
0.03751238850346878,0.8881944444444444
0.03795837462834489,0.8881944444444444
0.03795837462834489,0.8888888888888888
0.03820614469772052,0.8888888888888888
0.0382391807069706,0.8888888888888888
0.038338288734720845,0.8888888888888888
0.038338288734720845,0.8895833333333333
0.038420878757846055,0.8895833333333333
0.038420878757846055,0.8902777777777777
0.03858605880409646,0.8902777777777777
0.03858605880409646,0.8909722222222223
0.03868516683184671,0.8909722222222223
0.0387182028410968,0.8909722222222223
0.03883382887347209,0.8909722222222223
0.03883382887347209,0.8916666666666667
0.039081598942847705,0.8916666666666667
0.039081598942847705,0.8923611111111112
0.039114634952097785,0.8923611111111112
0.039114634952097785,0.8930555555555556
0.039593657086223984,0.8930555555555556
0.039626693095474064,0.8930555555555556
0.04018830525272547,0.8930555555555556
0.04018830525272547,0.89375
0.041344565576478365,0.89375
0.041344565576478365,0.8944444444444445
0.041410637594978525,0.8944444444444445
0.041410637594978525,0.8951388888888889
0.04146019160885365,0.8951388888888889
0.041493227618103735,0.8951388888888889
0.04162537165510406,0.8951388888888889
0.04162537165510406,0.8958333333333334
0.04177403369672943,0.8958333333333334
0.04177403369672943,0.8965277777777778
0.04213742979848034,0.8965277777777778
0.04217046580773043,0.8965277777777778
0.04236868186323092,0.8965277777777778
0.04236868186323092,0.8972222222222223
0.04248430789560621,0.8972222222222223
0.04248430789560621,0.8979166666666667
0.042814667988107034,0.8979166666666667
0.042814667988107034,0.8986111111111111
0.04347538817310869,0.8986111111111111
0.04347538817310869,0.8993055555555556
0.043591014205483974,0.8993055555555556
0.043591014205483974,0.9
0.04369012223323423,0.9
0.04369012223323423,0.9006944444444445
0.043789230260984476,0.9006944444444445
0.043822266270234556,0.9006944444444445
0.044185662371985464,0.9006944444444445
0.044185662371985464,0.9013888888888889
0.04423521638586059,0.9013888888888889
0.04423521638586059,0.9020833333333333
0.0451602246448629,0.9020833333333333
0.0451602246448629,0.9027777777777778
0.04527585067723819,0.9027777777777778
0.04527585067723819,0.9034722222222222
0.04583746283448959,0.9034722222222222
0.04583746283448959,0.9041666666666667
0.045853980839114634,0.9041666666666667
0.045853980839114634,0.9048611111111111
0.0459200528576148,0.9048611111111111
0.0459200528576148,0.9055555555555556
0.04709283118599273,0.9055555555555556
0.04709283118599273,0.90625
0.04773703336636934,0.90625
0.04777006937561942,0.90625
0.04810042946812025,0.90625
0.04810042946812025,0.9069444444444444
0.048298645523620745,0.9069444444444444
0.04833168153287083,0.9069444444444444
0.04857945160224645,0.9069444444444444
0.04857945160224645,0.9076388888888889
0.04887677568549719,0.9076388888888889
0.04887677568549719,0.9083333333333333
0.048893293690122235,0.9083333333333333
0.048893293690122235,0.9090277777777778
0.04947142385199868,0.9090277777777778
0.04947142385199868,0.9097222222222222
0.04991740997687479,0.9097222222222222
0.04991740997687479,0.9111111111111111
0.05069375619425173,0.9111111111111111
0.05072679220350182,0.9111111111111111
0.05072679220350182,0.9118055555555555
0.050743310208126856,0.9118055555555555
0.050743310208126856,0.9125
0.05087545424512719,0.9125
0.05087545424512719,0.9131944444444444
0.0512388503468781,0.9131944444444444
0.0512388503468781,0.9138888888888889
0.051337958374628345,0.9138888888888889
0.051337958374628345,0.9145833333333333
0.051635282457879086,0.9145833333333333
0.051635282457879086,0.9152777777777777
0.05201519656425504,0.9152777777777777
0.05204823257350512,0.9152777777777777
0.05260984473075653,0.9152777777777777
0.05260984473075653,0.9159722222222222
0.05269243475388173,0.9159722222222222
0.05269243475388173,0.9166666666666666
0.05373306904525933,0.9166666666666666
0.05373306904525933,0.9173611111111111
0.05475718533201189,0.9173611111111111
0.05475718533201189,0.9180555555555555
0.055186653452262965,0.9180555555555555
0.05521968946151305,0.9180555555555555
0.05579781962338949,0.9180555555555555
0.05579781962338949,0.91875
0.05697059795176743,0.91875
0.05700363396101751,0.91875
0.0571192599933928,0.91875
0.0571192599933928,0.9194444444444444
0.057185332011892964,0.9194444444444444
0.057185332011892964,0.9201388888888888
0.0574000660720185,0.9201388888888888
0.05743310208126858,0.9201388888888888
0.05771390815989429,0.9201388888888888
0.05774694416914437,0.9201388888888888
0.05835811034027089,0.9201388888888888
0.05835811034027089,0.9208333333333333
0.058738024446646844,0.9208333333333333
0.058738024446646844,0.9215277777777777
0.058820614469772055,0.9215277777777777
0.058820614469772055,0.9222222222222223
0.05906838453914767,0.9222222222222223
0.05906838453914767,0.9229166666666667
0.05908490254377271,0.9229166666666667
0.05908490254377271,0.9236111111111112
0.059861248761149656,0.9236111111111112
0.059861248761149656,0.9243055555555556
0.06000991080277503,0.9243055555555556
0.06004294681202511,0.9243055555555556
0.06096795507102742,0.9243055555555556
0.06096795507102742,0.925
0.06161215725140403,0.925
0.06161215725140403,0.9256944444444445
0.06164519326065411,0.9256944444444445
0.0616782292699042,0.9256944444444445
0.06179385530227949,0.9256944444444445
0.06179385530227949,0.9263888888888889
0.06210769739015527,0.9263888888888889
0.06214073339940535,0.9263888888888889
0.06214073339940535,0.9270833333333334
0.062190287413280476,0.9270833333333334
0.062190287413280476,0.9277777777777778
0.0628840436075322,0.9277777777777778
0.06291707961678229,0.9277777777777778
0.06304922365378263,0.9277777777777778
0.0630822596630327,0.9277777777777778
0.06329699372315824,0.9277777777777778
0.06329699372315824,0.9284722222222223
0.06364387182028411,0.9284722222222223
0.06364387182028411,0.9291666666666667
0.06374297984803436,0.9291666666666667
0.06374297984803436,0.9298611111111111
0.06455236207466138,0.9298611111111111
0.06458539808391146,0.9298611111111111
0.0659233564585398,0.9298611111111111
0.06595639246778989,0.9298611111111111
0.06602246448629005,0.9298611111111111
0.06602246448629005,0.9305555555555556
0.06641889659729104,0.9305555555555556
0.06641889659729104,0.93125
0.06643541460191608,0.93125
0.06643541460191608,0.9319444444444445
0.06788899900891972,0.9319444444444445
0.06788899900891972,0.9326388888888889
0.06835150313842088,0.9326388888888889
0.06838453914767097,0.9326388888888889
0.068401057152296,0.9326388888888889
0.06843409316154608,0.9326388888888889
0.06861579121242153,0.9326388888888889
0.06864882722167162,0.9326388888888889
0.06874793524942187,0.9326388888888889
0.06874793524942187,0.9333333333333333
0.06919392137429799,0.9333333333333333
0.06919392137429799,0.9340277777777778
0.06922695738354807,0.9340277777777778
0.06922695738354807,0.9347222222222222
0.0692434753881731,0.9347222222222222
0.0692434753881731,0.9354166666666667
0.06957383548067393,0.9354166666666667
0.06957383548067393,0.9361111111111111
0.06972249752229931,0.9361111111111111
0.06975553353154938,0.9361111111111111
0.07076313181367691,0.9361111111111111
0.07079616782292698,0.9361111111111111
0.07119259993392799,0.9361111111111111
0.07119259993392799,0.9368055555555556
0.07125867195242815,0.9368055555555556
0.07125867195242815,0.9375
0.07162206805417906,0.9375
0.07165510406342913,0.9375
0.072398414271556,0.9375
0.07243145028080608,0.9375
0.07277832837793194,0.9375
0.07277832837793194,0.9381944444444444
0.0732408325074331,0.9381944444444444
0.0732408325074331,0.9388888888888889
0.07362074661380905,0.9388888888888889
0.07362074661380905,0.9395833333333333
0.07381896266930955,0.9395833333333333
0.07385199867855963,0.9395833333333333
0.07405021473406012,0.9395833333333333
0.07405021473406012,0.9402777777777778
0.07431450280806079,0.9402777777777778
0.07433102081268583,0.9409722222222222
0.07514040303931285,0.9409722222222222
0.07514040303931285,0.9416666666666667
0.07745292368681864,0.9416666666666667
0.07748595969606871,0.9416666666666667
0.077601585728444,0.9416666666666667
0.07763462173769409,0.9416666666666667
0.07814667988107037,0.9416666666666667
0.07814667988107037,0.9423611111111111
0.07912124215394781,0.9423611111111111
0.07915427816319788,0.9423611111111111
0.08037661050545095,0.9423611111111111
0.08040964651470102,0.9423611111111111
0.08070697059795177,0.9423611111111111
0.08074000660720185,0.9423611111111111
0.08108688470432772,0.9423611111111111
0.08108688470432772,0.9430555555555555
0.08191278493557978,0.9430555555555555
0.08191278493557978,0.94375
0.08192930294020483,0.94375
0.08192930294020483,0.9444444444444444
0.08254046911133135,0.9444444444444444
0.08254046911133135,0.9451388888888889
0.08268913115295673,0.9451388888888889
0.08268913115295673,0.9458333333333333
0.08287082920383218,0.9458333333333333
0.08290386521308225,0.9458333333333333
0.0829203832177073,0.9458333333333333
0.08295341922695738,0.9458333333333333
0.0836802114304592,0.9458333333333333
0.0836802114304592,0.9465277777777777
0.0844400396432111,0.9465277777777777
0.08447307565246118,0.9465277777777777
0.08533201189296333,0.9465277777777777
0.08533201189296333,0.9472222222222222
0.08556326395771391,0.9472222222222222
0.08556326395771391,0.9479166666666666
0.08650479022134126,0.9479166666666666
0.08653782623059135,0.9479166666666666
0.08733069045259333,0.9479166666666666
0.08736372646184341,0.9479166666666666
0.08739676247109349,0.9479166666666666
0.08739676247109349,0.9486111111111111
0.08782623059134456,0.9486111111111111
0.08785926660059465,0.9486111111111111
0.08807400066072019,0.9486111111111111
0.08807400066072019,0.9493055555555555
0.08921374297984803,0.9493055555555555
0.08921374297984803,0.95
0.08931285100759828,0.95
0.08931285100759828,0.9506944444444444
0.09023785926660059,0.9506944444444444
0.09023785926660059,0.9520833333333333
0.09150974562272877,0.9520833333333333
0.09150974562272877,0.9527777777777777
0.09317806408985795,0.9527777777777777
0.09317806408985795,0.9534722222222223
0.09377271225635943,0.9534722222222223
0.09377271225635943,0.9541666666666667
0.0942021803766105,0.9541666666666667
0.09423521638586059,0.9541666666666667
0.09558969276511398,0.9541666666666667
0.09562272877436406,0.9541666666666667
0.0969606871489924,0.9541666666666667
0.09699372315824248,0.9541666666666667
0.0973240832507433,0.9541666666666667
0.0973571192599934,0.9541666666666667
0.09988437396762471,0.9541666666666667
0.09988437396762471,0.9548611111111112
0.10018169805087546,0.9548611111111112
0.10021473406012554,0.9548611111111112
0.10127188635612817,0.9548611111111112
0.10130492236537826,0.9548611111111112
0.10317145688800793,0.9548611111111112
0.10320449289725801,0.9548611111111112
0.10325404691113313,0.9548611111111112
0.10328708292038322,0.9548611111111112
0.10348529897588371,0.9548611111111112
0.1035183349851338,0.9548611111111112
0.10500495540138752,0.9548611111111112
0.10500495540138752,0.95625
0.10606210769739016,0.95625
0.10606210769739016,0.9569444444444445
0.10612817971589032,0.9569444444444445
0.10616121572514041,0.9569444444444445
0.10617773372976544,0.9569444444444445
0.10617773372976544,0.9576388888888889
0.10644202180376611,0.9576388888888889
0.10644202180376611,0.9583333333333334
0.10711925999339279,0.9583333333333334
0.10715229600264288,0.9583333333333334
0.10862239841427156,0.9583333333333334
0.10862239841427156,0.9590277777777778
0.10953088866864882,0.9590277777777778
0.10953088866864882,0.9597222222222223
0.10991080277502478,0.9597222222222223
0.10994383878427486,0.9597222222222223
0.11134786917740337,0.9597222222222223
0.11138090518665346,0.9597222222222223
0.11293359762140734,0.9597222222222223
0.11293359762140734,0.9604166666666667
0.11493227618103732,0.9604166666666667
0.11493227618103732,0.9611111111111111
0.11590683845391477,0.9611111111111111
0.11590683845391477,0.9625
0.11851668318467129,0.9625
0.11851668318467129,0.9631944444444445
0.11871489924017178,0.9631944444444445
0.11874793524942187,0.9631944444444445
0.11972249752229931,0.9631944444444445
0.11972249752229931,0.9638888888888889
0.12314172447968286,0.9638888888888889
0.12317476048893293,0.9638888888888889
0.12398414271555996,0.9638888888888889
0.12405021473406012,0.9638888888888889
0.12436405682193591,0.9638888888888889
0.12436405682193591,0.9645833333333333
0.1266765774694417,0.9645833333333333
0.12670961347869178,0.9645833333333333
0.1284440039643211,0.9645833333333333
0.1284440039643211,0.9652777777777778
0.12877436405682194,0.9652777777777778
0.12877436405682194,0.9659722222222222
0.12885695407994716,0.9659722222222222
0.12885695407994716,0.9666666666666667
0.12918731417244797,0.9666666666666667
0.12918731417244797,0.9673611111111111
0.1294350842418236,0.9673611111111111
0.12946812025107368,0.9673611111111111
0.12948463825569873,0.9673611111111111
0.12948463825569873,0.9680555555555556
0.13074000660720184,0.9680555555555556
0.13074000660720184,0.96875
0.13769408655434423,0.96875
0.13769408655434423,0.9694444444444444
0.13994053518334984,0.9694444444444444
0.13997357119259993,0.9694444444444444
0.14126197555335315,0.9694444444444444
0.14129501156260324,0.9694444444444444
0.14139411959035347,0.9694444444444444
0.14139411959035347,0.9701388888888889
0.1416418896597291,0.9701388888888889
0.14167492566897918,0.9701388888888889
0.14245127188635612,0.9701388888888889
0.1424843078956062,0.9701388888888889
0.1426494879418566,0.9701388888888889
0.1426494879418566,0.9708333333333333
0.14444995044598613,0.9708333333333333
0.14448298645523622,0.9708333333333333
0.14464816650148662,0.9708333333333333
0.14466468450611167,0.9715277777777778
0.1449620085893624,0.9715277777777778
0.14499504459861248,0.9715277777777778
0.1450776346217377,0.9715277777777778
0.1451106706309878,0.9715277777777778
0.1466468450611166,0.9715277777777778
0.1466798810703667,0.9715277777777778
0.14681202510736702,0.9715277777777778
0.1468450611166171,0.9715277777777778
0.14801783944499505,0.9715277777777778
0.14805087545424514,0.9715277777777778
0.14826560951437068,0.9715277777777778
0.14829864552362074,0.9715277777777778
0.15003303600925008,0.9715277777777778
0.15003303600925008,0.9722222222222222
0.15049554013875124,0.9722222222222222
0.15049554013875124,0.9729166666666667
0.15072679220350182,0.9729166666666667
0.1507598282127519,0.9729166666666667
0.15130492236537826,0.9729166666666667
0.15133795837462835,0.9729166666666667
0.1514040303931285,0.9729166666666667
0.1514040303931285,0.9736111111111111
0.15632639577139082,0.9736111111111111
0.1563594317806409,0.9736111111111111
0.1569540799471424,0.9736111111111111
0.15698711595639248,0.9736111111111111
0.1606045589692765,0.9736111111111111
0.1606375949785266,0.9736111111111111
0.16101750908490253,0.9736111111111111
0.16105054509415262,0.9736111111111111
0.16187644532540468,0.9736111111111111
0.16190948133465477,0.9736111111111111
0.16658407664354147,0.9736111111111111
0.16658407664354147,0.9743055555555555
0.16808721506442023,0.9743055555555555
0.1681202510736703,0.9743055555555555
0.1686818632309217,0.9743055555555555
0.1686818632309217,0.975
0.1688800792864222,0.975
0.1688800792864222,0.9756944444444444
0.16912784935579783,0.9756944444444444
0.16912784935579783,0.9763888888888889
0.17010241162867526,0.9763888888888889
0.17013544763792535,0.9763888888888889
0.17044928972580112,0.9763888888888889
0.1704823257350512,0.9763888888888889
0.17221671622068055,0.9763888888888889
0.17224975222993064,0.9763888888888889
0.17294350842418235,0.9763888888888889
0.17297654443343244,0.9763888888888889
0.17444664684506112,0.9763888888888889
0.17444664684506112,0.9770833333333333
0.1745622728774364,0.9770833333333333
0.17459530888668648,0.9770833333333333
0.1754046911133135,0.9770833333333333
0.17543772712256359,0.9770833333333333
0.17553683515031385,0.9770833333333333
0.17553683515031385,0.9777777777777777
0.17822926990419558,0.9777777777777777
0.17826230591344566,0.9777777777777777
0.1788404360753221,0.9777777777777777
0.1788734720845722,0.9777777777777777
0.17964981830194912,0.9777777777777777
0.1796828543111992,0.9777777777777777
0.18217707300958044,0.9777777777777777
0.18221010901883053,0.9777777777777777
0.1823587710604559,0.9777777777777777
0.18239180706970598,0.9777777777777777
0.18268913115295674,0.9777777777777777
0.18268913115295674,0.9784722222222222
0.18325074331020813,0.9784722222222222
0.18328377931945822,0.9784722222222222
0.1835150313842088,0.9784722222222222
0.18354806739345886,0.9784722222222222
0.18506772381896266,0.9784722222222222
0.18510075982821275,0.9784722222222222
0.18566237198546415,0.9784722222222222
0.18569540799471423,0.9784722222222222
0.18594317806408986,0.9784722222222222
0.18597621407333995,0.9784722222222222
0.18676907829534192,0.9784722222222222
0.186802114304592,0.9784722222222222
0.18762801453584407,0.9784722222222222
0.18766105054509416,0.9784722222222222
0.18785926660059465,0.9784722222222222
0.18789230260984474,0.9784722222222222
0.18815659068384538,0.9784722222222222
0.18818962669309547,0.9784722222222222
0.18838784274859596,0.9784722222222222
0.18842087875784605,0.9784722222222222
0.188800792864222,0.9784722222222222
0.18883382887347208,0.9784722222222222
0.1901552692434754,0.9784722222222222
0.1901552692434754,0.9791666666666666
0.19213742979848034,0.9791666666666666
0.19217046580773042,0.9791666666666666
0.19222001982160555,0.9791666666666666
0.19225305583085564,0.9791666666666666
0.1941195903534853,0.9791666666666666
0.1941526263627354,0.9791666666666666
0.19618434093161546,0.9791666666666666
0.19618434093161546,0.9798611111111111
0.19634952097786587,0.9798611111111111
0.19634952097786587,0.9805555555555555
0.19663032705649158,0.9805555555555555
0.19669639907499173,0.9805555555555555
0.19681202510736703,0.9805555555555555
0.19681202510736703,0.98125
0.1981665014866204,0.98125
0.1981995374958705,0.98125
0.1988767756854972,0.98125
0.19890981169474728,0.98125
0.2000825900231252,0.98125
0.2001156260323753,0.98125
0.20016518004625042,0.98125
0.20016518004625042,0.9819444444444444
0.20066072018500164,0.9819444444444444
0.20069375619425173,0.9819444444444444
0.2012388503468781,0.9819444444444444
0.2012718863561282,0.9819444444444444
0.20198216055500495,0.9819444444444444
0.20201519656425504,0.9819444444444444
0.20510406342913776,0.9819444444444444
0.20513709943838784,0.9819444444444444
0.20852329038652131,0.9819444444444444
0.2085563263957714,0.9819444444444444
0.20890320449289726,0.9819444444444444
0.20893624050214735,0.9819444444444444
0.20921704658077303,0.9819444444444444
0.20921704658077303,0.9826388888888888
0.2106375949785266,0.9826388888888888
0.21067063098777666,0.9826388888888888
0.21076973901552692,0.9826388888888888
0.210802775024777,0.9826388888888888
0.21106706309877768,0.9826388888888888
0.21110009910802774,0.9826388888888888
0.21154608523290386,0.9826388888888888
0.21157912124215394,0.9826388888888888
0.21440370003303602,0.9826388888888888
0.21443673604228608,0.9826388888888888
0.21498183019491246,0.9826388888888888
0.21498183019491246,0.9833333333333333
0.21757515692104393,0.9833333333333333
0.21760819293029401,0.9833333333333333
0.21850016518004625,0.9833333333333333
0.21850016518004625,0.9840277777777777
0.21998678559629997,0.9840277777777777
0.21998678559629997,0.9847222222222223
0.22198546415592996,0.9847222222222223
0.22198546415592996,0.9854166666666667
0.22218368021143045,0.9854166666666667
0.22221671622068054,0.9854166666666667
0.2226792203501817,0.9854166666666667
0.2227122563594318,0.9854166666666667
0.22325735051205814,0.9854166666666667
0.22325735051205814,0.9861111111111112
0.22393458870168484,0.9861111111111112
0.22396762471093493,0.9861111111111112
0.224793524942187,0.9861111111111112
0.22482656095143708,0.9861111111111112
0.22535513709943839,0.9861111111111112
0.22538817310868847,0.9861111111111112
0.2254707631318137,0.9861111111111112
0.22550379914106375,0.9861111111111112
0.22585067723818963,0.9861111111111112
0.22588371324743972,0.9861111111111112
0.2273207796498183,0.9861111111111112
0.2273538156590684,0.9861111111111112
0.22930294020482325,0.9861111111111112
0.22933597621407334,0.9861111111111112
0.22978196233894946,0.9861111111111112
0.22981499834819955,0.9861111111111112
0.2306408985794516,0.9861111111111112
0.2306739345887017,0.9861111111111112
0.23133465477370332,0.9861111111111112
0.2313676907829534,0.9861111111111112
0.23161546085232904,0.9861111111111112
0.23161546085232904,0.9868055555555556
0.23206144697720515,0.9868055555555556
0.23209448298645524,0.9868055555555556
0.23397753551370995,0.9868055555555556
0.23401057152296004,0.9868055555555556
0.23594317806408985,0.9868055555555556
0.23597621407333993,0.9868055555555556
0.2367195242814668,0.9868055555555556
0.23675256029071687,0.9868055555555556
0.2374793524942187,0.9868055555555556
0.23751238850346879,0.9868055555555556
0.23850346878097126,0.9868055555555556
0.23853650479022134,0.9868055555555556
0.2416418896597291,0.9868055555555556
0.2416749256689792,0.9868055555555556
0.2432771721176082,0.9868055555555556
0.24331020812685827,0.9868055555555556
0.24514370664023785,0.9868055555555556
0.24517674264948794,0.9868055555555556
0.24545754872811365,0.9868055555555556
0.24549058473736374,0.9868055555555556
0.24550710274198878,0.9868055555555556
0.24554013875123884,0.9868055555555556
0.24681202510736702,0.9868055555555556
0.24681202510736702,0.9875
0.2480839114634952,0.9875
0.2481169474727453,0.9875
0.24836471754212092,0.9875
0.24836471754212092,0.9881944444444445
0.2484803435744962,0.9881944444444445
0.24851337958374628,0.9881944444444445
0.24886025768087214,0.9881944444444445
0.24890981169474727,0.9881944444444445
0.2518830525272547,0.9881944444444445
0.25191608853650477,0.9881944444444445
0.25198216055500494,0.9881944444444445
0.25201519656425503,0.9881944444444445
0.25265939874463167,0.9881944444444445
0.25269243475388176,0.9881944444444445
0.2530723488602577,0.9881944444444445
0.2531053848695078,0.9881944444444445
0.2533531549388834,0.9881944444444445
0.25338619094813347,0.9881944444444445
0.2537661050545094,0.9881944444444445
0.2537991410637595,0.9881944444444445
0.2549223653782623,0.9881944444444445
0.2549554013875124,0.9881944444444445
0.25597951767426497,0.9881944444444445
0.25601255368351505,0.9881944444444445
0.2562438057482656,0.9881944444444445
0.2562768417575157,0.9881944444444445
0.25673934588701686,0.9881944444444445
0.25673934588701686,0.9888888888888889
0.2569210439378923,0.9888888888888889
0.25695407994714237,0.9888888888888889
0.2599603567888999,0.9888888888888889
0.25999339279815,0.9888888888888889
0.2607367030062768,0.9888888888888889
0.2607367030062768,0.9895833333333334
0.2610340270895276,0.9895833333333334
0.26106706309877764,0.9895833333333334
0.2626693095474067,0.9895833333333334
0.2627023455566568,0.9895833333333334
0.2643211100099108,0.9895833333333334
0.2643541460191609,0.9895833333333334
0.26443673604228607,0.9895833333333334
0.26446977205153616,0.9895833333333334
0.2650313842087876,0.9895833333333334
0.2650479022134126,0.9902777777777778
0.2667657746944169,0.9902777777777778
0.266798810703667,0.9902777777777778
0.26782292699041954,0.9902777777777778
0.26785596299966963,0.9902777777777778
0.2687314172447968,0.9902777777777778
0.2687314172447968,0.9909722222222223
0.269606871489924,0.9909722222222223
0.2696399074991741,0.9909722222222223
0.27185332011892965,0.9909722222222223
0.27188635612817974,0.9909722222222223
0.2722001982160555,0.9909722222222223
0.2722332342253056,0.9909722222222223
0.2728774364056822,0.9909722222222223
0.27291047241493227,0.9909722222222223
0.27312520647505784,0.9909722222222223
0.2731582424843079,0.9909722222222223
0.27472745292368683,0.9909722222222223
0.27472745292368683,0.9916666666666667
0.27750247770069375,0.9916666666666667
0.27753551370994384,0.9916666666666667
0.27804757185332013,0.9916666666666667
0.2780806078625702,0.9916666666666667
0.28349851337958376,0.9916666666666667
0.28353154938883385,0.9916666666666667
0.28381235546745953,0.9916666666666667
0.2838453914767096,0.9916666666666667
0.2847538817310869,0.9916666666666667
0.284786917740337,0.9916666666666667
0.28609184010571526,0.9916666666666667
0.2861248761149653,0.9916666666666667
0.28676907829534193,0.9916666666666667
0.286802114304592,0.9916666666666667
0.2868351503138421,0.9916666666666667
0.2868681863230922,0.9916666666666667
0.2870168483647175,0.9916666666666667
0.2870168483647175,0.9923611111111111
0.2874463164849686,0.9923611111111111
0.2874793524942187,0.9923611111111111
0.2899240171787248,0.9923611111111111
0.2899570531879749,0.9923611111111111
0.29000660720185,0.9923611111111111
0.2900396432111001,0.9923611111111111
0.2907333994053518,0.9923611111111111
0.2907664354146019,0.9923611111111111
0.2910637594978527,0.9923611111111111
0.29109679550710277,0.9923611111111111
0.2919061777337298,0.9923611111111111
0.2919061777337298,0.9930555555555556
0.29418566237198546,0.9930555555555556
0.29421869838123554,0.9930555555555556
0.29786917740336966,0.9930555555555556
0.29786917740336966,0.99375
0.2980839114634952,0.99375
0.2981169474727453,0.99375
0.29937231582424845,0.99375
0.29940535183349853,0.99375
0.2994383878427486,0.99375
0.29947142385199865,0.99375
0.29995044598612486,0.99375
0.29998348199537495,0.99375
0.30074331020812684,0.99375
0.3007763462173769,0.99375
0.3008754542451272,0.99375
0.30090849025437727,0.99375
0.301602246448629,0.99375
0.3016352824578791,0.99375
0.30366699702675914,0.99375
0.30370003303600923,0.99375
0.3047241493227618,0.99375
0.3047571853320119,0.99375
0.3052362074661381,0.99375
0.3052692434753882,0.99375
0.30609514370664026,0.99375
0.30612817971589035,0.99375
0.30645853980839116,0.99375
0.30649157581764125,0.99375
0.3088701684836472,0.99375
0.30890320449289727,0.99375
0.3089527585067724,0.99375
0.3089857945160225,0.99375
0.311215725140403,0.99375
0.3112487611496531,0.99375
0.3125206475057813,0.99375
0.3125536835150314,0.99375
0.31488272216716223,0.99375
0.31491575817641226,0.99375
0.3156755863891642,0.99375
0.3157086223984143,0.99375
0.31693095474066735,0.99375
0.31696399074991743,0.99375
0.3173108688470433,0.99375
0.3173439048562934,0.99375
0.31904525933267264,0.99375
0.31907829534192267,0.99375
0.3226296663363066,0.99375
0.32266270234555666,0.99375
0.32593326726131483,0.99375
0.3259663032705649,0.99375
0.32670961347869176,0.99375
0.32674264948794185,0.99375
0.3297489263296994,0.99375
0.32978196233894946,0.99375
0.33062438057482657,0.99375
0.33065741658407666,0.99375
0.33123554674595307,0.99375
0.33126858275520316,0.99375
0.33237528906508096,0.99375
0.33240832507433105,0.99375
0.3334819953749587,0.99375
0.3334819953749587,0.9944444444444445
0.33612487611496533,0.9944444444444445
0.3361579121242154,0.9944444444444445
0.336389164188966,0.9944444444444445
0.33642220019821606,0.9944444444444445
0.3385530227948464,0.9944444444444445
0.3385860588040965,0.9944444444444445
0.3415427816319789,0.9944444444444445
0.34157581764122896,0.9944444444444445
0.34241823587710607,0.9944444444444445
0.3424512718863561,0.9944444444444445
0.3467624710934919,0.9944444444444445
0.346795507102742,0.9944444444444445
0.34734060125536836,0.9944444444444445
0.34737363726461845,0.9944444444444445
0.3515196564255038,0.9944444444444445
0.3515526924347539,0.9944444444444445
0.3516187644532541,0.9944444444444445
0.3516518004625041,0.9944444444444445
0.35229600264288075,0.9944444444444445
0.35232903865213083,0.9944444444444445
0.3525602907168814,0.9944444444444445
0.3525933267261315,0.9944444444444445
0.35328708292038324,0.9944444444444445
0.3533201189296333,0.9944444444444445
0.35404691113313513,0.9944444444444445
0.3540799471423852,0.9944444444444445
0.35583085563263955,0.9944444444444445
0.35586389164188964,0.9944444444444445
0.3560786257020152,0.9944444444444445
0.3561116617112653,0.9944444444444445
0.357598282127519,0.9944444444444445
0.35763131813676907,0.9944444444444445
0.36005946481665013,0.9944444444444445
0.3600925008259002,0.9944444444444445
0.3602411628675256,0.9944444444444445
0.3602741988767757,0.9944444444444445
0.3618764453254047,0.9944444444444445
0.3619094813346548,0.9944444444444445
0.362388503468781,0.9944444444444445
0.3624215394780311,0.9944444444444445
0.36442021803766106,0.9944444444444445
0.36445325404691115,0.9944444444444445
0.3654773703336637,0.9944444444444445
0.3654773703336637,0.9951388888888889
0.36780640898579453,0.9951388888888889
0.3678394449950446,0.9951388888888889
0.3681202510736703,0.9951388888888889
0.3681532870829204,0.9951388888888889
0.36835150313842085,0.9951388888888889
0.36838453914767094,0.9951388888888889
0.36873141724479686,0.9951388888888889
0.3687644532540469,0.9951388888888889
0.36886356128179715,0.9951388888888889
0.36889659729104723,0.9951388888888889
0.36909481334654776,0.9951388888888889
0.36912784935579784,0.9951388888888889
0.3691608853650479,0.9951388888888889
0.36919392137429796,0.9951388888888889
0.37086223984142713,0.9951388888888889
0.3708952758506772,0.9951388888888889
0.3745127188635613,0.9951388888888889
0.3745457548728114,0.9951388888888889
0.37748595969606874,0.9951388888888889
0.37751899570531877,0.9951388888888889
0.37875784605219687,0.9951388888888889
0.37879088206144695,0.9951388888888889
0.37993062438057484,0.9951388888888889
0.37996366038982493,0.9951388888888889
0.38032705649157583,0.9951388888888889
0.3803600925008259,0.9951388888888889
0.3849520977865874,0.9951388888888889
0.3849851337958375,0.9951388888888889
0.385199867855963,0.9951388888888889
0.3852329038652131,0.9951388888888889
0.3857449620085894,0.9951388888888889
0.38577799801783946,0.9951388888888889
0.3882391807069706,0.9951388888888889
0.3882722167162207,0.9951388888888889
0.389593657086224,0.9951388888888889
0.38962669309547404,0.9951388888888889
0.39137760158572843,0.9951388888888889
0.3914106375949785,0.9951388888888889
0.3918731417244797,0.9951388888888889
0.39190617773372977,0.9951388888888889
0.3939213742979848,0.9951388888888889
0.3939544103072349,0.9951388888888889
0.4024777006937562,0.9951388888888889
0.4025107367030063,0.9951388888888889
0.4040799471423852,0.9951388888888889
0.4041129831516353,0.9951388888888889
0.4066732738685167,0.9951388888888889
0.4067063098777668,0.9951388888888889
0.4071027419887678,0.9951388888888889
0.40713577799801787,0.9951388888888889
0.4080773042616452,0.9951388888888889
0.40811034027089527,0.9951388888888889
0.4091509745622729,0.9951388888888889
0.409184010571523,0.9951388888888889
0.4093657086223984,0.9951388888888889
0.4093987446316485,0.9951388888888889
0.40966303270564913,0.9951388888888889
0.4096960687148992,0.9951388888888889
0.4098116947472745,0.9951388888888889
0.4098447307565246,0.9951388888888889
0.4127518995705319,0.9951388888888889
0.41278493557978196,0.9951388888888889
0.4157251404030393,0.9951388888888889
0.4157581764122894,0.9951388888888889
0.41590683845391474,0.9951388888888889
0.4159398744631648,0.9951388888888889
0.4172778328377932,0.9951388888888889
0.41731086884704327,0.9951388888888889
0.4180872150644202,0.9951388888888889
0.4181202510736703,0.9951388888888889
0.4185992732077965,0.9951388888888889
0.4186323092170466,0.9951388888888889
0.4197555335315494,0.9951388888888889
0.41978856954079946,0.9951388888888889
0.42033366369342584,0.9951388888888889
0.42036669970267593,0.9951388888888889
0.4204658077304262,0.9951388888888889
0.4204988437396762,0.9951388888888889
0.42613148331681533,0.9951388888888889
0.4261645193260654,0.9951388888888889
0.4314172447968285,0.9951388888888889
0.4314502808060786,0.9951388888888889
0.433201189296333,0.9951388888888889
0.4332342253055831,0.9951388888888889
0.43430789560621075,0.9951388888888889
0.43434093161546083,0.9951388888888889
0.4355302279484638,0.9951388888888889
0.4355632639577139,0.9951388888888889
0.43581103402708954,0.9951388888888889
0.4358440700363396,0.9951388888888889
0.4372481004294681,0.9951388888888889
0.4372811364387182,0.9951388888888889
0.44055170135447635,0.9951388888888889
0.44061777337297653,0.9951388888888889
0.441592335645854,0.9951388888888889
0.44162537165510407,0.9951388888888889
0.4417079616782293,0.9951388888888889
0.4417409976874794,0.9951388888888889
0.44187314172447967,0.9951388888888889
0.44190617773372975,0.9951388888888889
0.44286422200198217,0.9951388888888889
0.44289725801123225,0.9951388888888889
0.4437231582424843,0.9951388888888889
0.4437561942517344,0.9951388888888889
0.44573835480673935,0.9951388888888889
0.44577139081598943,0.9951388888888889
0.4465147010241163,0.9951388888888889
0.44654773703336637,0.9951388888888889
0.44844730756524614,0.9951388888888889
0.44844730756524614,0.9958333333333333
0.4560786257020152,0.9958333333333333
0.45611166171126527,0.9958333333333333
0.45626032375289066,0.9958333333333333
0.45629335976214075,0.9958333333333333
0.4565906838453915,0.9958333333333333
0.45662371985464156,0.9958333333333333
0.45738354806739345,0.9958333333333333
0.45741658407664354,0.9958333333333333
0.45789560621076975,0.9958333333333333
0.45792864222001983,0.9958333333333333
0.45840766435414604,0.9958333333333333
0.4584407003633961,0.9958333333333333
0.45958044268252396,0.9958333333333333
0.45961347869177405,0.9958333333333333
0.4609514370664024,0.9958333333333333
0.46098447307565243,0.9958333333333333
0.46366038982490915,0.9958333333333333
0.46369342583415923,0.9958333333333333
0.46709613478691775,0.9958333333333333
0.46712917079616784,0.9958333333333333
0.4690782953419227,0.9958333333333333
0.4691113313511728,0.9958333333333333
0.47056491575817644,0.9958333333333333
0.47059795176742647,0.9958333333333333
0.4712751899570532,0.9958333333333333
0.4713082259663033,0.9958333333333333
0.4743145028080608,0.9958333333333333
0.47434753881731084,0.9958333333333333
0.47745292368681863,0.9958333333333333
0.4774859596960687,0.9958333333333333
0.47801453584407005,0.9958333333333333
0.47804757185332014,0.9958333333333333
0.4781301618764453,0.9958333333333333
0.4781631978856954,0.9958333333333333
0.48016187644532543,0.9958333333333333
0.48019491245457546,0.9958333333333333
0.48149983481995373,0.9958333333333333
0.4815328708292038,0.9958333333333333
0.481598942847704,0.9958333333333333
0.4816319788569541,0.9958333333333333
0.4826891311529567,0.9958333333333333
0.4826891311529567,0.9965277777777778
0.48338288734720847,0.9965277777777778
0.48341592335645855,0.9965277777777778
0.48410967955071027,0.9965277777777778
0.48414271555996036,0.9965277777777778
0.48541460191608854,0.9965277777777778
0.4854476379253386,0.9965277777777778
0.4859596960687149,0.9965277777777778
0.485992732077965,0.9965277777777778
0.48681863230921707,0.9965277777777778
0.48685166831846716,0.9965277777777778
0.48742979848034357,0.9965277777777778
0.48746283448959365,0.9965277777777778
0.49382226627023457,0.9965277777777778
0.49385530227948465,0.9965277777777778
0.4948959365708622,0.9965277777777778
0.4949289725801123,0.9965277777777778
0.4970102411628675,0.9965277777777778
0.4970432771721176,0.9965277777777778
0.49786917740336967,0.9965277777777778
0.49790221341261975,0.9965277777777778
0.498794185662372,0.9965277777777778
0.4988272216716221,0.9965277777777778
0.5001156260323752,0.9965277777777778
0.5001486620416253,0.9965277777777778
0.501618764453254,0.9965277777777778
0.5016518004625041,0.9965277777777778
0.5018995705318797,0.9965277777777778
0.5019326065411298,0.9965277777777778
0.5037826230591345,0.9965277777777778
0.5038156590683845,0.9965277777777778
0.5045589692765114,0.9965277777777778
0.5045920052857614,0.9965277777777778
0.5063429137760158,0.9965277777777778
0.5063759497852659,0.9965277777777778
0.5076973901552693,0.9965277777777778
0.5077304261645194,0.9965277777777778
0.5081929302940205,0.9965277777777778
0.5082259663032705,0.9965277777777778
0.5083581103402709,0.9965277777777778
0.508391146349521,0.9965277777777778
0.5088536504790221,0.9965277777777778
0.5088866864882722,0.9965277777777778
0.5094152626362736,0.9965277777777778
0.5094482986455237,0.9965277777777778
0.5098612487611497,0.9965277777777778
0.5098942847703998,0.9965277777777778
0.5100925008259002,0.9965277777777778
0.5101255368351503,0.9965277777777778
0.5116451932606542,0.9965277777777778
0.5116782292699043,0.9965277777777778
0.5124876114965312,0.9965277777777778
0.5125206475057813,0.9965277777777778
0.5128510075982822,0.9965277777777778
0.5128840436075323,0.9965277777777778
0.5131318136769079,0.9965277777777778
0.5131648496861579,0.9965277777777778
0.5134291377601585,0.9965277777777778
0.5134621737694086,0.9965277777777778
0.5138420878757846,0.9965277777777778
0.5138751238850346,0.9965277777777778
0.5151635282457879,0.9965277777777778
0.515196564255038,0.9965277777777778
0.5153617443012884,0.9965277777777778
0.5153947803105385,0.9965277777777778
0.5177403369672944,0.9965277777777778
0.5177733729765445,0.9965277777777778
0.5178064089857946,0.9965277777777778
0.5178394449950446,0.9965277777777778
0.51798810703667,0.9965277777777778
0.5180211430459201,0.9965277777777778
0.5188800792864222,0.9965277777777778
0.5189131152956723,0.9965277777777778
0.5196894615130492,0.9965277777777778
0.5197224975222993,0.9965277777777778
0.5222827882391807,0.9965277777777778
0.5223158242484308,0.9965277777777778
0.523587710604559,0.9965277777777778
0.5236207466138091,0.9965277777777778
0.5241328047571854,0.9965277777777778
0.5241658407664355,0.9965277777777778
0.5282623059134457,0.9965277777777778
0.5282953419226958,0.9965277777777778
0.5291212421539478,0.9965277777777778
0.5291542781631979,0.9965277777777778
0.5302279484638256,0.9965277777777778
0.5302609844730757,0.9965277777777778
0.5337297654443344,0.9965277777777778
0.5337628014535845,0.9965277777777778
0.5352163858605881,0.9965277777777778
0.5352494218698381,0.9965277777777778
0.5358605880409647,0.9965277777777778
0.5358936240502147,0.9965277777777778
0.5359431780640899,0.9965277777777778
0.53597621407334,0.9965277777777778
0.5412454575487281,0.9965277777777778
0.5412784935579782,0.9965277777777778
0.5417740336967294,0.9965277777777778
0.5418070697059795,0.9965277777777778
0.5446646845061116,0.9965277777777778
0.5446977205153617,0.9965277777777778
0.5450611166171127,0.9965277777777778
0.5450941526263627,0.9965277777777778
0.5462834489593658,0.9965277777777778
0.5463164849686158,0.9965277777777778
0.5465972910472415,0.9965277777777778
0.5466303270564916,0.9965277777777778
0.5494714238519987,0.9965277777777778
0.5495044598612487,0.9965277777777778
0.5528410967955071,0.9965277777777778
0.5528741328047572,0.9965277777777778
0.553584407003634,0.9965277777777778
0.5536174430128841,0.9965277777777778
0.5552527254707631,0.9965277777777778
0.5552527254707631,0.9972222222222222
0.5588040964651471,0.9972222222222222
0.5588371324743971,0.9972222222222222
0.5595474066732739,0.9972222222222222
0.5595804426825239,0.9972222222222222
0.5597291047241493,0.9972222222222222
0.5597621407333994,0.9972222222222222
0.5602741988767757,0.9972222222222222
0.5603072348860257,0.9972222222222222
0.561182689131153,0.9972222222222222
0.5612157251404031,0.9972222222222222
0.5623719854641559,0.9972222222222222
0.562405021473406,0.9972222222222222
0.5624215394780311,0.9972222222222222
0.5624545754872812,0.9972222222222222
0.562817971589032,0.9972222222222222
0.5628510075982821,0.9972222222222222
0.5633465477370334,0.9972222222222222
0.5633795837462835,0.9972222222222222
0.5650479022134126,0.9972222222222222
0.5650479022134126,0.9979166666666667
0.568797489263297,0.9979166666666667
0.5688305252725471,0.9979166666666667
0.5698711595639246,0.9979166666666667
0.5699041955731747,0.9979166666666667
0.5702345556656756,0.9979166666666667
0.5702675916749257,0.9979166666666667
0.5714403700033036,0.9979166666666667
0.5714734060125537,0.9979166666666667
0.5716551040634291,0.9979166666666667
0.5716881400726792,0.9979166666666667
0.5726131483316815,0.9979166666666667
0.5726461843409316,0.9979166666666667
0.5735546745953088,0.9979166666666667
0.5735877106045589,0.9979166666666667
0.5743475388173108,0.9979166666666667
0.5743805748265609,0.9979166666666667
0.5757515692104394,0.9979166666666667
0.5757515692104394,0.9986111111111111
0.5773372976544433,0.9986111111111111
0.5773703336636934,0.9986111111111111
0.5778328377931946,0.9986111111111111
0.5778658738024447,0.9986111111111111
0.5780640898579451,0.9986111111111111
0.5780971258671952,0.9986111111111111
0.5786091840105715,0.9986111111111111
0.5786091840105715,0.9993055555555556
0.5794516022464486,0.9993055555555556
0.5794846382556987,0.9993055555555556
0.5798149983481995,0.9993055555555556
0.5798480343574496,0.9993055555555556
0.5803270564915758,0.9993055555555556
0.5803600925008259,0.9993055555555556
0.5807730426164519,0.9993055555555556
0.580806078625702,0.9993055555555556
0.5822761810373307,0.9993055555555556
0.5823092170465808,0.9993055555555556
0.5828377931945821,0.9993055555555556
0.5828708292038322,0.9993055555555556
0.5842253055830856,0.9993055555555556
0.5842583415923357,0.9993055555555556
0.5847043277172118,0.9993055555555556
0.5847538817310869,0.9993055555555556
0.5853980839114635,0.9993055555555556
0.5854311199207136,0.9993055555555556
0.586405682193591,0.9993055555555556
0.5864387182028411,0.9993055555555556
0.5866864882722167,0.9993055555555556
0.5867195242814668,0.9993055555555556
0.5889164188965973,0.9993055555555556
0.5889494549058474,0.9993055555555556
0.590023125206475,0.9993055555555556
0.5900561612157251,0.9993055555555556
0.5905847373637264,0.9993055555555556
0.5906177733729765,0.9993055555555556
0.5925173439048563,0.9993055555555556
0.5925503799141064,0.9993055555555556
0.5928311859927321,0.9993055555555556
0.5928642220019822,0.9993055555555556
0.5933102081268583,0.9993055555555556
0.5933432441361084,0.9993055555555556
0.5934258341592336,0.9993055555555556
0.5934588701684836,0.9993055555555556
0.5938553022794847,0.9993055555555556
0.5938883382887348,0.9993055555555556
0.5944995044598612,0.9993055555555556
0.5945325404691113,0.9993055555555556
0.5965147010241163,0.9993055555555556
0.5965477370333664,0.9993055555555556
0.5991575817641229,0.9993055555555556
0.599190617773373,0.9993055555555556
0.5997852659398745,0.9993055555555556
0.5998183019491246,0.9993055555555556
0.602775024777007,0.9993055555555556
0.602808060786257,0.9993055555555556
0.6029236868186323,0.9993055555555556
0.6029567228278824,0.9993055555555556
0.6041460191608854,0.9993055555555556
0.6041790551701355,0.9993055555555556
0.6043772712256359,0.9993055555555556
0.604410307234886,0.9993055555555556
0.6047902213412619,0.9993055555555556
0.604823257350512,0.9993055555555556
0.6053848695077635,0.9993055555555556
0.6054179055170136,0.9993055555555556
0.6060786257020152,0.9993055555555556
0.6061116617112653,0.9993055555555556
0.606392467789891,0.9993055555555556
0.6064255037991411,0.9993055555555556
0.6066402378592666,0.9993055555555556
0.6066732738685167,0.9993055555555556
0.6068714899240172,0.9993055555555556
0.6069210439378923,0.9993055555555556
0.6080442682523951,0.9993055555555556
0.6080773042616452,0.9993055555555556
0.6089032044928973,0.9993055555555556
0.6089692765113974,0.9993055555555556
0.6089857945160224,0.9993055555555556
0.6090188305252725,0.9993055555555556
0.6096299966963991,0.9993055555555556
0.6096630327056491,0.9993055555555556
0.6117608192930294,0.9993055555555556
0.6117938553022795,0.9993055555555556
0.6124545754872811,0.9993055555555556
0.6124876114965312,0.9993055555555556
0.6127188635612818,0.9993055555555556
0.6127518995705319,0.9993055555555556
0.613577799801784,0.9993055555555556
0.613610835811034,0.9993055555555556
0.6143045920052858,0.9993055555555556
0.6143376280145358,0.9993055555555556
0.6153782623059134,0.9993055555555556
0.6154112983151635,0.9993055555555556
0.6157086223984143,0.9993055555555556
0.6157416584076644,0.9993055555555556
0.618384539147671,0.9993055555555556
0.6184175751569211,0.9993055555555556
0.6188470432771721,0.9993055555555556
0.6188800792864222,0.9993055555555556
0.6204658077304261,0.9993055555555556
0.6204988437396762,0.9993055555555556
0.6222497522299306,0.9993055555555556
0.6222827882391807,0.9993055555555556
0.6226296663363066,0.9993055555555556
0.6226627023455567,0.9993055555555556
0.625619425173439,0.9993055555555556
0.6256524611826891,0.9993055555555556
0.6257680872150644,0.9993055555555556
0.6258011232243145,0.9993055555555556
0.6277998017839445,0.9993055555555556
0.6278328377931945,0.9993055555555556
0.6278493557978196,0.9993055555555556
0.6278823918070697,0.9993055555555556
0.6289395441030724,0.9993055555555556
0.6289725801123224,0.9993055555555556
0.6290221341261976,0.9993055555555556
0.6290551701354476,0.9993055555555556
0.6324578790882062,0.9993055555555556
0.6324909150974563,0.9993055555555556
0.6334159233564586,0.9993055555555556
0.6334489593657087,0.9993055555555556
0.6358605880409647,0.9993055555555556
0.6358936240502148,0.9993055555555556
0.6377931945820945,0.9993055555555556
0.6378262305913446,0.9993055555555556
0.6385860588040965,0.9993055555555556
0.6386190948133466,0.9993055555555556
0.6392467789890981,0.9993055555555556
0.6392798149983482,0.9993055555555556
0.640799471423852,0.9993055555555556
0.640832507433102,0.9993055555555556
0.6410142054839776,0.9993055555555556
0.6410472414932277,0.9993055555555556
0.6420713577799801,0.9993055555555556
0.6421043937892302,0.9993055555555556
0.6425668979187315,0.9993055555555556
0.6425999339279815,0.9993055555555556
0.6431119920713578,0.9993055555555556
0.6431450280806079,0.9993055555555556
0.6434588701684837,0.9993055555555556
0.6434919061777338,0.9993055555555556
0.6444334324413611,0.9993055555555556
0.6444664684506112,0.9993055555555556
0.6445160224644862,0.9993055555555556
0.6445490584737363,0.9993055555555556
0.6451106706309878,0.9993055555555556
0.6451437066402379,0.9993055555555556
0.6456227287743641,0.9993055555555556
0.6456557647836142,0.9993055555555556
0.6464651470102412,0.9993055555555556
0.6464981830194912,0.9993055555555556
0.6467129170796168,0.9993055555555556
0.6467459530888668,0.9993055555555556
0.6473901552692435,0.9993055555555556
0.6474231912784936,0.9993055555555556
0.6475222993062438,0.9993055555555556
0.6475553353154939,0.9993055555555556
0.6486620416253717,0.9993055555555556
0.6486950776346218,0.9993055555555556
0.6498348199537496,0.9993055555555556
0.6498678559629997,0.9993055555555556
0.6540469111331351,0.9993055555555556
0.6540799471423852,0.9993055555555556
0.6555004955401388,0.9993055555555556
0.6555335315493889,0.9993055555555556
0.656408985794516,0.9993055555555556
0.6564420218037661,0.9993055555555556
0.6569375619425173,0.9993055555555556
0.6569705979517674,0.9993055555555556
0.65799471423852,0.9993055555555556
0.65802775024777,0.9993055555555556
0.6599438387842749,0.9993055555555556
0.659976874793525,0.9993055555555556
0.6602576808721506,0.9993055555555556
0.6602907168814007,0.9993055555555556
0.6603733069045259,0.9993055555555556
0.660406342913776,0.9993055555555556
0.6604889329369013,0.9993055555555556
0.6605219689461513,0.9993055555555556
0.6640568219359101,0.9993055555555556
0.6640898579451602,0.9993055555555556
0.6683845391476709,0.9993055555555556
0.668417575156921,0.9993055555555556
0.6690617773372977,0.9993055555555556
0.6690948133465477,0.9993055555555556
0.6698711595639246,0.9993055555555556
0.6699041955731747,0.9993055555555556
0.6706640237859267,0.9993055555555556
0.6706970597951768,0.9993055555555556
0.6709448298645524,0.9993055555555556
0.6709778658738025,0.9993055555555556
0.6711760819293029,0.9993055555555556
0.671209117938553,0.9993055555555556
0.6725305583085563,0.9993055555555556
0.6725635943178064,0.9993055555555556
0.6728939544103072,0.9993055555555556
0.6729269904195573,0.9993055555555556
0.6761645193260654,0.9993055555555556
0.6761975553353154,0.9993055555555556
0.6765444334324413,0.9993055555555556
0.6765774694416914,0.9993055555555556
0.6767591674925669,0.9993055555555556
0.676792203501817,0.9993055555555556
0.6770069375619425,0.9993055555555556
0.6770399735711926,0.9993055555555556
0.6829369012223323,0.9993055555555556
0.6829699372315824,0.9993055555555556
0.6832507433102081,0.9993055555555556
0.6832837793194582,0.9993055555555556
0.6834324413610836,0.9993055555555556
0.6834654773703337,0.9993055555555556
0.683614139411959,0.9993055555555556
0.6836471754212091,0.9993055555555556
0.685183349851338,0.9993055555555556
0.6852163858605881,0.9993055555555556
0.6868516683184671,0.9993055555555556
0.6868516683184671,1.0
0.6873967624710935,1.0
0.6874297984803436,1.0
0.688817310868847,1.0
0.6888503468780971,1.0
0.6943343244136109,1.0
0.694367360422861,1.0
0.6957218368021143,1.0
0.6957548728113644,1.0
0.6958704988437396,1.0
0.6959035348529897,1.0
0.6966468450611166,1.0
0.6966798810703667,1.0
0.6998017839444995,1.0
0.6998348199537496,1.0
0.700396432111001,1.0
0.7004294681202511,1.0
0.7038321770730096,1.0
0.7038652130822597,1.0
0.70396432111001,1.0
0.70399735711926,1.0
0.7048232573505121,1.0
0.7048562933597622,1.0
0.7054674595308886,1.0
0.7055004955401387,1.0
0.7074165840766435,1.0
0.7074496200858936,1.0
0.7099108027750248,1.0
0.7099438387842748,1.0
0.7124710934919062,1.0
0.7125041295011563,1.0
0.7141063759497853,1.0
0.7141394119590353,1.0
0.7143211100099108,1.0
0.7143541460191609,1.0
0.71802114304592,1.0
0.7180541790551701,1.0
0.7182523951106706,1.0
0.7182854311199207,1.0
0.7200858936240502,1.0
0.7201189296333003,1.0
0.7202180376610505,1.0
0.7202510736703006,1.0
0.7208787578460522,1.0
0.7209117938553022,1.0
0.7214403700033036,1.0
0.7214734060125537,1.0
0.7225801123224315,1.0
0.7226131483316816,1.0
0.7256359431780641,1.0
0.7256689791873142,1.0
0.7261480013214404,1.0
0.7261810373306905,1.0
0.7275189957053187,1.0
0.7275520317145688,1.0
0.7276841757515692,1.0
0.7277172117608193,1.0
0.7294681202510737,1.0
0.7295011562603237,1.0
0.7313346547737033,1.0
0.7313676907829534,1.0
0.7321275189957053,1.0
0.7321605550049554,1.0
0.7350842418235877,1.0
0.7351172778328378,1.0
0.7385365047902214,1.0
0.7385695407994715,1.0
0.7398249091509745,1.0
0.7398579451602246,1.0
0.7400726792203501,1.0
0.7401057152296002,1.0
0.7417905517013544,1.0
0.7418235877106045,1.0
0.743607532210109,1.0
0.7436405682193591,1.0
0.744813346547737,1.0
0.7448463825569871,1.0
0.7459696068714899,1.0
0.74600264288074,1.0
0.7461347869177404,1.0
0.7461678229269905,1.0
0.7469276511397424,1.0
0.7469606871489924,1.0
0.7482325735051206,1.0
0.7482656095143707,1.0
0.7482986455236208,1.0
0.7483316815328708,1.0
0.751602246448629,1.0
0.7516352824578791,1.0
0.7517839444995045,1.0
0.7518169805087546,1.0
0.7523785926660059,1.0
0.752411628675256,1.0
0.753600925008259,1.0
0.7536339610175091,1.0
0.7544268252395111,1.0
0.7544598612487612,1.0
0.7546085232903865,1.0
0.7546415592996366,1.0
0.7550710274198876,1.0
0.7551040634291377,1.0
0.7555665675586389,1.0
0.755599603567889,1.0
0.759200528576148,1.0
0.759233564585398,1.0
0.7599273207796499,1.0
0.7599603567889,1.0
0.7668483647175421,1.0
0.7668814007267922,1.0
0.7672282788239181,1.0
0.7672613148331682,1.0
0.7672943508424183,1.0
0.7673273868516683,1.0
0.7698876775685497,1.0
0.7699207135777998,1.0
0.7724810042946813,1.0
0.7725140403039313,1.0
0.7751404030393129,1.0
0.775173439048563,1.0
0.7758341592335646,1.0
0.7758671952428147,1.0
0.7759663032705649,1.0
0.775999339279815,1.0
0.7804922365378262,1.0
0.7805252725470763,1.0
0.7814007267922035,1.0
0.7814337628014536,1.0
0.7817806408985795,1.0
0.7818136769078295,1.0
0.781995374958705,1.0
0.7820284109679551,1.0
0.7833002973240832,1.0
0.7833333333333333,1.0
0.7833663693425834,1.0
0.7833994053518335,1.0
0.7836471754212091,1.0
0.7836802114304592,1.0
0.7841261975553353,1.0
0.7841592335645854,1.0
0.7842418235877106,1.0
0.7842748595969606,1.0
0.7846052196894615,1.0
0.7846382556987116,1.0
0.7877766765774694,1.0
0.7878097125867195,1.0
0.7882887347208457,1.0
0.7883217707300958,1.0
0.7906673273868516,1.0
0.7907003633961017,1.0
0.7940535183349852,1.0
0.7940865543442353,1.0
0.7969937231582425,1.0
0.7970267591674925,1.0
0.797621407333994,1.0
0.7976544433432441,1.0
0.8009250082590023,1.0
0.8009580442682523,1.0
0.8031384208787579,1.0
0.803171456888008,1.0
0.8072844400396432,1.0
0.8073174760488933,1.0
0.8095474066732739,1.0
0.8095804426825239,1.0
0.8104889329369013,1.0
0.8105219689461513,1.0
0.8131318136769078,1.0
0.8131648496861579,1.0
0.813610835811034,1.0
0.8136438718202841,1.0
0.815592996366039,1.0
0.8156260323752891,1.0
0.817575156921044,1.0
0.8176081929302941,1.0
0.8180706970597952,1.0
0.8181037330690453,1.0
0.8183515031384209,1.0
0.818384539147671,1.0
0.8185827552031715,1.0
0.8186157912124216,1.0
0.8189131152956722,1.0
0.8189461513049223,1.0
0.8219193921374298,1.0
0.8219524281466799,1.0
0.8230095804426826,1.0
0.8230426164519326,1.0
0.8244962008589363,1.0
0.8245292368681864,1.0
0.8250247770069375,1.0
0.8250578130161876,1.0
0.82598282127519,1.0
0.82601585728444,1.0
0.8267261314833169,1.0
0.826759167492567,1.0
0.8271060455896928,1.0
0.8271555996035679,1.0
0.8358275520317145,1.0
0.8358605880409646,1.0
0.8406673273868517,1.0
0.8407003633961018,1.0
0.8410142054839775,1.0
0.8410472414932276,1.0
0.8418401057152296,1.0
0.8418731417244797,1.0
0.8433267261314833,1.0
0.8433597621407334,1.0
0.8446646845061117,1.0
0.8446977205153617,1.0
0.8449289725801123,1.0
0.8449620085893624,1.0
0.8453254046911133,1.0
0.8453584407003634,1.0
0.8457383548067393,1.0
0.8457713908159894,1.0
0.8502808060786257,1.0
0.8503138420878757,1.0
0.8522794846382556,1.0
0.8523125206475057,1.0
0.8534192269573836,1.0
0.8534522629666337,1.0
0.8546085232903865,1.0
0.8546415592996366,1.0
0.8549884373967624,1.0
0.8550214734060125,1.0
0.8550875454245127,1.0
0.8551205814337628,1.0
0.8565080938222662,1.0
0.8565411298315163,1.0
0.857168814007268,1.0
0.857201850016518,1.0
0.8596630327056491,1.0
0.8596960687148992,1.0
0.8598942847703998,1.0
0.8599273207796498,1.0
0.85999339279815,1.0
0.8600264288074001,1.0
0.8611000991080278,1.0
0.8611331351172778,1.0
0.8619094813346547,1.0
0.8619425173439048,1.0
0.8642715559960357,1.0
0.8643045920052858,1.0
0.8674925668979188,1.0
0.8675256029071688,1.0
0.8687314172447969,1.0
0.8687644532540469,1.0
0.8688800792864222,1.0
0.8689131152956723,1.0
0.8689296333002974,1.0
0.8689626693095474,1.0
0.8691608853650479,1.0
0.869193921374298,1.0
0.8718368021143046,1.0
0.8718698381235547,1.0
0.8770895275850678,1.0
0.8771225635943178,1.0
0.8782623059134457,1.0
0.8782953419226958,1.0
0.8831185992732078,1.0
0.8831516352824579,1.0
0.8877271225635943,1.0
0.8877601585728444,1.0
0.8921374297984803,1.0
0.8921704658077304,1.0
0.8928642220019821,1.0
0.8928972580112322,1.0
0.8949289725801123,1.0
0.8949620085893624,1.0
0.896019160885365,1.0
0.8960521968946151,1.0
0.8978196233894945,1.0
0.8978526593987446,1.0
0.9063429137760158,1.0
0.9063759497852659,1.0
0.9076313181367691,1.0
0.9076643541460192,1.0
0.9089527585067724,1.0
0.9089857945160225,1.0
0.9094978526593988,1.0
0.9095308886686488,1.0
0.9098282127518996,1.0
0.9098612487611496,1.0
0.9115295672282788,1.0
0.9115626032375289,1.0
0.9142054839775355,1.0
0.9142385199867856,1.0
0.915196564255038,1.0
0.9152296002642881,1.0
0.9153287082920383,1.0
0.9153617443012884,1.0
0.9159398744631648,1.0
0.9159729104724149,1.0
0.9162537165510406,1.0
0.9162867525602907,1.0
0.9165180046250413,1.0
0.9165510406342914,1.0
0.9168318467129171,1.0
0.9168648827221672,1.0
0.9177898909811695,1.0
0.9178229269904196,1.0
0.9187314172447968,1.0
0.9187644532540469,1.0
0.920003303600925,1.0
0.9200363396101751,1.0
0.9202675916749257,1.0
0.9203006276841758,1.0
0.9246448629005616,1.0
0.9246778989098117,1.0
0.9255533531549389,1.0
0.925586389164189,1.0
0.9265774694416914,1.0
0.9266105054509415,1.0
0.9271225635943178,1.0
0.9271555996035679,1.0
0.9303105384869508,1.0
0.9303435744962009,1.0
0.9306243805748265,1.0
0.9306574165840766,1.0
0.9332507433102081,1.0
0.9332837793194582,1.0
0.9342253055830856,1.0
0.9342583415923357,1.0
0.9353980839114635,1.0
0.9354311199207136,1.0
0.9384704327717212,1.0
0.9385034687809712,1.0
0.942418235877106,1.0
0.9424512718863561,1.0
0.9450445986124876,1.0
0.9450776346217377,1.0
0.9456392467789891,1.0
0.9456722827882392,1.0
0.9468120251073671,1.0
0.9468450611166171,1.0
0.9506772381896267,1.0
0.9507102741988768,1.0
0.9521143045920053,1.0
0.9521473406012554,1.0
0.9531549388833829,1.0
0.953187974892633,1.0
0.9577139081598943,1.0
0.9577469441691444,1.0
0.958804096465147,1.0
0.9588371324743971,1.0
0.9600264288074001,1.0
0.9600594648166502,1.0
0.9617608192930294,1.0
0.9617938553022795,1.0
0.9647505781301619,1.0
0.9647836141394119,1.0
0.9654608523290387,1.0
0.9654938883382888,1.0
0.9658077304261645,1.0
0.9658407664354146,1.0
0.9662867525602907,1.0
0.9663197885695408,1.0
0.9685662371985464,1.0
0.9685992732077965,1.0
0.9686818632309218,1.0
0.9687148992401717,1.0
0.9715394780310539,1.0
0.971572514040304,1.0
0.9726957383548067,1.0
0.9727287743640568,1.0
0.9728444003964322,1.0
0.9728774364056821,1.0
0.9736703006276842,1.0
0.9737033366369343,1.0
0.9760488932936902,1.0
0.9760819293029402,1.0
0.978394449950446,1.0
0.9784274859596961,1.0
0.9792699041955731,1.0
0.9793029402048232,1.0
0.9821440370003304,1.0
0.9821770730095805,1.0
0.983597621407334,1.0
0.9836306574165841,1.0
0.9861744301288404,1.0
0.9862074661380905,1.0
0.9869838123554675,1.0
0.9870168483647176,1.0
0.9894945490584738,1.0
0.9895275850677239,1.0
0.9913280475718533,1.0
0.9913610835811034,1.0
0.99600264288074,1.0
0.9960356788899901,1.0
1.0,1.0
