fpr,tpr
0.0,0.0
1.6191159303197268e-06,0.0
1.6191159303197268e-06,5.334898236816133e-05
3.2382318606394537e-06,5.334898236816133e-05
3.2382318606394537e-06,0.00010669796473632266
4.85734779095918e-06,0.00010669796473632266
4.85734779095918e-06,0.00016004694710448398
6.476463721278907e-06,0.00016004694710448398
6.476463721278907e-06,0.00026674491184080666
8.095579651598635e-06,0.00026674491184080666
8.095579651598635e-06,0.00032009389420896797
9.71469558191836e-06,0.00032009389420896797
9.71469558191836e-06,0.00045346635012937127
1.2952927442557815e-05,0.00045346635012937127
1.2952927442557815e-05,0.0005068153324975326
1.4572043372877542e-05,0.0005068153324975326
1.4572043372877542e-05,0.0009069327002587425
1.619115930319727e-05,0.0009069327002587425
1.619115930319727e-05,0.0009869561738109845
1.7810275233516995e-05,0.0009869561738109845
1.7810275233516995e-05,0.0011203286297313878
2.4286738954795904e-05,0.0011203286297313878
2.4286738954795904e-05,0.0012803755768358719
2.590585488511563e-05,0.0012803755768358719
2.590585488511563e-05,0.0013603990503881138
2.7524970815435355e-05,0.0013603990503881138
2.7524970815435355e-05,0.0015737949798607593
2.9144086745755084e-05,0.0015737949798607593
2.9144086745755084e-05,0.0017338419269652431
3.076320267607481e-05,0.0017338419269652431
3.076320267607481e-05,0.0019472378564378884
3.4001434536714264e-05,0.0019472378564378884
3.4001434536714264e-05,0.0020005868388060497
3.562055046703399e-05,0.0020005868388060497
3.562055046703399e-05,0.002213982768278695
3.885878232767344e-05,0.002213982768278695
3.885878232767344e-05,0.002294006241830937
4.047789825799317e-05,0.002294006241830937
4.047789825799317e-05,0.002320680733015018
4.20970141883129e-05,0.002320680733015018
4.20970141883129e-05,0.0023473552241990983
4.3716130118632624e-05,0.0023473552241990983
4.3716130118632624e-05,0.00240070420656726
4.6954361979272075e-05,0.00240070420656726
4.6954361979272075e-05,0.00242737869775134
4.857347790959181e-05,0.00242737869775134
4.857347790959181e-05,0.002614100136039905
5.019259383991153e-05,0.002614100136039905
5.019259383991153e-05,0.0026407746272239857
5.181170977023126e-05,0.0026407746272239857
5.181170977023126e-05,0.003014217503801115
5.504994163087071e-05,0.003014217503801115
5.504994163087071e-05,0.0031475899597215185
5.6669057561190436e-05,0.0031475899597215185
5.6669057561190436e-05,0.0032809624156419216
5.828817349151017e-05,0.0032809624156419216
5.828817349151017e-05,0.0033076369068260024
5.9907289421829894e-05,0.0033076369068260024
5.9907289421829894e-05,0.003654405292219051
6.152640535214963e-05,0.003654405292219051
6.152640535214963e-05,0.0037611032569553737
6.476463721278908e-05,0.0037611032569553737
6.476463721278908e-05,0.0038678012216916964
6.63837531431088e-05,0.0038678012216916964
6.63837531431088e-05,0.003947824695243938
6.962198500374825e-05,0.003947824695243938
6.962198500374825e-05,0.004214569607084745
7.124110093406798e-05,0.004214569607084745
7.124110093406798e-05,0.004321267571821067
7.286021686438771e-05,0.004321267571821067
7.286021686438771e-05,0.004481314518925551
7.447933279470743e-05,0.004481314518925551
7.447933279470743e-05,0.004561337992477794
7.609844872502716e-05,0.004561337992477794
7.609844872502716e-05,0.004588012483661874
7.771756465534688e-05,0.004588012483661874
7.771756465534688e-05,0.004668035957214116
8.095579651598635e-05,0.004668035957214116
8.095579651598635e-05,0.004961455360239004
8.41940283766258e-05,0.004961455360239004
8.41940283766258e-05,0.005068153324975326
8.581314430694552e-05,0.005068153324975326
8.581314430694552e-05,0.005334898236816133
9.06704920979047e-05,0.005334898236816133
9.06704920979047e-05,0.0054682706927365364
9.228960802822443e-05,0.0054682706927365364
9.228960802822443e-05,0.005735015604577343
9.552783988886388e-05,0.005735015604577343
9.552783988886388e-05,0.005868388060497746
9.714695581918362e-05,0.005868388060497746
9.714695581918362e-05,0.005921737042865908
9.876607174950333e-05,0.005921737042865908
9.876607174950333e-05,0.005948411534049988
0.00010038518767982307,0.005948411534049988
0.00010038518767982307,0.005975086025234068
0.00010200430361014279,0.005975086025234068
0.00010200430361014279,0.00602843500760223
0.00010362341954046252,0.00602843500760223
0.00010362341954046252,0.006081783989970392
0.00010686165140110197,0.006081783989970392
0.00010686165140110197,0.006321854410627117
0.0001084807673314217,0.006321854410627117
0.0001084807673314217,0.006375203392995279
0.00011009988326174142,0.006375203392995279
0.00011009988326174142,0.0065885993224679236
0.00011333811512238087,0.0065885993224679236
0.00011333811512238087,0.006615273813652005
0.00011657634698302034,0.006615273813652005
0.00011657634698302034,0.006855344234308731
0.00011981457884365979,0.006855344234308731
0.00011981457884365979,0.006908693216676892
0.00012467192663461897,0.006908693216676892
0.00012467192663461897,0.006962042199045053
0.0001262910425649387,0.006962042199045053
0.0001262910425649387,0.0070153911814132145
0.00012952927442557815,0.0070153911814132145
0.00012952927442557815,0.007042065672597295
0.00013114839035589787,0.007042065672597295
0.00013114839035589787,0.007122089146149537
0.0001327675062862176,0.007122089146149537
0.0001327675062862176,0.007175438128517698
0.00013438662221653734,0.007175438128517698
0.00013438662221653734,0.00725546160206994
0.00013762485407717678,0.00725546160206994
0.00013762485407717678,0.007442183040358505
0.0001392439700074965,0.007442183040358505
0.0001392439700074965,0.007495532022726666
0.00014086308593781624,0.007495532022726666
0.00014086308593781624,0.007602229987462989
0.00014248220186813596,0.007602229987462989
0.00014248220186813596,0.007655578969831151
0.00014410131779845568,0.007655578969831151
0.00014410131779845568,0.007682253461015231
0.00014572043372877542,0.007682253461015231
0.00014572043372877542,0.008002347355224199
0.00014733954965909514,0.008002347355224199
0.00014733954965909514,0.00802902184640828
0.00014895866558941486,0.00802902184640828
0.00014895866558941486,0.008215743284696845
0.0001505777815197346,0.008215743284696845
0.0001505777815197346,0.008269092267065006
0.00015219689745005433,0.008269092267065006
0.00015219689745005433,0.008322441249433167
0.0001570542452410135,0.008322441249433167
0.0001570542452410135,0.00840246472298541
0.00015867336117133323,0.00840246472298541
0.00015867336117133323,0.008509162687721731
0.0001619115930319727,0.008509162687721731
0.0001619115930319727,0.008535837178905813
0.0001635307089622924,0.008535837178905813
0.0001635307089622924,0.008722558617194377
0.00016676894082293188,0.008722558617194377
0.00016676894082293188,0.008775907599562538
0.00017162628861389103,0.008775907599562538
0.00017162628861389103,0.008802582090746618
0.00017648363640485022,0.008802582090746618
0.00017648363640485022,0.0088292565819307
0.00017810275233516996,0.0088292565819307
0.00017810275233516996,0.008962629037851102
0.0001813409841958094,0.008962629037851102
0.0001813409841958094,0.008989303529035184
0.00018296010012612912,0.008989303529035184
0.00018296010012612912,0.009149350476139668
0.00018457921605644886,0.009149350476139668
0.00018457921605644886,0.009176024967323749
0.00018619833198676858,0.009176024967323749
0.00018619833198676858,0.009202699458507829
0.0001878174479170883,0.009202699458507829
0.0001878174479170883,0.00922937394969191
0.00019105567977772777,0.00922937394969191
0.00019105567977772777,0.00925604844087599
0.00019267479570804749,0.00925604844087599
0.00019267479570804749,0.009336071914428232
0.00019429391163836723,0.009336071914428232
0.00019429391163836723,0.009522793352716797
0.00019591302756868695,0.009522793352716797
0.00019591302756868695,0.009576142335084959
0.00019753214349900667,0.009576142335084959
0.00019753214349900667,0.009789538264557604
0.0001991512594293264,0.009789538264557604
0.0001991512594293264,0.009896236229293927
0.00020077037535964613,0.009896236229293927
0.00020077037535964613,0.010002934194030248
0.00020238949128996585,0.010002934194030248
0.00020238949128996585,0.01002960868521433
0.00020724683908092504,0.01002960868521433
0.00020724683908092504,0.010162981141134732
0.00020886595501124475,0.010162981141134732
0.00020886595501124475,0.010189655632318814
0.0002104850709415645,0.010189655632318814
0.0002104850709415645,0.010216330123502895
0.00021210418687188422,0.010216330123502895
0.00021210418687188422,0.010376377070607378
0.00021534241873252366,0.010376377070607378
0.00021534241873252366,0.01045640054415962
0.0002169615346628434,0.01045640054415962
0.0002169615346628434,0.010776494438368587
0.00021858065059316312,0.010776494438368587
0.00021858065059316312,0.01080316892955267
0.00022019976652348284,0.01080316892955267
0.00022019976652348284,0.01085651791192083
0.0002234379983841223,0.01085651791192083
0.0002234379983841223,0.01088319240310491
0.00022667623024476174,0.01088319240310491
0.00022667623024476174,0.011043239350209394
0.0002299144621054012,0.011043239350209394
0.0002299144621054012,0.011096588332577557
0.00023315269396604067,0.011096588332577557
0.00023315269396604067,0.011123262823761637
0.0002363909258266801,0.011123262823761637
0.0002363909258266801,0.01125663527968204
0.00023801004175699986,0.01125663527968204
0.00023801004175699986,0.011363333244418362
0.0002412482736176393,0.011363333244418362
0.0002412482736176393,0.011550054682706928
0.000242867389547959,0.011550054682706928
0.000242867389547959,0.011603403665075089
0.0002461056214085985,0.011603403665075089
0.0002461056214085985,0.011630078156259169
0.00024934385326923794,0.011630078156259169
0.00024934385326923794,0.011790125103363653
0.00025096296919955766,0.011790125103363653
0.00025096296919955766,0.011976846541652217
0.0002542012010601971,0.011976846541652217
0.0002542012010601971,0.0120035210328363
0.0002558203169905168,0.0120035210328363
0.0002558203169905168,0.01205687001520446
0.0002574394329208366,0.01205687001520446
0.0002574394329208366,0.01208354450638854
0.0002590585488511563,0.01208354450638854
0.0002590585488511563,0.01211021899757262
0.000260677664781476,0.01211021899757262
0.000260677664781476,0.012190242471124864
0.00026229678071179575,0.012190242471124864
0.00026229678071179575,0.012216916962308944
0.00026391589664211546,0.012216916962308944
0.00026391589664211546,0.012270265944677105
0.0002655350125724352,0.012270265944677105
0.0002655350125724352,0.012323614927045267
0.0002671541285027549,0.012323614927045267
0.0002671541285027549,0.012350289418229347
0.0002687732444330747,0.012350289418229347
0.0002687732444330747,0.012403638400597508
0.0002703923603633944,0.012403638400597508
0.0002703923603633944,0.012483661874149751
0.0002720114762937141,0.012483661874149751
0.0002720114762937141,0.012563685347701992
0.00027524970815435355,0.012563685347701992
0.00027524970815435355,0.012670383312438315
0.00027686882408467327,0.012670383312438315
0.00027686882408467327,0.012723732294806476
0.000278487940014993,0.012723732294806476
0.000278487940014993,0.012750406785990558
0.0002817261718756325,0.012750406785990558
0.0002817261718756325,0.012777081277174638
0.0002849644037362719,0.012777081277174638
0.0002849644037362719,0.012803755768358719
0.00028820263559691135,0.012803755768358719
0.00028820263559691135,0.012830430259542799
0.00028982175152723113,0.012830430259542799
0.00028982175152723113,0.01285710475072688
0.00029144086745755085,0.01285710475072688
0.00029144086745755085,0.01288377924191096
0.00029305998338787057,0.01288377924191096
0.00029305998338787057,0.012910453733095042
0.0002946790993181903,0.012910453733095042
0.0002979173311788297,0.012910453733095042
0.0002979173311788297,0.012963802715463203
0.0003011555630394692,0.012963802715463203
0.0003011555630394692,0.013177198644935847
0.00030439379490010865,0.013177198644935847
0.00030439379490010865,0.01323054762730401
0.0003076320267607481,0.01323054762730401
0.0003076320267607481,0.013390594574408493
0.0003092511426910678,0.013390594574408493
0.0003092511426910678,0.013417269065592574
0.0003108702586213875,0.013417269065592574
0.0003108702586213875,0.013577316012697058
0.0003124893745517073,0.013577316012697058
0.0003124893745517073,0.01368401397743338
0.000314108490482027,0.01368401397743338
0.000314108490482027,0.013710688468617461
0.00031572760641234674,0.013710688468617461
0.00031572760641234674,0.013790711942169702
0.00031734672234266646,0.013790711942169702
0.00031734672234266646,0.014030782362826429
0.0003205849542033059,0.014030782362826429
0.0003205849542033059,0.01408413134519459
0.0003222040701336256,0.01408413134519459
0.0003222040701336256,0.014137480327562752
0.0003238231860639454,0.014137480327562752
0.0003238231860639454,0.014164154818746832
0.0003254423019942651,0.014164154818746832
0.0003254423019942651,0.014297527274667236
0.0003270614179245848,0.014297527274667236
0.0003270614179245848,0.014324201765851316
0.00032868053385490454,0.014324201765851316
0.00032868053385490454,0.014377550748219477
0.00033029964978522426,0.014377550748219477
0.00033029964978522426,0.01445757422177172
0.000331918765715544,0.01445757422177172
0.000331918765715544,0.014617621168876204
0.00033353788164586375,0.014617621168876204
0.00033353788164586375,0.014670970151244364
0.0003367761135065032,0.014670970151244364
0.0003367761135065032,0.014697644642428447
0.0003383952294368229,0.014697644642428447
0.0003383952294368229,0.014831017098348848
0.00034325257722778207,0.014831017098348848
0.00034325257722778207,0.01488436608071701
0.00034487169315810184,0.01488436608071701
0.00034487169315810184,0.014911040571901091
0.00034649080908842156,0.014911040571901091
0.00034649080908842156,0.014937715063085171
0.0003481099250187413,0.014937715063085171
0.0003481099250187413,0.014964389554269252
0.000349729040949061,0.014964389554269252
0.000349729040949061,0.014991064045453332
0.00035782462060065964,0.014991064045453332
0.00035782462060065964,0.015097762010189655
0.0003626819683916188,0.015097762010189655
0.0003626819683916188,0.015231134466110059
0.0003643010843219385,0.015231134466110059
0.0003643010843219385,0.015417855904398623
0.00036915843211289773,0.015417855904398623
0.00036915843211289773,0.015471204886766786
0.00037077754804321745,0.015471204886766786
0.00037077754804321745,0.015577902851503107
0.00037239666397353717,0.015577902851503107
0.00037239666397353717,0.01568460081623943
0.0003756348958341766,0.01568460081623943
0.0003756348958341766,0.01576462428979167
0.0003772540117644964,0.01576462428979167
0.0003772540117644964,0.01579129878097575
0.0003788731276948161,0.01579129878097575
0.0003788731276948161,0.015817973272159832
0.0003804922436251358,0.015817973272159832
0.0003804922436251358,0.015871322254527996
0.00038211135955545553,0.015871322254527996
0.00038211135955545553,0.015978020219264318
0.00038373047548577525,0.015978020219264318
0.00038373047548577525,0.016004694710448398
0.00038534959141609497,0.016004694710448398
0.00038534959141609497,0.016031369201632478
0.0003918260551373739,0.016031369201632478
0.0003918260551373739,0.01605804369281656
0.0003934451710676936,0.01605804369281656
0.0003934451710676936,0.01608471818400064
0.00039506428699801334,0.01608471818400064
0.00039506428699801334,0.016244765131105125
0.00039668340292833306,0.016244765131105125
0.00039668340292833306,0.016378137587025526
0.0003983025188586528,0.016378137587025526
0.0003983025188586528,0.016404812078209607
0.00039992163478897255,0.016404812078209607
0.00039992163478897255,0.01648483555176185
0.000403159866649612,0.01648483555176185
0.000403159866649612,0.01651151004294593
0.0004063980985102514,0.01651151004294593
0.0004063980985102514,0.016671556990050414
0.00040801721444057114,0.016671556990050414
0.00040801721444057114,0.016698231481234494
0.00040963633037089086,0.016698231481234494
0.00040963633037089086,0.01680492944597082
0.00041125544630121063,0.01680492944597082
0.00041125544630121063,0.01685827842833898
0.00041287456223153035,0.01685827842833898
0.00041287456223153035,0.01688495291952306
0.00041449367816185007,0.01688495291952306
0.00041449367816185007,0.01699165088425938
0.0004177319100224895,0.01699165088425938
0.0004177319100224895,0.017018325375443462
0.00041935102595280923,0.017018325375443462
0.00041935102595280923,0.017044999866627546
0.0004225892578134487,0.017044999866627546
0.0004225892578134487,0.017071674357811626
0.00042582748967408816,0.017071674357811626
0.00042582748967408816,0.017098348848995706
0.0004274466056044079,0.017098348848995706
0.0004274466056044079,0.017125023340179787
0.0004323039533953671,0.017125023340179787
0.0004323039533953671,0.017205046813732028
0.0004339230693256868,0.017205046813732028
0.0004339230693256868,0.01725839579610019
0.0004355421852560065,0.01725839579610019
0.0004355421852560065,0.01731174477846835
0.00043878041711664596,0.01731174477846835
0.00043878041711664596,0.017338419269652433
0.00044363776490760517,0.017338419269652433
0.00044363776490760517,0.017445117234388755
0.0004468759967682446,0.017445117234388755
0.0004468759967682446,0.017578489690309156
0.00044849511269856433,0.017578489690309156
0.00044849511269856433,0.017631838672677317
0.00045011422862888405,0.017631838672677317
0.00045011422862888405,0.017738536637413642
0.0004533524604895235,0.017738536637413642
0.0004533524604895235,0.017791885619781803
0.00045497157641984326,0.017791885619781803
0.00045497157641984326,0.017845234602149963
0.0004582098082804827,0.017845234602149963
0.0004582098082804827,0.017871909093334044
0.0004598289242108024,0.017871909093334044
0.0004598289242108024,0.017951932566886288
0.0004646862720017616,0.017951932566886288
0.0004646862720017616,0.01797860705807037
0.00046792450386240106,0.01797860705807037
0.00046792450386240106,0.01805863053162261
0.0004711627357230405,0.01805863053162261
0.0004711627357230405,0.018298700952279336
0.0004760200835139997,0.018298700952279336
0.0004760200835139997,0.018325375443463417
0.00047763919944431943,0.018325375443463417
0.00047763919944431943,0.018352049934647497
0.00047925831537463915,0.018352049934647497
0.00047925831537463915,0.0184854223905679
0.00048087743130495887,0.0184854223905679
0.00048087743130495887,0.018592120355304224
0.0004841156631655983,0.018592120355304224
0.0004841156631655983,0.018618794846488304
0.000485734779095918,0.018618794846488304
0.000485734779095918,0.018725492811224626
0.0004873538950262378,0.018725492811224626
0.0004873538950262378,0.018805516284776867
0.0004889730109565575,0.018805516284776867
0.0004889730109565575,0.018832190775960947
0.000492211242817197,0.018832190775960947
0.000492211242817197,0.01885886526714503
0.0004938303587475167,0.01885886526714503
0.0004938303587475167,0.01888553975832911
0.0004954494746778364,0.01888553975832911
0.0004954494746778364,0.01928565712609032
0.0004970685906081562,0.01928565712609032
0.0004970685906081562,0.01933900610845848
0.0004986877065384759,0.01933900610845848
0.0004986877065384759,0.01941902958201072
0.0005003068224687956,0.01941902958201072
0.0005003068224687956,0.019499053055562966
0.0005019259383991153,0.019499053055562966
0.0005019259383991153,0.019525727546747047
0.000503545054329435,0.019525727546747047
0.000503545054329435,0.01968577449385153
0.0005051641702597548,0.01968577449385153
0.0005051641702597548,0.01973912347621969
0.0005084024021203942,0.01973912347621969
0.0005084024021203942,0.019765797967403773
0.0005100215180507139,0.019765797967403773
0.0005100215180507139,0.02005921737042866
0.0005116406339810336,0.02005921737042866
0.0005116406339810336,0.020219264317533143
0.0005164979817719929,0.020219264317533143
0.0005164979817719929,0.020272613299901304
0.0005181170977023126,0.020272613299901304
0.0005181170977023126,0.020352636773453548
0.0005229744454932718,0.020352636773453548
0.0005229744454932718,0.02040598575582171
0.0005245935614235915,0.02040598575582171
0.0005245935614235915,0.02045933473818987
0.0005278317932842309,0.02045933473818987
0.0005278317932842309,0.02051268372055803
0.0005294509092145506,0.02051268372055803
0.0005294509092145506,0.020646056176478432
0.0005310700251448704,0.020646056176478432
0.0005310700251448704,0.021019499053055564
0.0005326891410751901,0.021019499053055564
0.0005326891410751901,0.021072848035423725
0.0005343082570055098,0.021072848035423725
0.0005343082570055098,0.021099522526607805
0.0005391656047964691,0.021099522526607805
0.0005391656047964691,0.021152871508975966
0.0005407847207267888,0.021152871508975966
0.0005407847207267888,0.021206220491344126
0.0005424038366571085,0.021206220491344126
0.0005424038366571085,0.021366267438448612
0.0005440229525874282,0.021366267438448612
0.0005440229525874282,0.021446290912000853
0.0005472611844480677,0.021446290912000853
0.0005472611844480677,0.021472965403184933
0.0005488803003783874,0.021472965403184933
0.0005488803003783874,0.021552988876737175
0.0005504994163087071,0.021552988876737175
0.0005504994163087071,0.02160633785910534
0.0005537376481693465,0.02160633785910534
0.0005537376481693465,0.02171303582384166
0.000556975880029986,0.02171303582384166
0.000556975880029986,0.02176638480620982
0.0005585949959603058,0.02176638480620982
0.0005585949959603058,0.0217930592973939
0.0005618332278209452,0.0217930592973939
0.0005618332278209452,0.021873082770946146
0.000563452343751265,0.021873082770946146
0.000563452343751265,0.021899757262130226
0.0005666905756119044,0.021899757262130226
0.0005666905756119044,0.021953106244498387
0.0005683096915422241,0.021953106244498387
0.0005683096915422241,0.021979780735682467
0.0005699288074725438,0.021979780735682467
0.0005699288074725438,0.022059804209234708
0.0005715479234028636,0.022059804209234708
0.0005715479234028636,0.02208647870041879
0.0005731670393331833,0.02208647870041879
0.0005731670393331833,0.02211315319160287
0.0005764052711938227,0.02211315319160287
0.0005764052711938227,0.02213982768278695
0.0005796435030544623,0.02213982768278695
0.0005796435030544623,0.022433247085811837
0.000581262618984782,0.022433247085811837
0.000581262618984782,0.022459921576995917
0.0005828817349151017,0.022459921576995917
0.0005828817349151017,0.02248659606818
0.0005845008508454214,0.02248659606818
0.0005845008508454214,0.02251327055936408
0.0005861199667757411,0.02251327055936408
0.0005861199667757411,0.022593294032916322
0.0005942155464273397,0.022593294032916322
0.0005942155464273397,0.022699991997652644
0.0005958346623576594,0.022699991997652644
0.0005958346623576594,0.022753340980020804
0.0005974537782879792,0.022753340980020804
0.0005974537782879792,0.02280668996238897
0.0005990728942182989,0.02280668996238897
0.0005990728942182989,0.02283336445357305
0.0006006920101486186,0.02283336445357305
0.0006006920101486186,0.02288671343594121
0.0006039302420092581,0.02288671343594121
0.0006039302420092581,0.02291338792712529
0.0006071684738698976,0.02291338792712529
0.0006071684738698976,0.02296673690949345
0.0006087875898002173,0.02296673690949345
0.0006087875898002173,0.02299341140067753
0.000610406705730537,0.02299341140067753
0.000610406705730537,0.02302008589186161
0.0006120258216608567,0.02302008589186161
0.0006120258216608567,0.023046760383045692
0.0006136449375911765,0.023046760383045692
0.0006136449375911765,0.023100109365413856
0.0006152640535214962,0.023100109365413856
0.0006152640535214962,0.023153458347782017
0.0006168831694518159,0.023153458347782017
0.0006168831694518159,0.023260156312518338
0.0006201214013124553,0.023260156312518338
0.0006201214013124553,0.0233135052948865
0.0006233596331730949,0.0233135052948865
0.0006233596331730949,0.02334017978607058
0.0006265978650337343,0.02334017978607058
0.0006265978650337343,0.023446877750806904
0.0006298360968943738,0.023446877750806904
0.0006298360968943738,0.023500226733175065
0.0006314552128246935,0.023500226733175065
0.0006314552128246935,0.023766971645015872
0.0006346934446853329,0.023766971645015872
0.0006346934446853329,0.023793646136199952
0.0006379316765459723,0.023793646136199952
0.0006379316765459723,0.023820320627384033
0.0006395507924762921,0.023820320627384033
0.0006395507924762921,0.023873669609752193
0.0006427890243369315,0.023873669609752193
0.0006427890243369315,0.023900344100936274
0.0006444081402672512,0.023900344100936274
0.0006444081402672512,0.023927018592120354
0.000646027256197571,0.023927018592120354
0.000646027256197571,0.023980367574488518
0.0006476463721278908,0.023980367574488518
0.0006476463721278908,0.02406039104804076
0.0006525037199188499,0.02406039104804076
0.0006525037199188499,0.024140414521593
0.0006541228358491696,0.024140414521593
0.0006541228358491696,0.02416708901277708
0.0006557419517794894,0.02416708901277708
0.0006557419517794894,0.024300461468697486
0.0006573610677098091,0.024300461468697486
0.0006573610677098091,0.024327135959881566
0.000663837531431088,0.024327135959881566
0.000663837531431088,0.02448718290698605
0.0006670757632917275,0.02448718290698605
0.0006670757632917275,0.02451385739817013
0.0006703139951523669,0.02451385739817013
0.0006703139951523669,0.02454053188935421
0.0006735522270130064,0.02454053188935421
0.0006735522270130064,0.024620555362906454
0.0006751713429433261,0.024620555362906454
0.0006751713429433261,0.024647229854090534
0.0006832669225949247,0.024647229854090534
0.0006832669225949247,0.024727253327642775
0.0006865051544555641,0.024727253327642775
0.0006865051544555641,0.024833951292379097
0.0006881242703858838,0.024833951292379097
0.0006881242703858838,0.024860625783563177
0.0006897433863162037,0.024860625783563177
0.0006897433863162037,0.02488730027474726
0.0006913625022465234,0.02488730027474726
0.0006913625022465234,0.02494064925711542
0.0007010771978284417,0.02494064925711542
0.0007010771978284417,0.025047347221851743
0.0007043154296890811,0.025047347221851743
0.0007043154296890811,0.025154045186588064
0.0007059345456194009,0.025154045186588064
0.0007059345456194009,0.025180719677772148
0.0007075536615497206,0.025180719677772148
0.0007075536615497206,0.02523406866014031
0.0007124110093406798,0.02523406866014031
0.0007124110093406798,0.02539411560724479
0.000717268357131639,0.02539411560724479
0.000717268357131639,0.02542079009842887
0.0007188874730619587,0.02542079009842887
0.0007188874730619587,0.025607511536717437
0.0007221257049225982,0.025607511536717437
0.0007221257049225982,0.025660860519085598
0.0007237448208529179,0.025660860519085598
0.0007237448208529179,0.02571420950145376
0.0007302212845741968,0.02571420950145376
0.0007302212845741968,0.02576755848382192
0.0007334595164348363,0.02576755848382192
0.0007334595164348363,0.025820907466190084
0.0007366977482954757,0.025820907466190084
0.0007366977482954757,0.025847581957374164
0.0007399359801561152,0.025847581957374164
0.0007399359801561152,0.025927605430926405
0.0007415550960864349,0.025927605430926405
0.0007415550960864349,0.026007628904478646
0.0007447933279470743,0.026007628904478646
0.0007447933279470743,0.02611432686921497
0.000746412443877394,0.02611432686921497
0.000746412443877394,0.026194350342767212
0.0007480315598077138,0.026194350342767212
0.0007480315598077138,0.026247699325135373
0.0007512697916683532,0.026247699325135373
0.0007512697916683532,0.026274373816319453
0.0007593653713199519,0.026274373816319453
0.0007593653713199519,0.026301048307503534
0.0007626036031805913,0.026301048307503534
0.0007626036031805913,0.02643442076342394
0.0007658418350412308,0.02643442076342394
0.0007658418350412308,0.02654111872816026
0.0007674609509715505,0.02654111872816026
0.0007674609509715505,0.0266211422017125
0.0007690800669018702,0.0266211422017125
0.0007690800669018702,0.026674491184080662
0.0007739374146928294,0.026674491184080662
0.0007739374146928294,0.026701165675264746
0.0007755565306231491,0.026701165675264746
0.0007755565306231491,0.026727840166448826
0.0007771756465534689,0.026727840166448826
0.0007771756465534689,0.026754514657632907
0.0007820329943444281,0.026754514657632907
0.0007820329943444281,0.026781189148816987
0.0007868903421353872,0.026781189148816987
0.0007868903421353872,0.026807863640001067
0.0007917476899263464,0.026807863640001067
0.0007917476899263464,0.026834538131185148
0.0007966050377173056,0.026834538131185148
0.0007966050377173056,0.02696791058710555
0.0007982241536476254,0.02696791058710555
0.0007982241536476254,0.027127957534210035
0.0007998432695779451,0.027127957534210035
0.0007998432695779451,0.027154632025394115
0.0008014623855082648,0.027154632025394115
0.0008014623855082648,0.027181306516578196
0.0008047006173689043,0.027181306516578196
0.0008047006173689043,0.027207981007762276
0.000806319733299224,0.027207981007762276
0.000806319733299224,0.027261329990130437
0.0008111770810901831,0.027261329990130437
0.0008111770810901831,0.02728800448131452
0.0008144153129508226,0.02728800448131452
0.0008144153129508226,0.0273146789724986
0.000817653544811462,0.0273146789724986
0.000817653544811462,0.027394702446050842
0.0008225108926024213,0.027394702446050842
0.0008225108926024213,0.027448051428419003
0.0008257491244630607,0.027448051428419003
0.0008257491244630607,0.027474725919603083
0.0008273682403933804,0.027474725919603083
0.0008273682403933804,0.027501400410787163
0.0008289873563237001,0.027501400410787163
0.0008289873563237001,0.02760809837552349
0.0008306064722540199,0.02760809837552349
0.0008306064722540199,0.02766144735789165
0.000835463820044979,0.02766144735789165
0.000835463820044979,0.02771479634025981
0.0008370829359752987,0.02771479634025981
0.0008370829359752987,0.02776814532262797
0.000841940283766258,0.02776814532262797
0.000841940283766258,0.02784816879618021
0.0008451785156268974,0.02784816879618021
0.0008451785156268974,0.027874843287364292
0.0008467976315572172,0.027874843287364292
0.0008467976315572172,0.027901517778548376
0.0008484167474875369,0.027901517778548376
0.0008484167474875369,0.027928192269732456
0.0008516549793481763,0.027928192269732456
0.0008516549793481763,0.027981541252100617
0.0008548932112088158,0.027981541252100617
0.0008548932112088158,0.028008215743284697
0.0008565123271391355,0.028008215743284697
0.0008565123271391355,0.028034890234468778
0.0008597505589997749,0.028034890234468778
0.0008597505589997749,0.028061564725652858
0.0008613696749300946,0.028061564725652858
0.0008613696749300946,0.028088239216836938
0.0008629887908604143,0.028088239216836938
0.0008629887908604143,0.0281415881992051
0.0008694652545816933,0.0281415881992051
0.0008694652545816933,0.028221611672757344
0.0008743226023726525,0.028221611672757344
0.0008743226023726525,0.028248286163941424
0.0008775608342332919,0.028248286163941424
0.0008775608342332919,0.028274960655125504
0.0008807990660939314,0.028274960655125504
0.0008807990660939314,0.028301635146309585
0.0008840372979545708,0.028301635146309585
0.0008840372979545708,0.028461682093414067
0.0008888946457455301,0.028461682093414067
0.0008888946457455301,0.028488356584598147
0.0008969902253971287,0.028488356584598147
0.0008969902253971287,0.02851503107578223
0.0008986093413274484,0.02851503107578223
0.0008986093413274484,0.028595054549334472
0.0009002284572577681,0.028595054549334472
0.0009002284572577681,0.028621729040518552
0.0009018475731880878,0.028621729040518552
0.0009018475731880878,0.028648403531702633
0.000906704920979047,0.028648403531702633
0.000906704920979047,0.028675078022886713
0.0009099431528396865,0.028675078022886713
0.0009099431528396865,0.028701752514070793
0.0009115622687700062,0.028701752514070793
0.0009115622687700062,0.02880845047880712
0.000913181384700326,0.02880845047880712
0.000913181384700326,0.0288351249699912
0.0009148005006306457,0.0288351249699912
0.0009148005006306457,0.02886179946117528
0.0009180387324912851,0.02886179946117528
0.0009180387324912851,0.02894182293472752
0.0009212769643519245,0.02894182293472752
0.0009212769643519245,0.0289684974259116
0.0009228960802822443,0.0289684974259116
0.0009228960802822443,0.02899517191709568
0.000924515196212564,0.02899517191709568
0.000924515196212564,0.02902184640827976
0.000930991659933843,0.02902184640827976
0.000930991659933843,0.029075195390647922
0.0009342298917944824,0.029075195390647922
0.0009342298917944824,0.029101869881832006
0.0009358490077248021,0.029101869881832006
0.0009358490077248021,0.029128544373016086
0.0009407063555157613,0.029128544373016086
0.0009407063555157613,0.029235242337752407
0.0009439445873764007,0.029235242337752407
0.0009439445873764007,0.029261916828936488
0.0009504210510976796,0.029261916828936488
0.0009504210510976796,0.029288591320120568
0.0009536592829583191,0.029288591320120568
0.0009536592829583191,0.02931526581130465
0.0009617548626099177,0.02931526581130465
0.0009617548626099177,0.02936861479367281
0.0009649930944705572,0.02936861479367281
0.0009649930944705572,0.029448638267225054
0.0009666122104008769,0.029448638267225054
0.0009666122104008769,0.029582010723145456
0.0009698504422615163,0.029582010723145456
0.0009698504422615163,0.029608685214329536
0.000971469558191836,0.029608685214329536
0.000971469558191836,0.029635359705513616
0.0009763269059827953,0.029635359705513616
0.0009763269059827953,0.029688708687881777
0.0009860416015647136,0.029688708687881777
0.0009860416015647136,0.02974205767024994
0.000989279833425353,0.02974205767024994
0.000989279833425353,0.029822081143802182
0.0009908989493556729,0.029822081143802182
0.0009908989493556729,0.029848755634986263
0.000995756297146632,0.029848755634986263
0.000995756297146632,0.029875430126170343
0.0009989945290072714,0.029875430126170343
0.0009989945290072714,0.029902104617354423
0.0010006136449375912,0.029902104617354423
0.0010006136449375912,0.029955453599722584
0.0010022327608679108,0.029955453599722584
0.0010022327608679108,0.029982128090906664
0.0010038518767982306,0.029982128090906664
0.0010038518767982306,0.03006215156445891
0.0010054709927285503,0.03006215156445891
0.0010054709927285503,0.03008882605564299
0.00100709010865887,0.03008882605564299
0.00100709010865887,0.03011550054682707
0.0010119474564498293,0.03011550054682707
0.0010119474564498293,0.03014217503801115
0.0010168048042407884,0.03014217503801115
0.0010168048042407884,0.03016884952919523
0.0010216621520317477,0.03016884952919523
0.0010216621520317477,0.03022219851156339
0.0010232812679620673,0.03022219851156339
0.0010232812679620673,0.030302221985115636
0.0010297577316833464,0.030302221985115636
0.0010297577316833464,0.030382245458667877
0.0010329959635439858,0.030382245458667877
0.0010329959635439858,0.030408919949851957
0.0010346150794743054,0.030408919949851957
0.0010346150794743054,0.030435594441036037
0.0010378533113349448,0.030435594441036037
0.0010378533113349448,0.030462268932220118
0.001042710659125904,0.030462268932220118
0.001042710659125904,0.03051561791458828
0.0010459488909865435,0.03051561791458828
0.0010459488909865435,0.03056896689695644
0.0010475680069168632,0.03056896689695644
0.0010475680069168632,0.03059564138814052
0.001049187122847183,0.03059564138814052
0.001049187122847183,0.030622315879324603
0.0010524253547078224,0.030622315879324603
0.0010524253547078224,0.030648990370508684
0.0010556635865684619,0.030648990370508684
0.0010556635865684619,0.030675664861692764
0.0010572827024987817,0.030675664861692764
0.0010572827024987817,0.030702339352876844
0.0010605209343594211,0.030702339352876844
0.0010605209343594211,0.030755688335245005
0.0010621400502897407,0.030755688335245005
0.0010621400502897407,0.030809037317613166
0.0010669973980807,0.030809037317613166
0.0010669973980807,0.03094240977353357
0.0010702356299413394,0.03094240977353357
0.0010702356299413394,0.031022433247085812
0.0010718547458716593,0.031022433247085812
0.0010718547458716593,0.031102456720638053
0.0010815694414535776,0.031102456720638053
0.0010815694414535776,0.031155805703006214
0.0010831885573838972,0.031155805703006214
0.0010831885573838972,0.03123582917655846
0.001084807673314217,0.03123582917655846
0.001084807673314217,0.031342527141294776
0.0010864267892445366,0.031342527141294776
0.0010864267892445366,0.03136920163247886
0.0010912841370354959,0.03136920163247886
0.0010912841370354959,0.031395876123662944
0.0010961414848264552,0.031395876123662944
0.0010961414848264552,0.03142255061484702
0.0010977606007567748,0.03142255061484702
0.0010977606007567748,0.031449225106031105
0.0010993797166870946,0.031449225106031105
0.0010993797166870946,0.031502574088399266
0.0011009988326174142,0.031502574088399266
0.0011009988326174142,0.03152924857958334
0.001102617948547734,0.03152924857958334
0.001102617948547734,0.031555923070767426
0.0011042370644780536,0.031555923070767426
0.0011042370644780536,0.031635946544319664
0.001107475296338693,0.031635946544319664
0.001107475296338693,0.03171597001787191
0.0011123326441296523,0.03171597001787191
0.0011123326441296523,0.03174264450905599
0.0011155708759902918,0.03174264450905599
0.0011155708759902918,0.03179599349142415
0.0011171899919206116,0.03179599349142415
0.0011171899919206116,0.03182266798260823
0.0011188091078509312,0.03182266798260823
0.0011188091078509312,0.031849342473792314
0.001120428223781251,0.031849342473792314
0.001120428223781251,0.03187601696497639
0.0011220473397115707,0.03187601696497639
0.0011220473397115707,0.031902691456160474
0.0011236664556418905,0.031902691456160474
0.0011236664556418905,0.03192936594734455
0.00112690468750253,0.03192936594734455
0.00112690468750253,0.031956040438528635
0.0011285238034328495,0.031956040438528635
0.0011285238034328495,0.03198271492971272
0.001138238499014768,0.03198271492971272
0.001138238499014768,0.032009389420896796
0.0011414767308754075,0.032009389420896796
0.0011414767308754075,0.03203606391208088
0.001143095846805727,0.03203606391208088
0.001143095846805727,0.032062738403264956
0.001144714962736047,0.032062738403264956
0.001144714962736047,0.03211608738563312
0.001149572310527006,0.03211608738563312
0.001149572310527006,0.0321427618768172
0.0011511914264573258,0.0321427618768172
0.0011511914264573258,0.03219611085918536
0.0011528105423876454,0.03219611085918536
0.0011528105423876454,0.032276134332737606
0.0011544296583179652,0.032276134332737606
0.0011544296583179652,0.03230280882392168
0.0011592870061089245,0.03230280882392168
0.0011592870061089245,0.032356157806289844
0.001162525237969564,0.032356157806289844
0.001162525237969564,0.03238283229747393
0.0011641443538998836,0.03238283229747393
0.0011641443538998836,0.03243618127984209
0.0011722399335514823,0.03243618127984209
0.0011722399335514823,0.032462855771026165
0.0011770972813424413,0.032462855771026165
0.0011770972813424413,0.032516204753394326
0.0011803355132030807,0.032516204753394326
0.0011803355132030807,0.03254287924457841
0.0011868119769243598,0.03254287924457841
0.0011868119769243598,0.032569553735762494
0.0011900502087849993,0.032569553735762494
0.0011900502087849993,0.03259622822694657
0.0011916693247153189,0.03259622822694657
0.0011916693247153189,0.032622902718130654
0.0011932884406456387,0.032622902718130654
0.0011932884406456387,0.03264957720931473
0.0011965266725062782,0.03264957720931473
0.0011965266725062782,0.03275627517405105
0.0011981457884365978,0.03275627517405105
0.0011981457884365978,0.03280962415641921
0.0011997649043669176,0.03280962415641921
0.0011997649043669176,0.0328362986476033
0.001203003136227557,0.0328362986476033
0.001203003136227557,0.03286297313878738
0.0012046222521578769,0.03286297313878738
0.0012046222521578769,0.03288964762997146
0.0012127178318094753,0.03288964762997146
0.0012127178318094753,0.03294299661233962
0.0012159560636701148,0.03294299661233962
0.0012159560636701148,0.0329696711035237
0.0012175751796004346,0.0329696711035237
0.0012175751796004346,0.03302302008589186
0.0012240516433217135,0.03302302008589186
0.0012240516433217135,0.03304969457707594
0.001227289875182353,0.03304969457707594
0.001227289875182353,0.033183067032996345
0.0012321472229733122,0.033183067032996345
0.0012321472229733122,0.033236416015364506
0.0012370045707642712,0.033236416015364506
0.0012370045707642712,0.03326309050654859
0.0012402428026249107,0.03326309050654859
0.0012402428026249107,0.03334311398010083
0.00124348103448555,0.03334311398010083
0.00124348103448555,0.03336978847128491
0.0012467192663461898,0.03336978847128491
0.0012467192663461898,0.03339646296246899
0.0012483383822765094,0.03339646296246899
0.0012483383822765094,0.03342313745365307
0.0012499574982068292,0.03342313745365307
0.0012499574982068292,0.03347648643602123
0.0012531957300674686,0.03347648643602123
0.0012531957300674686,0.03350316092720532
0.001256433961928108,0.03350316092720532
0.001256433961928108,0.03352983541838939
0.0012580530778584277,0.03352983541838939
0.0012580530778584277,0.03360985889194164
0.0012596721937887475,0.03360985889194164
0.0012596721937887475,0.0336632078743098
0.0012612913097190671,0.0336632078743098
0.0012612913097190671,0.03371655685667796
0.0012645295415797066,0.03371655685667796
0.0012645295415797066,0.03376990583904612
0.0012661486575100264,0.03376990583904612
0.0012661486575100264,0.03382325482141428
0.0012693868893706658,0.03382325482141428
0.0012693868893706658,0.033903278294966525
0.0012710060053009857,0.033903278294966525
0.0012710060053009857,0.0339299527861506
0.0012758633530919447,0.0339299527861506
0.0012758633530919447,0.034036650750886924
0.001280720700882904,0.034036650750886924
0.001280720700882904,0.03411667422443917
0.0012823398168132236,0.03411667422443917
0.0012823398168132236,0.034250046680359574
0.001285578048673863,0.034250046680359574
0.001285578048673863,0.03427672117154365
0.0012871971646041828,0.03427672117154365
0.0012871971646041828,0.034303395662727734
0.0012888162805345024,0.034303395662727734
0.0012888162805345024,0.034356744645095895
0.0012904353964648223,0.034356744645095895
0.0012904353964648223,0.03438341913627998
0.0012952927442557815,0.03438341913627998
0.0012952927442557815,0.034463442609832216
0.0012969118601861012,0.034463442609832216
0.0012969118601861012,0.0344901171010163
0.0013001500920467406,0.0344901171010163
0.0013001500920467406,0.03457014057456854
0.0013050074398376999,0.03457014057456854
0.0013050074398376999,0.03465016404812078
0.001309864787628659,0.03465016404812078
0.001309864787628659,0.03470351303048894
0.0013114839035589787,0.03470351303048894
0.0013114839035589787,0.03473018752167303
0.0013179603672802576,0.03473018752167303
0.0013179603672802576,0.034756862012857104
0.001321198599140897,0.034756862012857104
0.001321198599140897,0.03483688548640935
0.0013260559469318563,0.03483688548640935
0.0013260559469318563,0.034863559977593425
0.0013309132947228154,0.034863559977593425
0.0013309132947228154,0.03489023446877751
0.001334151526583455,0.03489023446877751
0.001334151526583455,0.034916908959961586
0.0013357706425137746,0.034916908959961586
0.0013357706425137746,0.03494358345114567
0.0013406279903047339,0.03494358345114567
0.0013406279903047339,0.03497025794232975
0.0013422471062350535,0.03497025794232975
0.0013422471062350535,0.03499693243351383
0.0013438662221653733,0.03499693243351383
0.0013438662221653733,0.03505028141588199
0.001345485338095693,0.03505028141588199
0.001345485338095693,0.035130304889434236
0.0013487235699563324,0.035130304889434236
0.0013487235699563324,0.03515697938061831
0.0013535809177472916,0.03515697938061831
0.0013535809177472916,0.03523700285417056
0.0013600573814685705,0.03523700285417056
0.0013600573814685705,0.035263677345354634
0.0013616764973988903,0.035263677345354634
0.0013616764973988903,0.0353170263277228
0.0013649147292595298,0.0353170263277228
0.0013649147292595298,0.03537037531009096
0.0013778676567020875,0.03537037531009096
0.0013778676567020875,0.03542372429245912
0.0013794867726324074,0.03542372429245912
0.0013794867726324074,0.0354503987836432
0.001381105888562727,0.0354503987836432
0.001381105888562727,0.035477073274827284
0.0013875823522840058,0.035477073274827284
0.0013875823522840058,0.035530422257195445
0.001392439700074965,0.035530422257195445
0.001392439700074965,0.03555709674837952
0.0013940588160052847,0.03555709674837952
0.0013940588160052847,0.035583771239563605
0.0013972970478659242,0.035583771239563605
0.0013972970478659242,0.03561044573074769
0.001398916163796244,0.03561044573074769
0.001398916163796244,0.035637120221931766
0.0014021543956568834,0.035637120221931766
0.0014021543956568834,0.03566379471311585
0.0014037735115872032,0.03566379471311585
0.0014037735115872032,0.03571714369548401
0.0014102499753084821,0.03571714369548401
0.0014102499753084821,0.03579716716903625
0.0014183455549600806,0.03579716716903625
0.0014183455549600806,0.03582384166022033
0.0014199646708904004,0.03582384166022033
0.0014199646708904004,0.03585051615140441
0.0014232029027510399,0.03585051615140441
0.0014232029027510399,0.035903865133772576
0.0014248220186813597,0.035903865133772576
0.0014248220186813597,0.03593053962495665
0.0014264411346116793,0.03593053962495665
0.0014264411346116793,0.036037237589692975
0.0014312984824026386,0.036037237589692975
0.0014312984824026386,0.03606391208087706
0.0014361558301935976,0.03606391208087706
0.0014361558301935976,0.03611726106324522
0.001439394062054237,0.03611726106324522
0.001439394062054237,0.036143935554429296
0.0014410131779845569,0.036143935554429296
0.0014410131779845569,0.036197284536797464
0.0014426322939148765,0.036197284536797464
0.0014426322939148765,0.03622395902798154
0.0014442514098451963,0.03622395902798154
0.0014442514098451963,0.036250633519165625
0.0014458705257755161,0.036250633519165625
0.0014458705257755161,0.0362773080103497
0.0014491087576361556,0.0362773080103497
0.0014491087576361556,0.036303982501533785
0.0014539661054271146,0.036303982501533785
0.0014539661054271146,0.03633065699271786
0.0014555852213574345,0.03633065699271786
0.0014555852213574345,0.03638400597508602
0.001458823453218074,0.03638400597508602
0.001458823453218074,0.036437354957454184
0.0014604425691483935,0.036437354957454184
0.0014604425691483935,0.03654405292219051
0.0014620616850787133,0.03654405292219051
0.0014620616850787133,0.03659740190455867
0.0014669190328696726,0.03659740190455867
0.0014669190328696726,0.036704099869294994
0.001470157264730312,0.036704099869294994
0.001470157264730312,0.03673077436047907
0.001476633728451591,0.03673077436047907
0.001476633728451591,0.03678412334284724
0.0014847293081031894,0.03678412334284724
0.0014847293081031894,0.0368374723252154
0.0014863484240335092,0.0368374723252154
0.0014863484240335092,0.036864146816399476
0.001487967539963829,0.036864146816399476
0.001487967539963829,0.03689082130758356
0.0014912057718244685,0.03689082130758356
0.0014912057718244685,0.03691749579876764
0.001494444003685108,0.03691749579876764
0.001494444003685108,0.03694417028995172
0.0014960631196154275,0.03694417028995172
0.0014960631196154275,0.0369708447811358
0.0014976822355457474,0.0369708447811358
0.0014976822355457474,0.03702419376350396
0.001499301351476067,0.03702419376350396
0.001499301351476067,0.03705086825468804
0.0015009204674063868,0.03705086825468804
0.0015009204674063868,0.0371042172370562
0.0015025395833367064,0.0371042172370562
0.0015025395833367064,0.037157566219424364
0.0015041586992670262,0.037157566219424364
0.0015041586992670262,0.03718424071060845
0.0015106351629883051,0.03718424071060845
0.0015106351629883051,0.03723758969297661
0.001517111626709584,0.03723758969297661
0.001517111626709584,0.037317613166528846
0.0015187307426399038,0.037317613166528846
0.0015187307426399038,0.037370962148897006
0.0015235880904308629,0.037370962148897006
0.0015235880904308629,0.03739763664008109
0.0015252072063611827,0.03739763664008109
0.0015252072063611827,0.037424311131265174
0.0015268263222915023,0.037424311131265174
0.0015268263222915023,0.037477660113633335
0.0015333027860127814,0.037477660113633335
0.0015333027860127814,0.037584358078369656
0.0015365410178734208,0.037584358078369656
0.0015365410178734208,0.037664381551921894
0.0015397792497340603,0.037664381551921894
0.0015397792497340603,0.03774440502547414
0.0015430174815946997,0.03774440502547414
0.0015430174815946997,0.0377977540078423
0.0015446365975250193,0.0377977540078423
0.0015446365975250193,0.03785110299021046
0.0015462557134553391,0.03785110299021046
0.0015462557134553391,0.037877777481394544
0.0015478748293856588,0.037877777481394544
0.0015478748293856588,0.037931126463762704
0.0015511130612462982,0.037931126463762704
0.0015511130612462982,0.03795780095494678
0.001552732177176618,0.03795780095494678
0.001552732177176618,0.037984475446130865
0.0015543512931069378,0.037984475446130865
0.0015543512931069378,0.03806449891968311
0.0015559704090372575,0.03806449891968311
0.0015559704090372575,0.038091173410867186
0.0015673042205494956,0.038091173410867186
0.0015673042205494956,0.03811784790205127
0.0015737806842707745,0.03811784790205127
0.0015737806842707745,0.03814452239323535
0.0015851144957830126,0.03814452239323535
0.0015851144957830126,0.03817119688441943
0.0015867336117133322,0.03817119688441943
0.0015867336117133322,0.03822454586678759
0.0015899718435739717,0.03822454586678759
0.0015899718435739717,0.03825122035797167
0.001594829191364931,0.03825122035797167
0.001594829191364931,0.03827789484915575
0.0015964483072952508,0.03827789484915575
0.0015964483072952508,0.038304569340339836
0.0015996865391558902,0.038304569340339836
0.0015996865391558902,0.03833124383152391
0.001606163002877169,0.03833124383152391
0.001606163002877169,0.038384592813892074
0.0016142585825287676,0.038384592813892074
0.0016142585825287676,0.038437941796260235
0.0016191159303197268,0.038437941796260235
0.0016191159303197268,0.038491290778628395
0.0016207350462500466,0.038491290778628395
0.0016207350462500466,0.03857131425218064
0.0016288306259016451,0.03857131425218064
0.0016288306259016451,0.0386246632345488
0.001635307089622924,0.0386246632345488
0.001635307089622924,0.038651337725732884
0.0016369262055532438,0.038651337725732884
0.0016369262055532438,0.03873136119928512
0.0016434026692745227,0.03873136119928512
0.0016434026692745227,0.03881138467283737
0.0016450217852048425,0.03881138467283737
0.0016450217852048425,0.03883805916402144
0.001648260017065482,0.03883805916402144
0.001648260017065482,0.03897143161994185
0.0016498791329958016,0.03897143161994185
0.0016498791329958016,0.03902478060231001
0.001653117364856441,0.03902478060231001
0.001653117364856441,0.03905145509349409
0.0016563555967170805,0.03905145509349409
0.0016563555967170805,0.039158153058230415
0.0016628320604383596,0.039158153058230415
0.0016628320604383596,0.03918482754941449
0.0016644511763686792,0.03918482754941449
0.0016644511763686792,0.039211502040598575
0.001666070292298999,0.039211502040598575
0.001666070292298999,0.03923817653178266
0.0016676894082293186,0.03923817653178266
0.0016676894082293186,0.03929152551415082
0.0016725467560202779,0.03929152551415082
0.0016725467560202779,0.03934487449651898
0.001677404103811237,0.03934487449651898
0.001677404103811237,0.0394515724612553
0.0016790232197415567,0.0394515724612553
0.0016790232197415567,0.03947824695243938
0.0016806423356718763,0.03947824695243938
0.0016806423356718763,0.03953159593480755
0.0017033099586963526,0.03953159593480755
0.0017033099586963526,0.03955827042599162
0.001706548190556992,0.03955827042599162
0.001706548190556992,0.03958494491717571
0.0017097864224176315,0.03958494491717571
0.0017097864224176315,0.039611619408359784
0.001713024654278271,0.039611619408359784
0.001713024654278271,0.03963829389954387
0.0017146437702085908,0.03963829389954387
0.0017146437702085908,0.039664968390727945
0.0017162628861389104,0.039664968390727945
0.0017162628861389104,0.039718317373096106
0.0017178820020692302,0.039718317373096106
0.0017178820020692302,0.03974499186428019
0.0017195011179995498,0.03974499186428019
0.0017195011179995498,0.039771666355464266
0.0017211202339298696,0.039771666355464266
0.0017211202339298696,0.03979834084664835
0.0017292158135814683,0.03979834084664835
0.0017292158135814683,0.03985168982901651
0.001730834929511788,0.03985168982901651
0.001730834929511788,0.03990503881138467
0.0017389305091633867,0.03990503881138467
0.0017389305091633867,0.039931713302568755
0.001742168741024026,0.039931713302568755
0.001742168741024026,0.03995838779375283
0.0017454069728846655,0.03995838779375283
0.0017454069728846655,0.039985062284936916
0.0017470260888149851,0.039985062284936916
0.0017470260888149851,0.04001173677612099
0.0017502643206756248,0.04001173677612099
0.0017502643206756248,0.04003841126730508
0.0017518834366059444,0.04003841126730508
0.0017518834366059444,0.04011843474085732
0.0017615981321878627,0.04011843474085732
0.0017615981321878627,0.0401451092320414
0.0017696937118394614,0.0401451092320414
0.0017696937118394614,0.04017178372322548
0.0017713128277697813,0.04017178372322548
0.0017713128277697813,0.04019845821440956
0.0017761701755607403,0.04019845821440956
0.0017761701755607403,0.04022513270559364
0.0017794084074213797,0.04022513270559364
0.0017794084074213797,0.040278481687961804
0.0017826466392820192,0.040278481687961804
0.0017826466392820192,0.04030515617914588
0.001784265755212339,0.04030515617914588
0.001784265755212339,0.040331830670329964
0.0017858848711426586,0.040331830670329964
0.0017858848711426586,0.04035850516151404
0.001789123103003298,0.04035850516151404
0.001789123103003298,0.040438528635066286
0.0017907422189336179,0.040438528635066286
0.0017907422189336179,0.040491877617434446
0.0017955995667245771,0.040491877617434446
0.0017955995667245771,0.04054522659980261
0.0017988377985852166,0.04054522659980261
0.0017988377985852166,0.04059857558217077
0.0018036951463761756,0.04059857558217077
0.0018036951463761756,0.04065192456453893
0.001813409841958094,0.04065192456453893
0.001813409841958094,0.04067859905572301
0.0018150289578884138,0.04067859905572301
0.0018150289578884138,0.04073194803809117
0.0018215054216096926,0.04073194803809117
0.0018215054216096926,0.040838646002827494
0.0018231245375400125,0.040838646002827494
0.0018231245375400125,0.04086532049401158
0.001826362769400652,0.04086532049401158
0.001826362769400652,0.040891994985195655
0.0018279818853309715,0.040891994985195655
0.0018279818853309715,0.04091866947637974
0.0018296010012612913,0.04091866947637974
0.0018296010012612913,0.040945343967563816
0.001831220117191611,0.040945343967563816
0.001831220117191611,0.0409720184587479
0.0018328392331219308,0.0409720184587479
0.0018328392331219308,0.041105390914668305
0.0018360774649825702,0.041105390914668305
0.0018360774649825702,0.041212088879404626
0.001842553928703849,0.041212088879404626
0.001842553928703849,0.0412387633705887
0.0018474112764948084,0.0412387633705887
0.0018474112764948084,0.04126543786177279
0.0018506495083554478,0.04126543786177279
0.0018506495083554478,0.041292112352956864
0.0018522686242857674,0.041292112352956864
0.0018522686242857674,0.04134546133532503
0.0018555068561464068,0.04134546133532503
0.0018555068561464068,0.04137213582650911
0.0018636024357980055,0.04137213582650911
0.0018636024357980055,0.04139881031769319
0.0018652215517283254,0.04139881031769319
0.0018652215517283254,0.04142548480887727
0.001866840667658645,0.04142548480887727
0.001866840667658645,0.04145215930006135
0.0018716980154496043,0.04145215930006135
0.0018716980154496043,0.041505508282429514
0.0018878891747528014,0.041505508282429514
0.0018878891747528014,0.04153218277361359
0.0018895082906831213,0.04153218277361359
0.0018895082906831213,0.041558857264797675
0.0018927465225437607,0.041558857264797675
0.0018927465225437607,0.04163888073834992
0.0018959847544044001,0.04163888073834992
0.0018959847544044001,0.04169222972071808
0.0018976038703347198,0.04169222972071808
0.0018976038703347198,0.04171890421190216
0.0018992229862650396,0.04171890421190216
0.0018992229862650396,0.04174557870308624
0.0019073185659166383,0.04174557870308624
0.0019073185659166383,0.04177225319427032
0.001908937681846958,0.04177225319427032
0.001908937681846958,0.0417989276854544
0.0019154141455682368,0.0417989276854544
0.0019154141455682368,0.04187895115900664
0.0019283670730107947,0.04187895115900664
0.0019283670730107947,0.04190562565019072
0.0019299861889411143,0.04190562565019072
0.0019299861889411143,0.042065672597295205
0.0019316053048714342,0.042065672597295205
0.0019316053048714342,0.04209234708847929
0.0019332244208017538,0.04209234708847929
0.0019332244208017538,0.042119021579663365
0.001938081768592713,0.042119021579663365
0.001938081768592713,0.04214569607084745
0.0019413200004533525,0.04214569607084745
0.0019413200004533525,0.04219904505321561
0.001944558232313992,0.04219904505321561
0.001944558232313992,0.042225719544399694
0.0019494155801049512,0.042225719544399694
0.0019494155801049512,0.04230574301795193
0.0019526538119655906,0.04230574301795193
0.0019526538119655906,0.042332417509136015
0.0019542729278959102,0.042332417509136015
0.0019542729278959102,0.042385766491504176
0.00195751115975655,0.042385766491504176
0.00195751115975655,0.042465789965056414
0.0019623685075475087,0.042465789965056414
0.0019623685075475087,0.0424924644562405
0.0019639876234778288,0.0424924644562405
0.0019639876234778288,0.04251913894742458
0.0019656067394081484,0.04251913894742458
0.0019656067394081484,0.04254581343860866
0.001967225855338468,0.04254581343860866
0.001967225855338468,0.04257248792979274
0.0019704640871991076,0.04257248792979274
0.0019704640871991076,0.04259916242097682
0.0019720832031294273,0.04259916242097682
0.0019720832031294273,0.0426258369121609
0.001975321434990067,0.0426258369121609
0.001975321434990067,0.04265251140334498
0.0019769405509203865,0.04265251140334498
0.0019769405509203865,0.042732534876897224
0.0019801787827810257,0.042732534876897224
0.0019801787827810257,0.0427592093680813
0.0019817978987113458,0.0427592093680813
0.0019817978987113458,0.042839232841633546
0.0019834170146416654,0.042839232841633546
0.0019834170146416654,0.042892581824001706
0.001985036130571985,0.042892581824001706
0.001985036130571985,0.04291925631518579
0.001999608173944863,0.04291925631518579
0.001999608173944863,0.04302595427992211
0.0020012272898751824,0.04302595427992211
0.0020012272898751824,0.04305262877110619
0.002002846405805502,0.04305262877110619
0.002002846405805502,0.04307930326229027
0.0020060846376661417,0.04307930326229027
0.0020060846376661417,0.04310597775347435
0.0020077037535964613,0.04310597775347435
0.0020077037535964613,0.04313265224465843
0.00201741844917838,0.04313265224465843
0.00201741844917838,0.04321267571821068
0.0020238949128996587,0.04321267571821068
0.0020238949128996587,0.043319373682947
0.002027133144760298,0.043319373682947
0.002027133144760298,0.04337272266531516
0.0020336096084815768,0.04337272266531516
0.0020336096084815768,0.043399397156499236
0.0020368478403422164,0.043399397156499236
0.0020368478403422164,0.04342607164768332
0.002038466956272536,0.04342607164768332
0.002038466956272536,0.043452746138867404
0.0020481816518544546,0.043452746138867404
0.0020481816518544546,0.04353276961241964
0.002049800767784774,0.04353276961241964
0.002049800767784774,0.0435861185947878
0.0020578963474363727,0.0435861185947878
0.0020578963474363727,0.043612793085971886
0.0020611345792970123,0.043612793085971886
0.0020611345792970123,0.04363946757715596
0.0020757066226698897,0.04363946757715596
0.0020757066226698897,0.043692816559524124
0.0020789448545305293,0.043692816559524124
0.0020789448545305293,0.04371949105070821
0.0021032315934853252,0.04371949105070821
0.0021032315934853252,0.04374616554189229
0.002104850709415645,0.04374616554189229
0.002104850709415645,0.04377284003307637
0.0021129462890672433,0.04377284003307637
0.0021129462890672433,0.04379951452426045
0.002116184520927883,0.04379951452426045
0.002116184520927883,0.04393288698018085
0.0021210418687188422,0.04393288698018085
0.0021210418687188422,0.04398623596254901
0.002127518332440121,0.04398623596254901
0.002127518332440121,0.044012910453733095
0.0021356139120917196,0.044012910453733095
0.0021356139120917196,0.04403958494491718
0.0021372330280220392,0.04403958494491718
0.0021372330280220392,0.044066259436101256
0.002140471259882679,0.044066259436101256
0.002140471259882679,0.044119608418469416
0.0021469477236039577,0.044119608418469416
0.0021469477236039577,0.0441462829096535
0.0021485668395342774,0.0441462829096535
0.0021485668395342774,0.04419963189202166
0.002151805071394917,0.04419963189202166
0.002151805071394917,0.04422630638320574
0.0021599006510465155,0.04422630638320574
0.0021599006510465155,0.0442796553655739
0.0021647579988374748,0.0442796553655739
0.0021647579988374748,0.04430632985675798
0.002169615346628434,0.04430632985675798
0.002169615346628434,0.044413027821494304
0.002179330042210352,0.044413027821494304
0.002179330042210352,0.044466376803862465
0.0021906638537225903,0.044466376803862465
0.0021906638537225903,0.04454640027741471
0.00219390208558323,0.04454640027741471
0.00219390208558323,0.04459974925978287
0.0021955212015135495,0.04459974925978287
0.0021955212015135495,0.044626423750966954
0.002198759433374189,0.044626423750966954
0.002198759433374189,0.04465309824215103
0.0022084741289561073,0.04465309824215103
0.002211712360816747,0.04465309824215103
0.0022133314767470665,0.04465309824215103
0.0022133314767470665,0.04470644722451919
0.002214950592677386,0.04470644722451919
0.002214950592677386,0.044733121715703275
0.002216569708607706,0.044733121715703275
0.002216569708607706,0.04475979620688735
0.002218188824538026,0.04475979620688735
0.002218188824538026,0.044786470698071436
0.0022198079404683454,0.044786470698071436
0.0022198079404683454,0.04489316866280776
0.0022262844041896243,0.04489316866280776
0.0022262844041896243,0.04494651764517592
0.0022311417519805836,0.04494651764517592
0.0022311417519805836,0.04497319213636
0.002232760867910903,0.04497319213636
0.002232760867910903,0.04502654111872816
0.0022376182157018624,0.04502654111872816
0.0022376182157018624,0.04505321560991224
0.002239237331632182,0.04505321560991224
0.002239237331632182,0.04507989010109632
0.002245713795353461,0.04507989010109632
0.002245713795353461,0.045133239083464484
0.0022554284909353794,0.045133239083464484
0.0022554284909353794,0.04515991357464856
0.0022667623024476176,0.04515991357464856
0.0022667623024476176,0.045186588065832645
0.002268381418377937,0.045186588065832645
0.002268381418377937,0.04521326255701672
0.002274857882099216,0.04521326255701672
0.002274857882099216,0.04526661153938489
0.002276476998029536,0.04526661153938489
0.002276476998029536,0.045293286030568966
0.0022780961139598557,0.045293286030568966
0.0022780961139598557,0.04531996052175305
0.002289429925472094,0.04531996052175305
0.002289429925472094,0.04534663501293713
0.0022910490414024135,0.04534663501293713
0.0022910490414024135,0.04539998399530529
0.0022942872732630527,0.04539998399530529
0.0022942872732630527,0.04542665848648937
0.0022959063891933727,0.04542665848648937
0.0022959063891933727,0.04545333297767345
0.002305621084775291,0.04545333297767345
0.002305621084775291,0.04548000746885753
0.00231047843256625,0.04548000746885753
0.00231047843256625,0.04553335645122569
0.002316954896287529,0.04553335645122569
0.002316954896287529,0.04556003094240978
0.0023218122440784882,0.04556003094240978
0.0023218122440784882,0.04561337992477794
0.0023315269396604068,0.04561337992477794
0.0023315269396604068,0.0456667289071461
0.002334765171521046,0.0456667289071461
0.002334765171521046,0.045693403398330175
0.002341241635242325,0.045693403398330175
0.002341241635242325,0.04572007788951426
0.002342860751172645,0.04572007788951426
0.002342860751172645,0.045746752380698336
0.002346098983033284,0.045746752380698336
0.002346098983033284,0.04577342687188242
0.0023558136786152027,0.04577342687188242
0.0023558136786152027,0.04582677585425058
0.0023655283741971208,0.04582677585425058
0.0023655283741971208,0.045906799327802825
0.0023687666060577604,0.045906799327802825
0.0023687666060577604,0.0459334738189869
0.00237038572198808,0.0459334738189869
0.00237038572198808,0.045960148310170985
0.0023736239538487197,0.045960148310170985
0.0023736239538487197,0.04598682280135506
0.002376862185709359,0.04598682280135506
0.002376862185709359,0.046013497292539146
0.002384957765360958,0.046013497292539146
0.0023898151131519167,0.046013497292539146
0.0023979106928035156,0.046013497292539146
0.0023979106928035156,0.04604017178372322
0.0024027680405944744,0.04604017178372322
0.0024027680405944744,0.04606684627490731
0.0024076253883854337,0.04606684627490731
0.0024076253883854337,0.046093520766091384
0.0024108636202460733,0.046093520766091384
0.0024108636202460733,0.04612019525727547
0.002412482736176393,0.04612019525727547
0.002412482736176393,0.04617354423964363
0.0024157209680370326,0.04617354423964363
0.0024157209680370326,0.04620021873082771
0.002417340083967352,0.04620021873082771
0.002417340083967352,0.04622689322201179
0.0024254356636189507,0.04622689322201179
0.0024254356636189507,0.04625356771319587
0.0024286738954795903,0.04625356771319587
0.0024286738954795903,0.04628024220437995
0.0024319121273402296,0.04628024220437995
0.0024319121273402296,0.046306916695564034
0.002435150359200869,0.046306916695564034
0.002435150359200869,0.04633359118674811
0.0024400077069918285,0.04633359118674811
0.0024400077069918285,0.04638694016911627
0.002441626822922148,0.04638694016911627
0.002441626822922148,0.046413614660300355
0.0024497224025737466,0.046413614660300355
0.0024497224025737466,0.0464936381338526
0.0024513415185040666,0.0464936381338526
0.0024513415185040666,0.046520312625036676
0.0024529606344343862,0.046520312625036676
0.0024529606344343862,0.04654698711622076
0.002454579750364706,0.04654698711622076
0.002454579750364706,0.04657366160740484
0.0024561988662950254,0.04657366160740484
0.0024561988662950254,0.04660033609858892
0.0024578179822253455,0.04660033609858892
0.0024578179822253455,0.04668035957214116
0.002459437098155665,0.04668035957214116
0.002459437098155665,0.04670703406332524
0.002469151793737583,0.04670703406332524
0.002469151793737583,0.046733708554509326
0.0024756282574588625,0.046733708554509326
0.0024756282574588625,0.0467603830456934
0.0024804856052498213,0.0467603830456934
0.0024804856052498213,0.04678705753687749
0.002483723837110461,0.04678705753687749
0.002483723837110461,0.046813732028061564
0.0024869620689711,0.046813732028061564
0.0024869620689711,0.04684040651924565
0.002495057648622699,0.04684040651924565
0.002495057648622699,0.046867081010429724
0.0024999149964136584,0.046867081010429724
0.0024999149964136584,0.04689375550161381
0.002501534112343978,0.04689375550161381
0.002501534112343978,0.046920429992797885
0.0025047723442046172,0.046920429992797885
0.0025047723442046172,0.04694710448398197
0.0025177252716471754,0.04694710448398197
0.0025177252716471754,0.046973778975166046
0.0025242017353684543,0.046973778975166046
0.0025242017353684543,0.04702712795753421
0.0025339164309503724,0.04702712795753421
0.0025339164309503724,0.04705380244871829
0.002535535546880692,0.04705380244871829
0.002535535546880692,0.047080476939902374
0.00254686935839293,0.047080476939902374
0.00254686935839293,0.04710715143108645
0.0025517267061838894,0.04710715143108645
0.0025517267061838894,0.04716050041345461
0.0025630605176961275,0.04716050041345461
0.0025630605176961275,0.047187174904638696
0.002566298749556767,0.047187174904638696
0.002566298749556767,0.047240523887006856
0.002567917865487087,0.047240523887006856
0.002567917865487087,0.047320547360559094
0.0025695369814174064,0.047320547360559094
0.0025695369814174064,0.04740057083411134
0.0025743943292083657,0.04740057083411134
0.0025743943292083657,0.04742724532529542
0.0025760134451386853,0.04742724532529542
0.0025760134451386853,0.0474539198164795
0.0025808707929296446,0.0474539198164795
0.0025808707929296446,0.04750726879884766
0.002582489908859964,0.04750726879884766
0.002582489908859964,0.047587292272399905
0.0025922046044418827,0.047587292272399905
0.0025922046044418827,0.04761396676358398
0.0025938237203722023,0.04761396676358398
0.0025938237203722023,0.047640641254768065
0.0025986810681631616,0.047640641254768065
0.0025986810681631616,0.04772066472832031
0.002601919300023801,0.04772066472832031
0.002601919300023801,0.04780068820187255
0.0026051575318844404,0.04780068820187255
0.0026051575318844404,0.04782736269305663
0.00260677664781476,0.04782736269305663
0.00260677664781476,0.04785403718424071
0.0026116339956057193,0.04785403718424071
0.0026116339956057193,0.047960735148977036
0.0026164913433966786,0.047960735148977036
0.0026164913433966786,0.0480140841313452
0.002618110459326998,0.0480140841313452
0.002618110459326998,0.048040758622529274
0.002624586923048277,0.048040758622529274
0.002624586923048277,0.04806743311371336
0.002626206038978597,0.04806743311371336
0.002626206038978597,0.04812078209608152
0.002637539850490835,0.04812078209608152
0.002637539850490835,0.048147456587265595
0.002642397198281794,0.048147456587265595
0.002642397198281794,0.04817413107844968
0.0026472545460727533,0.04817413107844968
0.0026472545460727533,0.04822748006081784
0.002650492777933393,0.04822748006081784
0.002650492777933393,0.048280829043186
0.002656969241654672,0.048280829043186
0.002656969241654672,0.048307503534370085
0.0026618265894456307,0.048307503534370085
0.0026618265894456307,0.04833417802555416
0.0026634457053759508,0.04833417802555416
0.0026634457053759508,0.04838752700792232
0.00266668393723659,0.04838752700792232
0.00266668393723659,0.048414201499106406
0.0026699221690972296,0.048414201499106406
0.0026699221690972296,0.048494224972658644
0.002673160400957869,0.048494224972658644
0.002673160400957869,0.04852089946384273
0.002678017748748828,0.04852089946384273
0.002678017748748828,0.04854757395502681
0.0026796368646791477,0.04854757395502681
0.0026796368646791477,0.04857424844621089
0.002684494212470107,0.04857424844621089
0.002684494212470107,0.04860092293739497
0.0026861133284004266,0.04860092293739497
0.0026861133284004266,0.04862759742857905
0.0026877324443307466,0.04862759742857905
0.0026877324443307466,0.04865427191976313
0.002699066255842985,0.04865427191976313
0.002699066255842985,0.04868094641094721
0.0027006853717733044,0.04868094641094721
0.0027006853717733044,0.04873429539331537
0.002702304487703624,0.04873429539331537
0.002702304487703624,0.048814318866867615
0.0027039236036339436,0.048814318866867615
0.0027039236036339436,0.048867667849235776
0.0027071618354945833,0.048867667849235776
0.0027071618354945833,0.04894769132278802
0.002708780951424903,0.04894769132278802
0.002708780951424903,0.04900104030515618
0.0027152574151461818,0.04900104030515618
0.0027152574151461818,0.04913441276107658
0.002716876531076502,0.04913441276107658
0.002716876531076502,0.04916108725226066
0.0027249721107281003,0.04916108725226066
0.0027249721107281003,0.04918776174344475
0.0027298294585190595,0.04918776174344475
0.0027298294585190595,0.049214436234628824
0.002737925038170658,0.049214436234628824
0.002737925038170658,0.04924111072581291
0.0027395441541009776,0.04924111072581291
0.0027395441541009776,0.04934780869054923
0.002744401501891937,0.04934780869054923
0.002744401501891937,0.04940115767291739
0.0027460206178222565,0.04940115767291739
0.0027460206178222565,0.04945450665528555
0.002749258849682896,0.04945450665528555
0.002749258849682896,0.049481181146469634
0.002750877965613216,0.049481181146469634
0.002750877965613216,0.04950785563765371
0.0027541161974738554,0.04950785563765371
0.0027541161974738554,0.04956120462002187
0.002755735313404175,0.04956120462002187
0.002755735313404175,0.049587879111205956
0.0027573544293344947,0.049587879111205956
0.0027573544293344947,0.049641228093574116
0.0027605926611951343,0.049641228093574116
0.0027605926611951343,0.04966790258475819
0.002762211777125454,0.04966790258475819
0.002762211777125454,0.04974792605831044
0.0027654500089860936,0.04974792605831044
0.0027654500089860936,0.04977460054949452
0.002767069124916413,0.04977460054949452
0.002767069124916413,0.0498012750406786
0.0027703073567770524,0.0498012750406786
0.0027703073567770524,0.04982794953186268
0.0027784029364286513,0.04982794953186268
0.0027784029364286513,0.04988129851423084
0.00278487940014993,0.04988129851423084
0.00278487940014993,0.04990797300541492
0.00278649851608025,0.04990797300541492
0.00278649851608025,0.049934647496599004
0.0027881176320105694,0.049934647496599004
0.0027881176320105694,0.04996132198778308
0.0027962132116621683,0.04996132198778308
0.0027962132116621683,0.049987996478967164
0.002797832327592488,0.049987996478967164
0.002797832327592488,0.05001467097015124
0.0028075470231744065,0.05001467097015124
0.0028075470231744065,0.050041345461335325
0.0028107852550350457,0.050041345461335325
0.0028107852550350457,0.050094694443703486
0.0028124043709653653,0.050094694443703486
0.0028124043709653653,0.050148043426071647
0.0028140234868956854,0.050148043426071647
0.0028140234868956854,0.05020139240843981
0.002818880834686644,0.05020139240843981
0.002818880834686644,0.05022806689962389
0.002822119066547284,0.05022806689962389
0.002822119066547284,0.05028141588199205
0.0028237381824776035,0.05028141588199205
0.0028237381824776035,0.05030809037317613
0.0028302146461988823,0.05030809037317613
0.0028302146461988823,0.050361439355544296
0.0028318337621292024,0.050361439355544296
0.0028318337621292024,0.05041478833791246
0.0028350719939898416,0.05041478833791246
0.0028350719939898416,0.050441462829096534
0.0028383102258504813,0.050441462829096534
0.0028383102258504813,0.050494811811464695
0.002839929341780801,0.050494811811464695
0.002839929341780801,0.05052148630264878
0.0028415484577111205,0.05052148630264878
0.0028415484577111205,0.050548160793832855
0.00284478668957176,0.050548160793832855
0.00284478668957176,0.05057483528501694
0.0028496440373627194,0.05057483528501694
0.0028496440373627194,0.050601509776201016
0.002851263153293039,0.050601509776201016
0.002851263153293039,0.0506281842673851
0.0028545013851536782,0.0506281842673851
0.0028545013851536782,0.050654858758569184
0.0028593587329446375,0.050654858758569184
0.0028593587329446375,0.05068153324975326
0.002862596964805277,0.05068153324975326
0.002862596964805277,0.05073488223212142
0.0028642160807355968,0.05073488223212142
0.0028642160807355968,0.050761556723305505
0.002869073428526556,0.050761556723305505
0.002869073428526556,0.050814905705673666
0.0028739307763175153,0.050814905705673666
0.0028739307763175153,0.05084158019685774
0.002875549892247835,0.05084158019685774
0.002875549892247835,0.05086825468804183
0.0028771690081781545,0.05086825468804183
0.0028771690081781545,0.05092160367040999
0.002878788124108474,0.05092160367040999
0.002878788124108474,0.050948278161594064
0.0028836454718994334,0.050948278161594064
0.0028836454718994334,0.05097495265277815
0.0028885028196903926,0.05097495265277815
0.0028885028196903926,0.05100162714396223
0.0028949792834116715,0.05100162714396223
0.0028949792834116715,0.05110832510869855
0.0029014557471329504,0.05110832510869855
0.0029014557471329504,0.05118834858225079
0.0029063130949239097,0.05118834858225079
0.0029063130949239097,0.051215023073434875
0.002914408674575508,0.051215023073434875
0.002914408674575508,0.05124169756461895
0.002922504254227107,0.05124169756461895
0.002922504254227107,0.051268372055803035
0.0029241233701574267,0.051268372055803035
0.0029241233701574267,0.05129504654698712
0.002927361602018066,0.05129504654698712
0.002927361602018066,0.051321721038171196
0.002928980717948386,0.051321721038171196
0.002928980717948386,0.05134839552935528
0.002932218949809025,0.05134839552935528
0.002932218949809025,0.05137507002053936
0.002938695413530304,0.05137507002053936
0.002938695413530304,0.05140174451172344
0.002940314529460624,0.05140174451172344
0.002940314529460624,0.0514550934940916
0.0029419336453909437,0.0514550934940916
0.0029419336453909437,0.05148176798527568
0.002945171877251583,0.05148176798527568
0.002945171877251583,0.05150844247645976
0.0029516483409728618,0.05150844247645976
0.0029516483409728618,0.05153511696764384
0.0029548865728335014,0.05153511696764384
0.0029548865728335014,0.05161514044119608
0.002956505688763821,0.05161514044119608
0.002956505688763821,0.05164181493238017
0.002967839500276059,0.05164181493238017
0.002967839500276059,0.05169516391474833
0.002974315963997338,0.05169516391474833
0.002974315963997338,0.051828536370668726
0.0029775541958579777,0.051828536370668726
0.0029775541958579777,0.051881885353036894
0.002982411543648937,0.051881885353036894
0.002982411543648937,0.051935234335405055
0.0029840306595792566,0.051935234335405055
0.0029840306595792566,0.05196190882658913
0.002985649775509576,0.05196190882658913
0.002985649775509576,0.051988583317773215
0.0029905071233005355,0.051988583317773215
0.0029905071233005355,0.05201525780895729
0.003000221818882454,0.05201525780895729
0.003000221818882454,0.05209528128250954
0.003006698282603733,0.05209528128250954
0.0030083173985340525,0.052121955773693614
0.0030131747463250117,0.052121955773693614
0.0030131747463250117,0.05217530475606178
0.0030147938622553314,0.05217530475606178
0.0030147938622553314,0.05222865373842994
0.003018032094115971,0.05222865373842994
0.003018032094115971,0.05225532822961402
0.0030196512100462906,0.05225532822961402
0.0030196512100462906,0.05230867721198218
0.0030212703259766102,0.05230867721198218
0.0030212703259766102,0.052335351703166264
0.00302288944190693,0.052335351703166264
0.00302288944190693,0.052388700685534424
0.00302450855783725,0.052388700685534424
0.00302450855783725,0.0524153751767185
0.0030293659056282087,0.0524153751767185
0.0030293659056282087,0.052442049667902585
0.0030358423693494876,0.052442049667902585
0.0030358423693494876,0.052495398650270746
0.003042318833070767,0.052495398650270746
0.003042318833070767,0.05252207314145483
0.003045557064931406,0.05252207314145483
0.003045557064931406,0.052548747632638906
0.0030487952967920458,0.052548747632638906
0.0030487952967920458,0.05262877110619115
0.003052033528652685,0.05262877110619115
0.003052033528652685,0.05265544559737523
0.0030568908764436443,0.05265544559737523
0.0030568908764436443,0.05268212008855931
0.003058509992373964,0.05268212008855931
0.003058509992373964,0.05270879457974339
0.0030649864560952427,0.05270879457974339
0.0030649864560952427,0.052762143562111556
0.0030730820357468417,0.052762143562111556
0.0030730820357468417,0.05278881805329563
0.003076320267607481,0.05278881805329563
0.003076320267607481,0.052842167035663794
0.0030779393835378005,0.052842167035663794
0.0030779393835378005,0.052948865000400115
0.00308117761539844,0.052948865000400115
0.00308117761539844,0.0529755394915842
0.0030827967313287598,0.0529755394915842
0.0030827967313287598,0.05302888847395236
0.00308441584725908,0.05302888847395236
0.00308441584725908,0.05305556296513644
0.0030908923109803587,0.05305556296513644
0.0030908923109803587,0.05313558643868868
0.0030973687747016376,0.05313558643868868
0.0030973687747016376,0.053215609912240926
0.003098987890631957,0.053215609912240926
0.003098987890631957,0.053268958894609086
0.0031022261224925964,0.053268958894609086
0.0031022261224925964,0.05329563338579316
0.0031087025862138757,0.05329563338579316
0.0031087025862138757,0.05332230787697725
0.0031151790499351546,0.05332230787697725
0.0031151790499351546,0.053348982368161324
0.003116798165865474,0.053348982368161324
0.003116798165865474,0.05337565685934541
0.0031281319773777123,0.05337565685934541
0.0031281319773777123,0.05340233135052949
0.003129751093308032,0.05340233135052949
0.003129751093308032,0.05342900584171357
0.0031394657888899505,0.05342900584171357
0.0031394657888899505,0.05345568033289765
0.003152418716332508,0.05345568033289765
0.003152418716332508,0.05348235482408173
0.0031556569481931474,0.05348235482408173
0.0031556569481931474,0.05350902931526581
0.0031669907597053856,0.05350902931526581
0.0031669907597053856,0.05353570380644989
0.003168609875635705,0.05353570380644989
0.003168609875635705,0.05358905278881805
0.0031734672234266645,0.05358905278881805
0.0031734672234266645,0.05364240177118621
0.0031848010349389026,0.05364240177118621
0.0031848010349389026,0.053669076262370295
0.0031880392667995422,0.053669076262370295
0.0031880392667995422,0.05374909973592254
0.0031993730783117804,0.05374909973592254
0.0031993730783117804,0.05377577422710662
0.0031993730783117804,0.05382912320947478
0.003212326005754338,0.05382912320947478
0.0032155642376149774,0.05382912320947478
0.0032155642376149774,0.05388247219184294
0.0032171833535452974,0.05388247219184294
0.0032171833535452974,0.05390914668302702
0.003225278933196896,0.05390914668302702
0.003225278933196896,0.0539358211742111
0.003228517165057535,0.0539358211742111
0.003228517165057535,0.05396249566539518
0.0032333745128484944,0.05396249566539518
0.0032333745128484944,0.053989170156579266
0.003234993628778814,0.053989170156579266
0.003234993628778814,0.05401584464776334
0.003236612744709134,0.05401584464776334
0.003236612744709134,0.05409586812131559
0.003243089208430413,0.05409586812131559
0.003243089208430413,0.05414921710368375
0.003254423019942651,0.05414921710368375
0.003254423019942651,0.054175891594867825
0.0032625185995942495,0.054175891594867825
0.003265756831454889,0.054175891594867825
0.003267375947385209,0.054175891594867825
0.003267375947385209,0.05420256608605191
0.0032689950633155284,0.05420256608605191
0.0032689950633155284,0.054229240577235986
0.0032754715270368073,0.054229240577235986
0.0032754715270368073,0.05425591506842007
0.003277090642967127,0.05425591506842007
0.003277090642967127,0.054282589559604154
0.003281947990758086,0.054282589559604154
0.003281947990758086,0.05430926405078823
0.003285186222618726,0.05430926405078823
0.003285186222618726,0.054335938541972315
0.003294900918200644,0.054335938541972315
0.003294900918200644,0.05436261303315639
0.0032981391500612836,0.05436261303315639
0.0032981391500612836,0.05441596201552455
0.0033013773819219228,0.05441596201552455
0.0033013773819219228,0.0544959854890768
0.003302996497852243,0.0544959854890768
0.003302996497852243,0.054522659980260874
0.003306234729712882,0.054522659980260874
0.003306234729712882,0.05454933447144496
0.003307853845643202,0.05454933447144496
0.0033110920775038413,0.05454933447144496
0.003314330309364481,0.05454933447144496
0.003314330309364481,0.05457600896262904
0.00331918765715544,0.05457600896262904
0.00331918765715544,0.05460268345381312
0.0033289023527373583,0.05460268345381312
0.0033289023527373583,0.05468270692736536
0.0033337597005283176,0.05468270692736536
0.0033337597005283176,0.05470938141854944
0.0033402361642495965,0.05470938141854944
0.0033402361642495965,0.05473605590973352
0.0033467126279708753,0.05473605590973352
0.0033467126279708753,0.0547627304009176
0.003354808207622474,0.0547627304009176
0.003354808207622474,0.05481607938328576
0.003356427323552794,0.05481607938328576
0.003356427323552794,0.054842753874469845
0.0033612846713437527,0.054842753874469845
0.0033612846713437527,0.054896102856838006
0.0033629037872740727,0.054896102856838006
0.0033629037872740727,0.05492277734802209
0.0033645229032043924,0.05492277734802209
0.0033645229032043924,0.05500280082157433
0.003366142019134712,0.05500280082157433
0.003366142019134712,0.05502947531275841
0.00337747583064695,0.05502947531275841
0.00337747583064695,0.05505614980394249
0.0033790949465772697,0.05505614980394249
0.0033790949465772697,0.05508282429512657
0.003392047874019828,0.05508282429512657
0.003392047874019828,0.05513617327749473
0.003395286105880467,0.05513617327749473
0.003395286105880467,0.05516284776867881
0.0034033816855320656,0.05516284776867881
0.0034033816855320656,0.05518952225986289
0.003416334612974624,0.05518952225986289
0.003416334612974624,0.05521619675104698
0.0034244301926262223,0.05521619675104698
0.0034244301926262223,0.055296220224599214
0.003430906656347501,0.055296220224599214
0.003430906656347501,0.05537624369815146
0.0034325257722778208,0.05537624369815146
0.0034325257722778208,0.05542959268051962
0.0034406213519294197,0.05542959268051962
0.0034406213519294197,0.055456267171703696
0.0034422404678597393,0.055456267171703696
0.0034422404678597393,0.05548294166288778
0.0034519551634416574,0.05548294166288778
0.0034519551634416574,0.055509616154071864
0.0034535742793719774,0.055509616154071864
0.0034535742793719774,0.05553629064525594
0.0034584316271629367,0.05553629064525594
0.0034584316271629367,0.055562965136440025
0.003461669859023576,0.055562965136440025
0.003461669859023576,0.0555896396276241
0.0034632889749538955,0.0555896396276241
0.0034632889749538955,0.055616314118808186
0.0034649080908842156,0.055616314118808186
0.0034649080908842156,0.05564298860999226
0.0034762419023964533,0.05564298860999226
0.0034762419023964533,0.05569633759236042
0.0034810992501874125,0.05569633759236042
0.0034810992501874125,0.05572301208354451
0.003484337482048052,0.05572301208354451
0.003484337482048052,0.055749686574728584
0.0034875757139086914,0.055749686574728584
0.0034875757139086914,0.05577636106591267
0.0035005286413512496,0.05577636106591267
0.0035005286413512496,0.05580303555709675
0.003502147757281569,0.05580303555709675
0.003502147757281569,0.05585638453946491
0.0035102433369331677,0.05585638453946491
0.0035102433369331677,0.05588305903064899
0.003515100684724127,0.05588305903064899
0.003515100684724127,0.055963082504201234
0.003521577148445406,0.055963082504201234
0.003521577148445406,0.05598975699538531
0.0035280536121666847,0.05598975699538531
0.0035280536121666847,0.056016431486569394
0.0035296727280970043,0.056016431486569394
0.0035296727280970043,0.056069780468937555
0.0035312918440273244,0.056069780468937555
0.0035312918440273244,0.056123129451305716
0.0035410065396092425,0.056123129451305716
0.0035410065396092425,0.056176478433673877
0.003544244771469882,0.056176478433673877
0.003544244771469882,0.05620315292485796
0.0035523403511214806,0.05620315292485796
0.0035523403511214806,0.05633652538077836
0.0035539594670518,0.05633652538077836
0.0035539594670518,0.05636319987196244
0.0035636741626337187,0.05636319987196244
0.0035636741626337187,0.0564165488543306
0.003568531510424678,0.0564165488543306
0.003568531510424678,0.05644322334551469
0.0035766270900762765,0.05644322334551469
0.0035766270900762765,0.056469897836698764
0.003592818249379474,0.056469897836698764
0.003592818249379474,0.05649657232788285
0.0035944373653097935,0.05649657232788285
0.0035944373653097935,0.056523246819066925
0.0035992947131007528,0.056523246819066925
0.0035992947131007528,0.056629944783803246
0.0036009138290310724,0.056629944783803246
0.0036009138290310724,0.05665661927498733
0.0036073902927523513,0.05665661927498733
0.0036073902927523513,0.05670996825735549
0.00361548587240395,0.05670996825735549
0.00361548587240395,0.056736642748539574
0.00361710498833427,0.056736642748539574
0.00361710498833427,0.05681666622209181
0.0036187241042645894,0.05681666622209181
0.0036187241042645894,0.056843340713275896
0.003626819683916188,0.056843340713275896
0.003626819683916188,0.05687001520445997
0.003638153495428426,0.05687001520445997
0.003638153495428426,0.05689668969564406
0.0036413917272890657,0.05689668969564406
0.0036413917272890657,0.05692336418682813
0.0036430108432193853,0.05692336418682813
0.0036430108432193853,0.056976713169196294
0.0036511064228709838,0.056976713169196294
0.0036511064228709838,0.05700338766038038
0.0036608211184529023,0.05700338766038038
0.0036608211184529023,0.05703006215156446
0.003664059350313542,0.05703006215156446
0.003664059350313542,0.05705673664274854
0.003667297582174181,0.05705673664274854
0.003667297582174181,0.05708341113393262
0.0036834887414773786,0.05708341113393262
0.0036834887414773786,0.05713676011630078
0.003688346089268338,0.05713676011630078
0.003688346089268338,0.057190109098668944
0.0036948225529896167,0.057190109098668944
0.0036948225529896167,0.057243458081037105
0.003702918132641215,0.057243458081037105
0.003702918132641215,0.057296807063405265
0.003704537248571535,0.057296807063405265
0.003704537248571535,0.05732348155458935
0.003709394596362494,0.05732348155458935
0.003709394596362494,0.057350156045773426
0.0037191092919444126,0.057350156045773426
0.0037191092919444126,0.05737683053695751
0.003722347523805052,0.05737683053695751
0.003722347523805052,0.05740350502814159
0.003727204871596011,0.05740350502814159
0.003727204871596011,0.05745685401050975
0.00373368133531729,0.05745685401050975
0.00373368133531729,0.05748352850169383
0.003741776914968889,0.05748352850169383
0.003741776914968889,0.05751020299287791
0.0037433960308992085,0.05751020299287791
0.0037433960308992085,0.05753687748406199
0.003751491610550807,0.05753687748406199
0.003751491610550807,0.05756355197524607
0.0037563489583417663,0.05756355197524607
0.0037563489583417663,0.05759022646643015
0.003757968074272086,0.05759022646643015
0.003757968074272086,0.05764357544879831
0.0037612063061327255,0.05764357544879831
0.0037612063061327255,0.057696924431166474
0.003769301885784324,0.057696924431166474
0.003769301885784324,0.05772359892235056
0.0037725401176449637,0.05772359892235056
0.0037725401176449637,0.05783029688708688
0.003775778349505603,0.05783029688708688
0.003775778349505603,0.05788364586945504
0.003783873929157202,0.05788364586945504
0.003783873929157202,0.0579369948518232
0.0037887312769481606,0.0579369948518232
0.0037887312769481606,0.057963669343007285
0.0037919695088088003,0.057963669343007285
0.0037919695088088003,0.05799034383419136
0.0038097797840423173,0.05799034383419136
0.0038097797840423173,0.05804369281655952
0.003811398899972637,0.05804369281655952
0.003811398899972637,0.05809704179892768
0.0038211135955545554,0.05809704179892768
0.0038211135955545554,0.05812371629011177
0.0038259709433455143,0.05812371629011177
0.0038259709433455143,0.05817706527247993
0.0038275900592758343,0.05817706527247993
0.0038275900592758343,0.05820373976366401
0.0038308282911364735,0.05820373976366401
0.0038308282911364735,0.05831043772840033
0.0038373047548577524,0.05831043772840033
0.0038373047548577524,0.05833711221958441
0.003840542986718392,0.05833711221958441
0.003840542986718392,0.058363786710768494
0.0038437812185790313,0.058363786710768494
0.0038437812185790313,0.05839046120195257
0.003847019450439671,0.05839046120195257
0.003847019450439671,0.058417135693136654
0.0038502576823003106,0.058417135693136654
0.0038502576823003106,0.05844381018432073
0.0038599723778822287,0.05844381018432073
0.0038599723778822287,0.0584971591666889
0.0038615914938125483,0.0584971591666889
0.0038615914938125483,0.05855050814905706
0.0038632106097428683,0.05855050814905706
0.0038632106097428683,0.058577182640241136
0.0038842591168370246,0.058577182640241136
0.0038842591168370246,0.05860385713142522
0.003885878232767344,0.05860385713142522
0.003885878232767344,0.0586305316226093
0.003889116464627984,0.0586305316226093
0.003889116464627984,0.05865720611379338
0.003893973812418943,0.05865720611379338
0.003893973812418943,0.05868388060497746
0.0038955929283492627,0.05868388060497746
0.0038955929283492627,0.05873722958734562
0.003900450276140222,0.05873722958734562
0.003900450276140222,0.0587639040785297
0.00391016497172214,0.0587639040785297
0.00391016497172214,0.058790578569713786
0.00391178408765246,0.058790578569713786
0.00391178408765246,0.05881725306089786
0.003916641435443419,0.05881725306089786
0.003916641435443419,0.05884392755208195
0.003919879667304059,0.05884392755208195
0.003919879667304059,0.058870602043266024
0.003923117899164698,0.058870602043266024
0.003923117899164698,0.058923951025634184
0.0039279752469556575,0.058923951025634184
0.0039279752469556575,0.05895062551681827
0.003939309058467896,0.05895062551681827
0.003939309058467896,0.058977300008002345
0.003957119333701412,0.058977300008002345
0.003957119333701412,0.059030648990370506
0.0039603575655620515,0.059030648990370506
0.0039603575655620515,0.05908399797273867
0.00397169137707429,0.05908399797273867
0.00397169137707429,0.05911067246392275
0.003973310493004609,0.05911067246392275
0.003973310493004609,0.059137346955106834
0.00397492960893493,0.059137346955106834
0.00397492960893493,0.05916402144629091
0.003997597231959405,0.05916402144629091
0.003997597231959405,0.05921737042865907
0.004005692811611004,0.05921737042865907
0.004005692811611004,0.05935074288457948
0.004008931043471643,0.05935074288457948
0.004008931043471643,0.05943076635813172
0.004010550159401964,0.05943076635813172
0.004010550159401964,0.0594574408493158
0.004025122202774841,0.0594574408493158
0.004025122202774841,0.05951078983168396
0.00402836043463548,0.05951078983168396
0.00402836043463548,0.05956413881405212
0.004038075130217399,0.05956413881405212
0.004038075130217399,0.05961748779642028
0.0040396942461477185,0.05961748779642028
0.0040396942461477185,0.059644162287604365
0.004041313362078038,0.059644162287604365
0.004041313362078038,0.05967083677878844
0.004042932478008358,0.05967083677878844
0.004042932478008358,0.05972418576115661
0.004052647173590276,0.05972418576115661
0.004052647173590276,0.05977753474352477
0.004054266289520596,0.05977753474352477
0.004054266289520596,0.05983088372589293
0.004055885405450915,0.05983088372589293
0.004055885405450915,0.05985755821707701
0.0040591236373115555,0.05985755821707701
0.004065600101032834,0.05985755821707701
0.004065600101032834,0.05988423270826109
0.004072076564754113,0.05988423270826109
0.004072076564754113,0.05991090719944517
0.004073695680684433,0.05991090719944517
0.004073695680684433,0.05996425618181333
0.004078553028475392,0.05996425618181333
0.004078553028475392,0.05999093067299741
0.004080172144405711,0.05999093067299741
0.004080172144405711,0.06004427965536557
0.004083410376266351,0.06004427965536557
0.004083410376266351,0.06007095414654966
0.004096363303708909,0.06007095414654966
0.004096363303708909,0.060097628637733734
0.004097982419639229,0.060097628637733734
0.004097982419639229,0.06012430312891782
0.004104458883360507,0.06012430312891782
0.004104458883360507,0.060150977620101895
0.004107697115221147,0.060150977620101895
0.004107697115221147,0.06017765211128598
0.004117411810803065,0.06017765211128598
0.004117411810803065,0.060257675584838216
0.004128745622315303,0.060257675584838216
0.004128745622315303,0.0602843500760223
0.004130364738245623,0.0602843500760223
0.004130364738245623,0.06033769905839046
0.004131983854175943,0.06033769905839046
0.004131983854175943,0.060364373549574545
0.004133602970106263,0.060364373549574545
0.004133602970106263,0.06039104804075862
0.00414979412940946,0.06039104804075862
0.00414979412940946,0.060417722531942705
0.004154651477200419,0.060417722531942705
0.004154651477200419,0.06049774600549494
0.004159508824991378,0.06049774600549494
0.004159508824991378,0.060551094987863104
0.004177319100224895,0.060551094987863104
0.004177319100224895,0.06057776947904719
0.004187033795806813,0.06057776947904719
0.004187033795806813,0.06060444397023127
0.004190272027667453,0.06060444397023127
0.004190272027667453,0.06063111846141535
0.004191891143597773,0.06063111846141535
0.004191891143597773,0.06065779295259943
0.004196748491388732,0.06065779295259943
0.004196748491388732,0.06068446744378351
0.004203224955110011,0.06068446744378351
0.004203224955110011,0.06076449091733575
0.00420970141883129,0.06076449091733575
0.00420970141883129,0.060817839899703914
0.004219416114413208,0.060817839899703914
0.004219416114413208,0.06084451439088799
0.004221035230343528,0.06084451439088799
0.004221035230343528,0.060871188882072075
0.004224273462204167,0.060871188882072075
0.004224273462204167,0.06089786337325615
0.004229130809995127,0.06089786337325615
0.004229130809995127,0.06095121235562432
0.0042420837374376845,0.06095121235562432
0.0042420837374376845,0.06100456133799248
0.004261513128601521,0.06100456133799248
0.004261513128601521,0.06103123582917656
0.004292276331277596,0.06103123582917656
0.004292276331277596,0.06108458481154472
0.0042938954472079155,0.06108458481154472
0.0042938954472079155,0.06119128277628104
0.004303610142789834,0.06119128277628104
0.004303610142789834,0.06129798074101737
0.004305229258720154,0.06129798074101737
0.004305229258720154,0.061324655232201444
0.004306848374650473,0.061324655232201444
0.004306848374650473,0.06135132972338553
0.004318182186162711,0.06135132972338553
0.004318182186162711,0.061378004214569605
0.00432627776581431,0.061378004214569605
0.00432627776581431,0.061431353196937766
0.004334373345465908,0.061431353196937766
0.004334373345465908,0.06145802768812185
0.004342468925117507,0.06145802768812185
0.004342468925117507,0.061484702179305926
0.004347326272908466,0.061484702179305926
0.004347326272908466,0.061538051161674094
0.004353802736629745,0.061538051161674094
0.004353802736629745,0.06156472565285817
0.004360279200351025,0.06156472565285817
0.004360279200351025,0.061591400144042255
0.004361898316281344,0.061591400144042255
0.004361898316281344,0.06161807463522633
0.004363517432211664,0.06161807463522633
0.004363517432211664,0.061644749126410416
0.0043651365481419836,0.061644749126410416
0.0043651365481419836,0.06167142361759449
0.004371613011863262,0.06167142361759449
0.004371613011863262,0.061698098108778576
0.0043813277074451805,0.061698098108778576
0.0043813277074451805,0.06175144709114674
0.004395899750818059,0.06175144709114674
0.004395899750818059,0.061778121582330814
0.004399137982678698,0.061778121582330814
0.004399137982678698,0.0618047960735149
0.004403995330469657,0.0618047960735149
0.004403995330469657,0.06185814505588306
0.004405614446399976,0.06185814505588306
0.004405614446399976,0.06188481954706714
0.004407233562330296,0.06188481954706714
0.004407233562330296,0.06191149403825122
0.0044088526782606165,0.06191149403825122
0.0044088526782606165,0.0619381685294353
0.004415329141981895,0.0619381685294353
0.004415329141981895,0.0620715409853557
0.0044169482579122146,0.0620715409853557
0.0044169482579122146,0.06217823895009203
0.004429901185354772,0.06217823895009203
0.004429901185354772,0.06225826242364427
0.0044412349968670104,0.06225826242364427
0.0044412349968670104,0.06231161140601243
0.004449330576518609,0.06231161140601243
0.004449330576518609,0.06233828589719651
0.004454187924309568,0.06233828589719651
0.004454187924309568,0.06236496038838059
0.004459045272100528,0.06236496038838059
0.004459045272100528,0.06239163487956467
0.0044606643880308475,0.06239163487956467
0.0044606643880308475,0.062418309370748756
0.004473617315473405,0.062418309370748756
0.004473617315473405,0.06247165835311692
0.004480093779194684,0.06247165835311692
0.004480093779194684,0.062498332844300994
0.004489808474776602,0.062498332844300994
0.004489808474776602,0.06252500733548508
0.004493046706637242,0.06252500733548508
0.004493046706637242,0.06255168182666916
0.004494665822567562,0.06255168182666916
0.004494665822567562,0.06257835631785323
0.004497904054428201,0.06257835631785323
0.004497904054428201,0.0626317053002214
0.004499523170358521,0.0626317053002214
0.004499523170358521,0.06265837979140548
0.004510856981870759,0.06265837979140548
0.004510856981870759,0.06268505428258955
0.0045124760978010785,0.06268505428258955
0.0045124760978010785,0.06271172877377364
0.004518952561522358,0.06271172877377364
0.004518952561522358,0.0627650777561418
0.004520571677452677,0.0627650777561418
0.004520571677452677,0.06279175224732589
0.004525429025243636,0.06279175224732589
0.004525429025243636,0.06281842673850996
0.004527048141173956,0.06281842673850996
0.004527048141173956,0.06284510122969404
0.0045480966482681125,0.06284510122969404
0.0045480966482681125,0.06289845021206221
0.004549715764198432,0.06289845021206221
0.004549715764198432,0.06292512470324628
0.004551334880128752,0.06292512470324628
0.004551334880128752,0.06297847368561445
0.004559430459780351,0.06297847368561445
0.004559430459780351,0.06300514817679853
0.0045642878075713095,0.06300514817679853
0.0045642878075713095,0.06308517165035077
0.00456752603943195,0.06308517165035077
0.00456752603943195,0.06311184614153485
0.004569145155362269,0.06311184614153485
0.004569145155362269,0.06313852063271894
0.004572383387222908,0.06313852063271894
0.004572383387222908,0.063165195123903
0.004577240735013868,0.063165195123903
0.004577240735013868,0.06324521859745526
0.004590193662456426,0.06324521859745526
0.004593431894317065,0.06324521859745526
0.0045999083580383435,0.06324521859745526
0.0045999083580383435,0.06327189308863933
0.004601527473968664,0.06327189308863933
0.004601527473968664,0.06335191656219158
0.004606384821759623,0.06335191656219158
0.004606384821759623,0.06337859105337566
0.004612861285480901,0.06337859105337566
0.004612861285480901,0.06340526554455973
0.0046274333288537795,0.06340526554455973
0.0046274333288537795,0.06343194003574382
0.004632290676644738,0.06343194003574382
0.004632290676644738,0.06348528901811198
0.004642005372226657,0.06348528901811198
0.004642005372226657,0.06351196350929605
0.004646862720017616,0.06351196350929605
0.004646862720017616,0.06356531249166422
0.004650100951878256,0.06356531249166422
0.004650100951878256,0.0635919869828483
0.004651720067808575,0.0635919869828483
0.004651720067808575,0.06361866147403239
0.004654958299669215,0.06361866147403239
0.004654958299669215,0.06364533596521646
0.004667911227111772,0.06364533596521646
0.004667911227111772,0.06367201045640054
0.004669530343042092,0.06367201045640054
0.004669530343042092,0.06369868494758463
0.004674387690833052,0.06369868494758463
0.004674387690833052,0.06372535943876871
0.004676006806763371,0.06372535943876871
0.004676006806763371,0.0638587318946891
0.004677625922693691,0.0638587318946891
0.004677625922693691,0.06388540638587319
0.00468086415455433,0.06388540638587319
0.00468086415455433,0.06393875536824135
0.004688959734205929,0.06393875536824135
0.004688959734205929,0.06396542985942544
0.004690578850136249,0.06396542985942544
0.004690578850136249,0.06399210435060951
0.004693817081996888,0.06399210435060951
0.004693817081996888,0.06401877884179359
0.0046954361979272075,0.06401877884179359
0.0046954361979272075,0.06404545333297768
0.004698674429787848,0.06404545333297768
0.004698674429787848,0.06407212782416176
0.004703531777578806,0.06407212782416176
0.004703531777578806,0.06412547680652991
0.0047148655890910445,0.06412547680652991
0.0047148655890910445,0.064152151297714
0.004716484705021364,0.064152151297714
0.004716484705021364,0.06417882578889808
0.004719722936882003,0.06417882578889808
0.004719722936882003,0.06423217477126623
0.004724580284672963,0.06423217477126623
0.004724580284672963,0.06425884926245032
0.004737533212115521,0.06425884926245032
0.004737533212115521,0.06431219824481849
0.0047391523280458404,0.06431219824481849
0.0047391523280458404,0.06433887273600256
0.00474239055990648,0.06433887273600256
0.00474239055990648,0.06439222171837072
0.004744009675836799,0.06439222171837072
0.004744009675836799,0.06441889620955481
0.004752105255488398,0.06441889620955481
0.004752105255488398,0.06447224519192296
0.004755343487349037,0.06447224519192296
0.004755343487349037,0.06449891968310704
0.004756962603279357,0.06449891968310704
0.004756962603279357,0.06455226866547521
0.004760200835139997,0.06455226866547521
0.004760200835139997,0.06457894315665928
0.004778011110373514,0.06457894315665928
0.004778011110373514,0.06460561764784337
0.004786106690025113,0.06460561764784337
0.004786106690025113,0.06465896663021153
0.004787725805955432,0.06465896663021153
0.004787725805955432,0.06471231561257969
0.0047909640378160714,0.06471231561257969
0.0047909640378160714,0.06473899010376377
0.0047942022696767115,0.06473899010376377
0.0047942022696767115,0.06476566459494786
0.004795821385607031,0.06476566459494786
0.004795821385607031,0.06479233908613193
0.004805536081188949,0.06479233908613193
0.004805536081188949,0.06484568806850009
0.004808774313049589,0.06484568806850009
0.004808774313049589,0.06487236255968418
0.004812012544910228,0.06487236255968418
0.004812012544910228,0.06489903705086826
0.004813631660840548,0.06489903705086826
0.004813631660840548,0.06492571154205233
0.004816869892701187,0.06492571154205233
0.004816869892701187,0.06495238603323641
0.004820108124561827,0.06495238603323641
0.004820108124561827,0.06500573501560458
0.004821727240492147,0.06500573501560458
0.004821727240492147,0.06508575848915682
0.004823346356422466,0.06508575848915682
0.004823346356422466,0.0651124329803409
0.004828203704213425,0.0651124329803409
0.004828203704213425,0.06513910747152499
0.004831441936074065,0.06513910747152499
0.004831441936074065,0.06516578196270906
0.004834680167934704,0.06516578196270906
0.004834680167934704,0.06519245645389314
0.004839537515725663,0.06519245645389314
0.004839537515725663,0.06521913094507722
0.004844394863516623,0.06521913094507722
0.004844394863516623,0.06524580543626131
0.0048460139794469425,0.06524580543626131
0.0048460139794469425,0.06527247992744538
0.004847633095377262,0.06527247992744538
0.004847633095377262,0.06529915441862946
0.004849252211307582,0.06529915441862946
0.004849252211307582,0.06532582890981355
0.004850871327237901,0.06532582890981355
0.004850871327237901,0.06543252687454987
0.004852490443168221,0.06543252687454987
0.004852490443168221,0.06545920136573395
0.004857347790959181,0.06545920136573395
0.004857347790959181,0.06548587585691804
0.0048589669068895,0.06548587585691804
0.0048589669068895,0.0655125503481021
0.00486058602281982,0.0655125503481021
0.00486058602281982,0.06553922483928619
0.004867062486541099,0.06553922483928619
0.004867062486541099,0.06556589933047027
0.004875158066192697,0.06556589933047027
0.004875158066192697,0.06559257382165436
0.004878396298053337,0.06559257382165436
0.004878396298053337,0.06564592280402251
0.0048816345299139766,0.06564592280402251
0.0048816345299139766,0.0656725972952066
0.004883253645844296,0.0656725972952066
0.004883253645844296,0.06569927178639068
0.004884872761774616,0.06569927178639068
0.004884872761774616,0.06572594627757476
0.004891349225495895,0.06572594627757476
0.004891349225495895,0.06575262076875883
0.004892968341426215,0.06575262076875883
0.004892968341426215,0.06577929525994292
0.004896206573286854,0.06577929525994292
0.004896206573286854,0.065805969751127
0.0048978256892171735,0.065805969751127
0.0048978256892171735,0.06591266771586332
0.004902683037008133,0.06591266771586332
0.004904302152938453,0.0659393422070474
0.004904302152938453,0.06596601669823147
0.0049059212688687725,0.06596601669823147
0.0049059212688687725,0.06599269118941556
0.004907540384799092,0.06599269118941556
0.004907540384799092,0.06604604017178373
0.0049140168485203705,0.06604604017178373
0.0049140168485203705,0.06607271466296781
0.004923731544102289,0.06607271466296781
0.004923731544102289,0.06609938915415188
0.004926969775962929,0.06609938915415188
0.004926969775962929,0.06612606364533596
0.004931827123753888,0.06612606364533596
0.004931827123753888,0.06615273813652005
0.004935065355614527,0.06615273813652005
0.004935065355614527,0.06623276161007229
0.004936684471544847,0.06623276161007229
0.004936684471544847,0.06625943610125637
0.004951256514917725,0.06625943610125637
0.004951256514917725,0.06628611059244045
0.004952875630848045,0.06628611059244045
0.004952875630848045,0.06631278508362452
0.004959352094569323,0.06631278508362452
0.004959352094569323,0.06636613406599269
0.004960971210499643,0.06636613406599269
0.004960971210499643,0.06639280855717677
0.004962590326429962,0.06639280855717677
0.004962590326429962,0.06644615753954493
0.004967447674220922,0.06644615753954493
0.004967447674220922,0.06647283203072901
0.0049739241379422,0.06647283203072901
0.0049739241379422,0.0664995065219131
0.00498040060166348,0.0664995065219131
0.00498040060166348,0.06652618101309718
0.004991734413175718,0.06652618101309718
0.004991734413175718,0.06655285550428125
0.004996591760966677,0.06655285550428125
0.004996591760966677,0.06657952999546533
0.005003068224687956,0.06657952999546533
0.005003068224687956,0.0666328789778335
0.0050095446884092345,0.0666328789778335
0.0050095446884092345,0.06665955346901759
0.005017640268060833,0.06665955346901759
0.005017640268060833,0.06671290245138574
0.005019259383991153,0.06671290245138574
0.005019259383991153,0.06673957694256982
0.005024116731782113,0.06673957694256982
0.005024116731782113,0.0667662514337539
0.005025735847712432,0.0667662514337539
0.005025735847712432,0.06679292592493798
0.0050289740795730715,0.06679292592493798
0.0050289740795730715,0.0668996238896743
0.005030593195503391,0.0668996238896743
0.005030593195503391,0.06692629838085838
0.00503383142736403,0.06692629838085838
0.00503383142736403,0.06695297287204247
0.00504030789108531,0.06695297287204247
0.00504030789108531,0.06697964736322655
0.005053260818527867,0.06697964736322655
0.005053260818527867,0.06700632185441063
0.005054879934458187,0.06700632185441063
0.005054879934458187,0.0670329963455947
0.005062975514109786,0.0670329963455947
0.005062975514109786,0.06705967083677879
0.0050645946300401055,0.06705967083677879
0.0050645946300401055,0.06708634532796287
0.005066213745970425,0.06708634532796287
0.005066213745970425,0.06713969431033102
0.0050726902096917045,0.06713969431033102
0.0050726902096917045,0.06719304329269919
0.005079166673412983,0.06719304329269919
0.005079166673412983,0.06724639227506736
0.005095357832716181,0.06724639227506736
0.005095357832716181,0.06727306676625143
0.005103453412367779,0.06727306676625143
0.005103453412367779,0.0673264157486196
0.005109929876089058,0.0673264157486196
0.005109929876089058,0.06737976473098775
0.005113168107949697,0.06737976473098775
0.005113168107949697,0.06743311371335592
0.005118025455740656,0.06743311371335592
0.005118025455740656,0.06745978820454
0.005121263687601296,0.06745978820454
0.005121263687601296,0.06751313718690816
0.005122882803531616,0.06751313718690816
0.005122882803531616,0.06756648616927632
0.0051245019194619355,0.06756648616927632
0.0051245019194619355,0.06759316066046041
0.005129359267252894,0.06759316066046041
0.005129359267252894,0.06761983515164448
0.005132597499113534,0.06761983515164448
0.005132597499113534,0.06764650964282856
0.005135835730974174,0.06764650964282856
0.005135835730974174,0.06767318413401265
0.005150407774347051,0.06767318413401265
0.005150407774347051,0.0677265331163808
0.00515526512213801,0.0677265331163808
0.00515526512213801,0.06775320760756488
0.0051601224699289695,0.06775320760756488
0.0051601224699289695,0.06777988209874897
0.005171456281441208,0.06777988209874897
0.005171456281441208,0.06783323108111713
0.005173075397371527,0.06783323108111713
0.005173075397371527,0.0678599055723012
0.0051763136292321665,0.0678599055723012
0.0051763136292321665,0.06788658006348529
0.005179551861092806,0.06788658006348529
0.005179551861092806,0.06791325455466937
0.005187647440744405,0.06791325455466937
0.005187647440744405,0.06799327802822161
0.005190885672605044,0.06799327802822161
0.005190885672605044,0.0680199525194057
0.005192504788535364,0.0680199525194057
0.005192504788535364,0.06809997599295793
0.005208695947838561,0.06809997599295793
0.005208695947838561,0.06812665048414202
0.005220029759350799,0.06812665048414202
0.005220029759350799,0.06817999946651018
0.005224887107141758,0.06817999946651018
0.005224887107141758,0.06820667395769425
0.005226506223072078,0.06820667395769425
0.005226506223072078,0.06823334844887834
0.0052313635708630376,0.06823334844887834
0.0052313635708630376,0.06826002294006242
0.005232982686793357,0.06826002294006242
0.005232982686793357,0.0682866974312465
0.005244316498305595,0.0682866974312465
0.005244316498305595,0.0684200698871669
0.0052475547301662345,0.0684200698871669
0.0052475547301662345,0.06844674437835098
0.005249173846096554,0.06844674437835098
0.005249173846096554,0.06847341886953506
0.0052556503098178334,0.06847341886953506
0.0052556503098178334,0.06852676785190323
0.005258888541678473,0.06852676785190323
0.005258888541678473,0.06858011683427138
0.005260507657608792,0.06858011683427138
0.005260507657608792,0.06860679132545547
0.005262126773539112,0.06860679132545547
0.005262126773539112,0.06863346581663955
0.0052637458894694315,0.06863346581663955
0.0052637458894694315,0.06866014030782362
0.005265365005399752,0.06866014030782362
0.005265365005399752,0.0686868147990077
0.005268603237260391,0.0686868147990077
0.005268603237260391,0.06874016378137587
0.005270222353190711,0.06874016378137587
0.005270222353190711,0.06876683827255996
0.00527184146912103,0.06876683827255996
0.00527184146912103,0.06882018725492811
0.00527507970098167,0.06882018725492811
0.00527507970098167,0.06887353623729628
0.00527831793284231,0.06887353623729628
0.00527831793284231,0.06890021072848035
0.005279937048772629,0.06890021072848035
0.005279937048772629,0.0689802342020326
0.005284794396563588,0.0689802342020326
0.005284794396563588,0.06900690869321667
0.005286413512493908,0.06900690869321667
0.005286413512493908,0.06903358318440075
0.005294509092145507,0.06903358318440075
0.005294509092145507,0.06906025767558484
0.0052993664399364655,0.06906025767558484
0.0052993664399364655,0.06908693216676892
0.005304223787727425,0.06908693216676892
0.005304223787727425,0.069113606657953
0.005312319367379023,0.069113606657953
0.005312319367379023,0.06916695564032116
0.005317176715169983,0.06916695564032116
0.005317176715169983,0.06919363013150524
0.005320414947030622,0.06919363013150524
0.005320414947030622,0.06922030462268933
0.005322034062960942,0.06922030462268933
0.005322034062960942,0.0692469791138734
0.005323653178891261,0.0692469791138734
0.005323653178891261,0.06932700258742565
0.0053268914107519015,0.06932700258742565
0.0053268914107519015,0.06935367707860973
0.0053349869904034996,0.06935367707860973
0.0053349869904034996,0.0693803515697938
0.00533660610633382,0.0693803515697938
0.00533660610633382,0.06940702606097789
0.00533822522226414,0.06940702606097789
0.00533822522226414,0.06946037504334605
0.005341463454124779,0.06946037504334605
0.005341463454124779,0.06948704953453012
0.005352797265637017,0.06948704953453012
0.005352797265637017,0.06954039851689829
0.005357654613427976,0.06954039851689829
0.005357654613427976,0.06964709648163461
0.0053592737293582954,0.06964709648163461
0.0053592737293582954,0.0696737709728187
0.0053625119612189355,0.0696737709728187
0.0053625119612189355,0.06970044546400278
0.005364131077149255,0.06970044546400278
0.005367369309009894,0.06970044546400278
0.005370607540870534,0.06970044546400278
0.005370607540870534,0.06972711995518685
0.005373845772731174,0.06972711995518685
0.005373845772731174,0.06978046893755502
0.005375464888661493,0.06978046893755502
0.005375464888661493,0.06983381791992317
0.005380322236452452,0.06983381791992317
0.005380322236452452,0.06986049241110726
0.0053948942798253295,0.06986049241110726
0.0053948942798253295,0.06988716690229134
0.005401370743546609,0.06988716690229134
0.005401370743546609,0.06996719037584358
0.005402989859476928,0.06996719037584358
0.005402989859476928,0.07002053935821174
0.005412704555058847,0.07002053935821174
0.005412704555058847,0.07004721384939583
0.005415942786919486,0.07004721384939583
0.005415942786919486,0.0700738883405799
0.005419181018780125,0.0700738883405799
0.005419181018780125,0.07010056283176398
0.0054224192506407655,0.07010056283176398
0.0054224192506407655,0.07012723732294807
0.005425657482501405,0.07012723732294807
0.005425657482501405,0.07015391181413215
0.005427276598431724,0.07015391181413215
0.005427276598431724,0.07018058630531622
0.005438610409943962,0.07018058630531622
0.005438610409943962,0.0702072607965003
0.005440229525874282,0.0702072607965003
0.005440229525874282,0.07023393528768439
0.005441848641804602,0.07023393528768439
0.005441848641804602,0.07031395876123663
0.005448325105525881,0.07031395876123663
0.005448325105525881,0.07034063325242071
0.0054580398011077995,0.07034063325242071
0.0054580398011077995,0.07044733121715703
0.005467754496689717,0.07044733121715703
0.005467754496689717,0.07047400570834111
0.005470992728550357,0.07047400570834111
0.005470992728550357,0.0705006801995252
0.0054742309604109965,0.0705006801995252
0.0054742309604109965,0.07052735469070927
0.005477469192271636,0.07052735469070927
0.005477469192271636,0.07055402918189335
0.005480707424132275,0.07055402918189335
0.005480707424132275,0.07058070367307744
0.005483945655992915,0.07058070367307744
0.005483945655992915,0.07060737816426152
0.0054936603515748335,0.07060737816426152
0.0054936603515748335,0.0706340526554456
0.005495279467505153,0.0706340526554456
0.005495279467505153,0.07066072714662967
0.005496898583435473,0.07066072714662967
0.005496898583435473,0.07071407612899784
0.005498517699365792,0.07071407612899784
0.005498517699365792,0.070767425111366
0.005501755931226432,0.070767425111366
0.005501755931226432,0.07079409960255008
0.005503375047156751,0.07079409960255008
0.005503375047156751,0.07084744858491825
0.005504994163087071,0.07084744858491825
0.005504994163087071,0.07087412307610233
0.0055098515108780305,0.07087412307610233
0.0055098515108780305,0.0709007975672864
0.00551308974273867,0.0709007975672864
0.00551308974273867,0.07092747205847048
0.005517947090529629,0.07092747205847048
0.005517947090529629,0.07095414654965457
0.005519566206459949,0.07095414654965457
0.005519566206459949,0.07106084451439089
0.005524423554250908,0.07106084451439089
0.005524423554250908,0.0711942169703113
0.005529280902041867,0.0711942169703113
0.005529280902041867,0.07122089146149538
0.005530900017972187,0.07122089146149538
0.005530900017972187,0.07124756595267945
0.005534138249832826,0.07124756595267945
0.005534138249832826,0.07130091493504762
0.005537376481693466,0.07130091493504762
0.005537376481693466,0.07138093840859985
0.005540614713554105,0.07138093840859985
0.005543852945414745,0.07138093840859985
0.005543852945414745,0.07143428739096802
0.005550329409136023,0.07143428739096802
0.005550329409136023,0.0714609618821521
0.005555186756926983,0.0714609618821521
0.005555186756926983,0.07148763637333617
0.005566520568439221,0.07148763637333617
0.005566520568439221,0.07151431086452026
0.005568139684369541,0.07151431086452026
0.005568139684369541,0.07156765984688843
0.00556975880029986,0.07156765984688843
0.00556975880029986,0.0715943343380725
0.0055729970321605,0.0715943343380725
0.0055729970321605,0.07162100882925658
0.005589188191463697,0.07162100882925658
0.005589188191463697,0.07167435781162475
0.005592426423324337,0.07167435781162475
0.005592426423324337,0.07170103230280882
0.0056053793507668944,0.07170103230280882
0.0056053793507668944,0.0717277067939929
0.005606998466697214,0.0717277067939929
0.005606998466697214,0.07175438128517699
0.005611855814488173,0.07175438128517699
0.005611855814488173,0.07178105577636107
0.0056134749304184925,0.07178105577636107
0.0056134749304184925,0.07183440475872922
0.005616713162279133,0.07183440475872922
0.005616713162279133,0.07188775374109739
0.005634523437512649,0.07188775374109739
0.005634523437512649,0.07191442823228147
0.005636142553442969,0.07191442823228147
0.005636142553442969,0.07194110272346554
0.005637761669373288,0.07194110272346554
0.005637761669373288,0.07199445170583371
0.005639380785303609,0.07199445170583371
0.005639380785303609,0.0720211261970178
0.0056409999012339285,0.0720211261970178
0.0056409999012339285,0.07204780068820187
0.005644238133094568,0.07204780068820187
0.005644238133094568,0.07210114967057003
0.005645857249024887,0.07210114967057003
0.005645857249024887,0.07212782416175412
0.005652333712746167,0.07212782416175412
0.005652333712746167,0.07218117314412227
0.005655571944606806,0.07218117314412227
0.005655571944606806,0.07220784763530635
0.005670143987979683,0.07220784763530635
0.005670143987979683,0.07223452212649044
0.005675001335770643,0.07223452212649044
0.005675001335770643,0.07226119661767452
0.0056766204517009625,0.07226119661767452
0.0056766204517009625,0.07228787110885859
0.005681477799491921,0.07228787110885859
0.005681477799491921,0.072421243564779
0.00568957337914352,0.072421243564779
0.00568957337914352,0.07244791805596308
0.005694430726934479,0.07244791805596308
0.005694430726934479,0.07250126703833125
0.005699288074725439,0.07250126703833125
0.005699288074725439,0.07252794152951532
0.005704145422516398,0.07252794152951532
0.005704145422516398,0.0725546160206994
0.0057122410021679965,0.0725546160206994
0.0057122410021679965,0.07258129051188349
0.005713860118098316,0.07258129051188349
0.005713860118098316,0.07260796500306757
0.005720336581819595,0.07260796500306757
0.005720336581819595,0.07263463949425164
0.005723574813680235,0.07263463949425164
0.005723574813680235,0.07268798847661981
0.005726813045540874,0.07268798847661981
0.005726813045540874,0.07271466296780389
0.005733289509262152,0.07271466296780389
0.005733289509262152,0.07276801195017205
0.005738146857053112,0.07276801195017205
0.005738146857053112,0.07279468644135613
0.005739765972983432,0.07279468644135613
