fpr,tpr
0.0,0.0
1.6965830816735095e-05,0.0
3.393166163347019e-05,0.0
3.393166163347019e-05,0.00031969309462915604
6.786332326694038e-05,0.00031969309462915604
6.786332326694038e-05,0.0009590792838874681
8.482915408367548e-05,0.0009590792838874681
8.482915408367548e-05,0.00159846547314578
0.00010179498490041057,0.00159846547314578
0.00010179498490041057,0.002237851662404092
0.00011876081571714567,0.002237851662404092
0.00011876081571714567,0.006074168797953964
0.00016965830816735095,0.006074168797953964
0.00016965830816735095,0.008631713554987212
0.00020358996980082114,0.008631713554987212
0.00020358996980082114,0.009271099744245524
0.00022055580061755624,0.009271099744245524
0.00022055580061755624,0.009910485933503837
0.00023752163143429133,0.009910485933503837
0.00023752163143429133,0.010869565217391304
0.0002714532930677615,0.010869565217391304
0.0002714532930677615,0.011508951406649617
0.0002884191238844966,0.011508951406649617
0.0002884191238844966,0.011828644501278773
0.0003053849547012317,0.011828644501278773
0.0003053849547012317,0.01278772378516624
0.0003223507855179668,0.01278772378516624
0.0003223507855179668,0.014066496163682864
0.0003393166163347019,0.014066496163682864
0.0003393166163347019,0.01694373401534527
0.000356282447151437,0.01694373401534527
0.000356282447151437,0.01758312020460358
0.0003732482779681721,0.01758312020460358
0.0003732482779681721,0.017902813299232736
0.0003902141087849072,0.017902813299232736
0.0003902141087849072,0.01854219948849105
0.0004241457704183774,0.01854219948849105
0.0004241457704183774,0.018861892583120203
0.0004411116012351125,0.018861892583120203
0.0004411116012351125,0.019501278772378516
0.00047504326286858267,0.019501278772378516
0.00047504326286858267,0.02014066496163683
0.000525940755318788,0.02014066496163683
0.000525940755318788,0.020460358056265986
0.000542906586135523,0.020460358056265986
0.000542906586135523,0.021099744245524295
0.0005598724169522582,0.021099744245524295
0.0005598724169522582,0.022058823529411766
0.0005768382477689932,0.022058823529411766
0.0005768382477689932,0.02237851662404092
0.0005938040785857284,0.02237851662404092
0.0005938040785857284,0.023017902813299233
0.0006107699094024634,0.023017902813299233
0.0006107699094024634,0.023337595907928388
0.0006616674018526688,0.023337595907928388
0.0006616674018526688,0.023657289002557546
0.000695599063486139,0.023657289002557546
0.000695599063486139,0.025255754475703326
0.0007295307251196091,0.025255754475703326
0.0007295307251196091,0.02557544757033248
0.0007464965559363442,0.02557544757033248
0.0007464965559363442,0.02589514066496164
0.0007634623867530793,0.02589514066496164
0.0007634623867530793,0.026534526854219948
0.0007804282175698144,0.026534526854219948
0.0007804282175698144,0.029092071611253198
0.0007973940483865495,0.029092071611253198
0.0007973940483865495,0.03037084398976982
0.0008143598792032846,0.03037084398976982
0.0008143598792032846,0.03132992327365729
0.0008313257100200197,0.03132992327365729
0.0008313257100200197,0.0319693094629156
0.0008482915408367548,0.0319693094629156
0.0008482915408367548,0.03228900255754476
0.000882223202470225,0.03228900255754476
0.000882223202470225,0.03324808184143223
0.0008991890332869601,0.03324808184143223
0.0008991890332869601,0.03356777493606138
0.0009331206949204303,0.03356777493606138
0.0009331206949204303,0.03420716112531969
0.0009670523565539005,0.03420716112531969
0.0009670523565539005,0.03740409207161125
0.0010349156798208409,0.03740409207161125
0.0010349156798208409,0.03836317135549872
0.001068847341454311,0.03836317135549872
0.001068847341454311,0.03868286445012788
0.001085813172271046,0.03868286445012788
0.001085813172271046,0.0399616368286445
0.0011197448339045164,0.0399616368286445
0.0011197448339045164,0.041879795396419436
0.0011367106647212513,0.041879795396419436
0.0011367106647212513,0.04219948849104859
0.0011706423263547216,0.04219948849104859
0.0011706423263547216,0.04283887468030691
0.0011876081571714568,0.04283887468030691
0.0011876081571714568,0.043478260869565216
0.0012554714804383972,0.043478260869565216
0.0012554714804383972,0.04379795396419437
0.001272437311255132,0.04379795396419437
0.001272437311255132,0.04475703324808184
0.0012894031420718672,0.04475703324808184
0.0012894031420718672,0.045076726342710996
0.0013403006345220725,0.045076726342710996
0.0013403006345220725,0.04571611253196931
0.0013572664653388076,0.04571611253196931
0.0013572664653388076,0.04603580562659847
0.001391198126972278,0.04603580562659847
0.001391198126972278,0.04731457800511509
0.0014081639577890129,0.04731457800511509
0.0014081639577890129,0.047634271099744246
0.001425129788605748,0.047634271099744246
0.001425129788605748,0.0479539641943734
0.0014420956194224831,0.0479539641943734
0.0014420956194224831,0.048273657289002556
0.0014760272810559532,0.048273657289002556
0.0014760272810559532,0.04859335038363171
0.0014929931118726884,0.04859335038363171
0.0014929931118726884,0.04955242966751918
0.0015099589426894235,0.04955242966751918
0.0015099589426894235,0.049872122762148335
0.001577822265956364,0.049872122762148335
0.001577822265956364,0.051470588235294115
0.001594788096773099,0.051470588235294115
0.001594788096773099,0.05179028132992328
0.0016456855892233043,0.05179028132992328
0.0016456855892233043,0.052429667519181586
0.0016796172508567744,0.052429667519181586
0.0016796172508567744,0.053069053708439895
0.0017305147433069798,0.053069053708439895
0.0017305147433069798,0.053388746803069057
0.0017474805741237148,0.053388746803069057
0.0017474805741237148,0.05370843989769821
0.00176444640494045,0.05370843989769821
0.00176444640494045,0.05434782608695652
0.0017983780665739202,0.05434782608695652
0.0017983780665739202,0.055626598465473145
0.0018662413898408606,0.055626598465473145
0.0018662413898408606,0.0559462915601023
0.0018832072206575955,0.0559462915601023
0.0018832072206575955,0.05690537084398977
0.0019001730514743307,0.05690537084398977
0.0019001730514743307,0.057225063938618925
0.0019171388822910658,0.057225063938618925
0.0019171388822910658,0.05754475703324808
0.0019680363747412713,0.05754475703324808
0.0019680363747412713,0.058184143222506396
0.001985002205558006,0.058184143222506396
0.001985002205558006,0.058823529411764705
0.0020189338671914763,0.058823529411764705
0.0020189338671914763,0.05914322250639386
0.002154660513725357,0.05914322250639386
0.002154660513725357,0.05946291560102302
0.0021885921753588273,0.05946291560102302
0.0021885921753588273,0.060421994884910485
0.0022055580061755625,0.060421994884910485
0.0022055580061755625,0.062020460358056265
0.0022225238369922976,0.062020460358056265
0.0022225238369922976,0.06234015345268542
0.002239489667809033,0.06234015345268542
0.002239489667809033,0.06265984654731457
0.0022734213294425027,0.06265984654731457
0.0022734213294425027,0.06297953964194374
0.002290387160259238,0.06297953964194374
0.002324318821892708,0.06297953964194374
0.002324318821892708,0.06521739130434782
0.0023582504835261784,0.06521739130434782
0.0023582504835261784,0.06553708439897699
0.0023582504835261784,0.0661764705882353
0.0023582504835261784,0.06777493606138107
0.0024091479759763834,0.06777493606138107
0.0024091479759763834,0.06873401534526855
0.002477011299243324,0.06873401534526855
0.002477011299243324,0.07161125319693094
0.0025109429608767943,0.07161125319693094
0.0025109429608767943,0.07320971867007672
0.0025788062841437345,0.07320971867007672
0.0025788062841437345,0.07384910485933503
0.0025957721149604696,0.07384910485933503
0.0025957721149604696,0.0748081841432225
0.0026127379457772048,0.0748081841432225
0.0026127379457772048,0.07640664961636828
0.00262970377659394,0.07640664961636828
0.00262970377659394,0.07672634271099744
0.00266363543822741,0.07672634271099744
0.00266363543822741,0.07768542199488492
0.002680601269044145,0.07768542199488492
0.002680601269044145,0.07800511508951406
0.0027654304231278207,0.07800511508951406
0.0027654304231278207,0.07832480818414322
0.0027993620847612906,0.07832480818414322
0.0027993620847612906,0.07896419437340153
0.002833293746394761,0.07896419437340153
0.002833293746394761,0.07960358056265984
0.002850259577211496,0.07960358056265984
0.002850259577211496,0.08024296675191815
0.002867225408028231,0.08024296675191815
0.002867225408028231,0.08056265984654731
0.0028841912388449663,0.08056265984654731
0.0028841912388449663,0.08088235294117647
0.0029011570696617014,0.08088235294117647
0.0029011570696617014,0.08120204603580562
0.0029859862237453768,0.08120204603580562
0.0029859862237453768,0.08184143222506395
0.003002952054562112,0.08184143222506395
0.003002952054562112,0.08343989769820973
0.003036883716195582,0.08343989769820973
0.003036883716195582,0.08439897698209718
0.003070815377829052,0.08439897698209718
0.003070815377829052,0.08471867007672634
0.0030877812086457872,0.08471867007672634
0.0030877812086457872,0.08599744245524296
0.0031047470394625224,0.08599744245524296
0.0031047470394625224,0.08695652173913043
0.0031386787010959927,0.08695652173913043
0.0031386787010959927,0.0879156010230179
0.003155644531912728,0.0879156010230179
0.003155644531912728,0.08823529411764706
0.003172610362729463,0.08823529411764706
0.003172610362729463,0.08951406649616368
0.0032744053476298734,0.08951406649616368
0.0032744053476298734,0.09015345268542199
0.0032744053476298734,0.09047314578005115
0.0033083370092633437,0.09047314578005115
0.0033083370092633437,0.09111253196930946
0.003325302840080079,0.09111253196930946
0.003325302840080079,0.09143222506393862
0.003342268670896814,0.09143222506393862
0.003342268670896814,0.09175191815856777
0.0033592345017135487,0.09175191815856777
0.0033592345017135487,0.09207161125319693
0.003393166163347019,0.09207161125319693
0.003393166163347019,0.09239130434782608
0.003410131994163754,0.09239130434782608
0.003410131994163754,0.09271099744245524
0.0034270978249804893,0.09271099744245524
0.0034270978249804893,0.09335038363171355
0.0034610294866139596,0.09335038363171355
0.0034610294866139596,0.09430946291560102
0.0034949611482474295,0.09430946291560102
0.0034949611482474295,0.09494884910485933
0.0035288928098809,0.09494884910485933
0.0035288928098809,0.09686700767263427
0.00356282447151437,0.09686700767263427
0.00356282447151437,0.09750639386189258
0.0035797903023311053,0.09750639386189258
0.0035797903023311053,0.09814578005115089
0.0036137219639645756,0.09814578005115089
0.0036137219639645756,0.09974424552429667
0.003698551118048251,0.09974424552429667
0.003698551118048251,0.10006393861892583
0.003715516948864986,0.10006393861892583
0.003715516948864986,0.100383631713555
0.003732482779681721,0.100383631713555
0.003732482779681721,0.10166240409207161
0.003766414441315191,0.10166240409207161
0.003766414441315191,0.10198209718670077
0.0038003461029486613,0.10198209718670077
0.0038003461029486613,0.10230179028132992
0.0038342777645821316,0.10230179028132992
0.0038342777645821316,0.10294117647058823
0.003885175257032337,0.10294117647058823
0.003885175257032337,0.10358056265984655
0.003919106918665807,0.10358056265984655
0.003919106918665807,0.10453964194373401
0.0039360727494825425,0.10453964194373401
0.0039360727494825425,0.10485933503836317
0.003970004411116012,0.10485933503836317
0.003970004411116012,0.10517902813299233
0.0039869702419327475,0.10517902813299233
0.0039869702419327475,0.10549872122762148
0.004105731057649893,0.10549872122762148
0.004105731057649893,0.10645780051150895
0.004122696888466628,0.10645780051150895
0.004122696888466628,0.10773657289002557
0.004156628550100098,0.10773657289002557
0.004156628550100098,0.10869565217391304
0.004173594380916834,0.10869565217391304
0.004173594380916834,0.1090153452685422
0.0041905602117335685,0.1090153452685422
0.0041905602117335685,0.10965473145780051
0.004309321027450714,0.10965473145780051
0.004309321027450714,0.10997442455242967
0.004343252689084184,0.10997442455242967
0.004343252689084184,0.11029411764705882
0.00436021851990092,0.11029411764705882
0.00436021851990092,0.11061381074168798
0.004377184350717655,0.11061381074168798
0.004377184350717655,0.11093350383631713
0.004445047673984595,0.11093350383631713
0.004445047673984595,0.11157289002557545
0.004546842658885005,0.11157289002557545
0.004546842658885005,0.11221227621483376
0.004563808489701741,0.11221227621483376
0.004563808489701741,0.11285166240409207
0.004580774320518476,0.11285166240409207
0.004580774320518476,0.11317135549872123
0.004614705982151946,0.11317135549872123
0.004614705982151946,0.11349104859335038
0.0046316718129686815,0.11349104859335038
0.0046316718129686815,0.11381074168797954
0.0046825693054188865,0.11381074168797954
0.0046825693054188865,0.11445012787723785
0.004716500967052357,0.11445012787723785
0.004716500967052357,0.11476982097186701
0.004767398459502562,0.11476982097186701
0.004767398459502562,0.11508951406649616
0.004801330121136032,0.11508951406649616
0.004835261782769502,0.11508951406649616
0.004835261782769502,0.11572890025575447
0.004869193444402973,0.11572890025575447
0.004869193444402973,0.11604859335038363
0.004954022598486648,0.11604859335038363
0.004954022598486648,0.1170076726342711
0.004987954260120118,0.1170076726342711
0.004987954260120118,0.11732736572890026
0.005021885921753589,0.11732736572890026
0.005021885921753589,0.11764705882352941
0.005038851752570323,0.11764705882352941
0.005038851752570323,0.11796675191815857
0.005106715075837264,0.11796675191815857
0.005106715075837264,0.11828644501278772
0.005157612568287469,0.11828644501278772
0.005157612568287469,0.11956521739130435
0.0051745783991042045,0.11956521739130435
0.0051745783991042045,0.1198849104859335
0.005242441722371144,0.1198849104859335
0.005242441722371144,0.12020460358056266
0.00525940755318788,0.12020460358056266
0.00525940755318788,0.12052429667519182
0.0053781683689050255,0.12052429667519182
0.0053781683689050255,0.12084398976982097
0.00539513419972176,0.12084398976982097
0.00539513419972176,0.12276214833759591
0.0054290658613552305,0.12276214833759591
0.0054290658613552305,0.12308184143222506
0.005446031692171966,0.12308184143222506
0.005446031692171966,0.12468030690537084
0.0054799633538054355,0.12468030690537084
0.0054799633538054355,0.125
0.005581758338705846,0.125
0.005581758338705846,0.12531969309462915
0.005615690000339317,0.12531969309462915
0.005615690000339317,0.12563938618925832
0.005700519154422992,0.12563938618925832
0.005700519154422992,0.1265984654731458
0.005734450816056462,0.1265984654731458
0.005734450816056462,0.1272378516624041
0.005768382477689933,0.1272378516624041
0.005768382477689933,0.1278772378516624
0.005785348308506667,0.1278772378516624
0.005785348308506667,0.1285166240409207
0.005802314139323403,0.1285166240409207
0.005802314139323403,0.12915601023017903
0.005836245800956873,0.12915601023017903
0.005836245800956873,0.12947570332480818
0.005988938278307489,0.12947570332480818
0.005988938278307489,0.12979539641943735
0.006005904109124224,0.12979539641943735
0.006005904109124224,0.13139386189258312
0.0060228699399409585,0.13139386189258312
0.006056801601574429,0.13139386189258312
0.006056801601574429,0.13171355498721227
0.0061755624172915745,0.13171355498721227
0.0061755624172915745,0.13267263427109974
0.00619252824810831,0.13267263427109974
0.00619252824810831,0.1336317135549872
0.00622645990974178,0.1336317135549872
0.00622645990974178,0.13395140664961636
0.006277357402191985,0.13395140664961636
0.006277357402191985,0.13427109974424553
0.006379152387092396,0.13427109974424553
0.006379152387092396,0.13459079283887468
0.006396118217909131,0.13459079283887468
0.006396118217909131,0.13491048593350383
0.006413084048725866,0.13491048593350383
0.006413084048725866,0.135230179028133
0.006447015710359336,0.135230179028133
0.006447015710359336,0.13554987212276215
0.006480947371992806,0.13554987212276215
0.006480947371992806,0.1358695652173913
0.006497913202809542,0.1358695652173913
0.006497913202809542,0.13650895140664962
0.006565776526076482,0.13650895140664962
0.006565776526076482,0.13682864450127877
0.006599708187709952,0.13682864450127877
0.006599708187709952,0.13714833759590792
0.0066675715109768925,0.13714833759590792
0.0066675715109768925,0.1374680306905371
0.0067184690034270975,0.1374680306905371
0.0067184690034270975,0.13778772378516624
0.006752400665060568,0.13778772378516624
0.006752400665060568,0.1387468030690537
0.006769366495877303,0.1387468030690537
0.006769366495877303,0.13938618925831203
0.006803298157510774,0.13938618925831203
0.006803298157510774,0.13970588235294118
0.006837229819144243,0.13970588235294118
0.006837229819144243,0.14034526854219948
0.006888127311594449,0.14034526854219948
0.006888127311594449,0.1409846547314578
0.006905093142411184,0.1409846547314578
0.006905093142411184,0.14130434782608695
0.006922058973227919,0.14130434782608695
0.006922058973227919,0.14194373401534527
0.007006888127311595,0.14194373401534527
0.007006888127311595,0.14226342710997442
0.007023853958128329,0.14226342710997442
0.007023853958128329,0.14290281329923274
0.00712564894302874,0.14290281329923274
0.00712564894302874,0.1432225063938619
0.007142614773845475,0.1432225063938619
0.007142614773845475,0.14354219948849106
0.0071595806046622105,0.14354219948849106
0.0071595806046622105,0.1438618925831202
0.007244409758745886,0.1438618925831202
0.007244409758745886,0.14418158567774936
0.007312273082012826,0.14418158567774936
0.007312273082012826,0.1445012787723785
0.0073631705744630314,0.1445012787723785
0.0073631705744630314,0.14514066496163683
0.007380136405279766,0.14514066496163683
0.007380136405279766,0.14546035805626598
0.0074140680669132365,0.14546035805626598
0.0074140680669132365,0.14578005115089515
0.007431033897729972,0.14578005115089515
0.007431033897729972,0.14641943734015345
0.007498897220996913,0.14641943734015345
0.007498897220996913,0.14673913043478262
0.007515863051813647,0.14673913043478262
0.007515863051813647,0.14737851662404092
0.007532828882630382,0.14737851662404092
0.007532828882630382,0.14769820971867006
0.007549794713447118,0.14769820971867006
0.007549794713447118,0.14801790281329924
0.007566760544263852,0.14801790281329924
0.007566760544263852,0.1483375959079284
0.007617658036714058,0.1483375959079284
0.007617658036714058,0.14865728900255754
0.0077024871907977336,0.14865728900255754
0.0077024871907977336,0.1489769820971867
0.007753384683247939,0.1489769820971867
0.007753384683247939,0.149616368286445
0.00799090631468223,0.149616368286445
0.00799090631468223,0.14993606138107418
0.0080248379763157,0.14993606138107418
0.0080248379763157,0.15025575447570333
0.008041803807132436,0.15025575447570333
0.008041803807132436,0.1512148337595908
0.008075735468765905,0.1512148337595908
0.008075735468765905,0.15153452685421995
0.008109667130399376,0.15153452685421995
0.008109667130399376,0.15217391304347827
0.00812663296121611,0.15217391304347827
0.00812663296121611,0.15249360613810742
0.008279325438566727,0.15249360613810742
0.008279325438566727,0.15313299232736574
0.008296291269383462,0.15313299232736574
0.008296291269383462,0.1534526854219949
0.008313257100200196,0.1534526854219949
0.008313257100200196,0.15377237851662404
0.008347188761833668,0.15377237851662404
0.008347188761833668,0.15409207161125318
0.008465949577550813,0.15409207161125318
0.008465949577550813,0.15441176470588236
0.008567744562451223,0.15441176470588236
0.008567744562451223,0.15505115089514065
0.008584710393267959,0.15505115089514065
0.008584710393267959,0.15537084398976983
0.008686505378168369,0.15537084398976983
0.008686505378168369,0.15601023017902813
0.008703471208985104,0.15601023017902813
0.008703471208985104,0.1569693094629156
0.00872043703980184,0.1569693094629156
0.00872043703980184,0.15728900255754474
0.00875436870143531,0.15728900255754474
0.00875436870143531,0.15760869565217392
0.008788300363068779,0.15760869565217392
0.008788300363068779,0.15792838874680307
0.00885616368633572,0.15792838874680307
0.00885616368633572,0.15824808184143221
0.00892402700960266,0.15824808184143221
0.00892402700960266,0.1585677749360614
0.008974924502052865,0.1585677749360614
0.008974924502052865,0.15888746803069054
0.009110651148586746,0.15888746803069054
0.009110651148586746,0.15920716112531969
0.009127616979403482,0.15920716112531969
0.009127616979403482,0.159846547314578
0.009161548641036951,0.159846547314578
0.009161548641036951,0.16016624040920716
0.009178514471853687,0.16016624040920716
0.009178514471853687,0.1604859335038363
0.009212446133487156,0.1604859335038363
0.009212446133487156,0.16080562659846548
0.009483899426554919,0.16080562659846548
0.009517831088188388,0.16080562659846548
0.009568728580638593,0.16080562659846548
0.009568728580638593,0.16112531969309463
0.009636591903905534,0.16112531969309463
0.009636591903905534,0.16144501278772377
0.009704455227172474,0.16144501278772377
0.009704455227172474,0.16176470588235295
0.009738386888805945,0.16176470588235295
0.009738386888805945,0.1620843989769821
0.009857147704523091,0.1620843989769821
0.009857147704523091,0.16240409207161124
0.009958942689423501,0.16240409207161124
0.009958942689423501,0.16304347826086957
0.009975908520240237,0.16304347826086957
0.009975908520240237,0.16336317135549872
0.010060737674323911,0.16336317135549872
0.010060737674323911,0.1636828644501279
0.010077703505140647,0.1636828644501279
0.010077703505140647,0.16400255754475704
0.010111635166774116,0.16400255754475704
0.010111635166774116,0.16432225063938619
0.010145566828407587,0.16432225063938619
0.010145566828407587,0.1649616368286445
0.010213430151674528,0.1649616368286445
0.010213430151674528,0.1656010230179028
0.010298259305758202,0.1656010230179028
0.010298259305758202,0.16592071611253198
0.010315225136574938,0.16592071611253198
0.010315225136574938,0.1671994884910486
0.010450951783108819,0.1671994884910486
0.010450951783108819,0.16751918158567775
0.010501849275559024,0.16751918158567775
0.010501849275559024,0.1678388746803069
0.010569712598825965,0.1678388746803069
0.010569712598825965,0.16847826086956522
0.0105866784296427,0.16847826086956522
0.0105866784296427,0.16879795396419436
0.010637575922092905,0.16879795396419436
0.010637575922092905,0.16911764705882354
0.010705439245359846,0.16911764705882354
0.010705439245359846,0.1694373401534527
0.010773302568626787,0.1694373401534527
0.010773302568626787,0.17039641943734016
0.010875097553527197,0.17039641943734016
0.010875097553527197,0.1707161125319693
0.010925995045977402,0.1707161125319693
0.010925995045977402,0.17103580562659845
0.010993858369244342,0.17103580562659845
0.010993858369244342,0.17199488491048592
0.011010824200061078,0.17199488491048592
0.011010824200061078,0.1723145780051151
0.011027790030877812,0.1723145780051151
0.011027790030877812,0.17263427109974425
0.011044755861694547,0.17263427109974425
0.011044755861694547,0.17327365728900257
0.011095653354144752,0.17327365728900257
0.011095653354144752,0.17391304347826086
0.011163516677411693,0.17391304347826086
0.011163516677411693,0.1745524296675192
0.011197448339045162,0.1745524296675192
0.011197448339045162,0.17519181585677748
0.011265311662312103,0.17519181585677748
0.011265311662312103,0.1758312020460358
0.011299243323945574,0.1758312020460358
0.011299243323945574,0.17679028132992328
0.011333174985579043,0.17679028132992328
0.011333174985579043,0.17774936061381075
0.011350140816395779,0.17774936061381075
0.011350140816395779,0.1780690537084399
0.011384072478029248,0.1780690537084399
0.011384072478029248,0.17838874680306904
0.01141800413966272,0.17838874680306904
0.01141800413966272,0.17870843989769822
0.011451935801296189,0.17870843989769822
0.011451935801296189,0.17902813299232737
0.01148586746292966,0.17902813299232737
0.01148586746292966,0.1796675191815857
0.01151979912456313,0.1796675191815857
0.01151979912456313,0.17998721227621484
0.0115537307861966,0.17998721227621484
0.01158766244783007,0.17998721227621484
0.01168945743273048,0.17998721227621484
0.01168945743273048,0.18030690537084398
0.011791252417630892,0.18030690537084398
0.011791252417630892,0.18062659846547316
0.011825184079264361,0.18062659846547316
0.011825184079264361,0.1809462915601023
0.011842149910081097,0.1809462915601023
0.011842149910081097,0.18126598465473145
0.011859115740897833,0.18126598465473145
0.011859115740897833,0.1815856777493606
0.011893047402531302,0.1815856777493606
0.011893047402531302,0.18190537084398978
0.011910013233348038,0.18190537084398978
0.011910013233348038,0.18350383631713554
0.011926979064164771,0.18350383631713554
0.011926979064164771,0.18478260869565216
0.012028774049065183,0.18478260869565216
0.012028774049065183,0.18574168797953963
0.012045739879881917,0.18574168797953963
0.012045739879881917,0.1860613810741688
0.012062705710698653,0.1860613810741688
0.012062705710698653,0.18638107416879796
0.012079671541515388,0.18638107416879796
0.012079671541515388,0.18734015345268543
0.012130569033965593,0.18734015345268543
0.012130569033965593,0.18797953964194372
0.012147534864782329,0.18797953964194372
0.012147534864782329,0.18957800511508952
0.012164500695599063,0.18957800511508952
0.012164500695599063,0.18989769820971866
0.012198432357232534,0.18989769820971866
0.012198432357232534,0.19021739130434784
0.012249329849682739,0.19021739130434784
0.012249329849682739,0.19053708439897699
0.012334159003766415,0.19053708439897699
0.012334159003766415,0.19085677749360613
0.012402022327033356,0.19085677749360613
0.012402022327033356,0.19117647058823528
0.012435953988666825,0.19117647058823528
0.012435953988666825,0.19149616368286446
0.012469885650300295,0.19149616368286446
0.012469885650300295,0.19245524296675193
0.012503817311933766,0.19245524296675193
0.012503817311933766,0.19309462915601022
0.01255471480438397,0.19309462915601022
0.01255471480438397,0.1934143222506394
0.012673475620101116,0.1934143222506394
0.012673475620101116,0.19373401534526855
0.012707407281734586,0.19373401534526855
0.012707407281734586,0.1940537084398977
0.012741338943368057,0.1940537084398977
0.012741338943368057,0.19437340153452684
0.012809202266634998,0.19437340153452684
0.012809202266634998,0.19501278772378516
0.012843133928268467,0.19501278772378516
0.012843133928268467,0.1953324808184143
0.012877065589901938,0.1953324808184143
0.012877065589901938,0.1956521739130435
0.012910997251535408,0.1956521739130435
0.012910997251535408,0.19629156010230178
0.013046723898069289,0.19629156010230178
0.013046723898069289,0.19661125319693096
0.013097621390519494,0.19661125319693096
0.013097621390519494,0.1969309462915601
0.013165484713786434,0.1969309462915601
0.013165484713786434,0.19725063938618925
0.01318245054460317,0.19725063938618925
0.01318245054460317,0.19757033248081843
0.01321638220623664,0.19757033248081843
0.01321638220623664,0.19789002557544758
0.01328424552950358,0.19789002557544758
0.01328424552950358,0.19820971867007672
0.01331817719113705,0.19820971867007672
0.01331817719113705,0.1991687979539642
0.013572664653388076,0.1991687979539642
0.013572664653388076,0.19948849104859334
0.013640527976655017,0.19948849104859334
0.013640527976655017,0.19980818414322252
0.013759288792372162,0.19980818414322252
0.013759288792372162,0.20012787723785166
0.01391198126972278,0.20012787723785166
0.01391198126972278,0.20076726342711
0.013928947100539513,0.20076726342711
0.013928947100539513,0.20108695652173914
0.013962878762172984,0.20108695652173914
0.013962878762172984,0.20140664961636828
0.013979844592989718,0.20140664961636828
0.013979844592989718,0.20172634271099743
0.01408163957789013,0.20172634271099743
0.01408163957789013,0.20236572890025575
0.01414950290115707,0.20236572890025575
0.01414950290115707,0.20300511508951408
0.01428522954769095,0.20300511508951408
0.01428522954769095,0.20364450127877237
0.014319161209324421,0.20364450127877237
0.014319161209324421,0.20396419437340155
0.01435309287095789,0.20396419437340155
0.01435309287095789,0.2042838874680307
0.014370058701774626,0.2042838874680307
0.014370058701774626,0.20460358056265984
0.014403990363408095,0.20460358056265984
0.014403990363408095,0.20524296675191817
0.014454887855858302,0.20524296675191817
0.014454887855858302,0.2055626598465473
0.014522751179125241,0.2055626598465473
0.014522751179125241,0.20588235294117646
0.014539717009941977,0.20588235294117646
0.014539717009941977,0.20620204603580564
0.014607580333208917,0.20620204603580564
0.014607580333208917,0.20652173913043478
0.014624546164025653,0.20652173913043478
0.014624546164025653,0.20684143222506393
0.014641511994842387,0.20684143222506393
0.014641511994842387,0.2078005115089514
0.014675443656475858,0.2078005115089514
0.014675443656475858,0.20812020460358055
0.014692409487292593,0.20812020460358055
0.014692409487292593,0.20907928388746802
0.014709375318109327,0.20907928388746802
0.014709375318109327,0.2093989769820972
0.014743306979742798,0.2093989769820972
0.014743306979742798,0.20971867007672634
0.014794204472193003,0.20971867007672634
0.014794204472193003,0.2100383631713555
0.014879033626276678,0.2100383631713555
0.014879033626276678,0.21035805626598467
0.0150826235960775,0.21035805626598467
0.0150826235960775,0.21067774936061381
0.015099589426894235,0.21067774936061381
0.015099589426894235,0.21099744245524296
0.015133521088527705,0.21099744245524296
0.015133521088527705,0.2113171355498721
0.01515048691934444,0.2113171355498721
0.01515048691934444,0.21259590792838876
0.015371042719961996,0.21259590792838876
0.015371042719961996,0.2129156010230179
0.015438906043228937,0.2129156010230179
0.015438906043228937,0.21323529411764705
0.015506769366495877,0.21323529411764705
0.015506769366495877,0.21355498721227623
0.015574632689762818,0.21355498721227623
0.015574632689762818,0.21387468030690537
0.015591598520579553,0.21387468030690537
0.015591598520579553,0.2145140664961637
0.015693393505479963,0.2145140664961637
0.015693393505479963,0.21483375959079284
0.0157103593362967,0.21483375959079284
0.0157103593362967,0.215153452685422
0.015761256828746902,0.215153452685422
0.015761256828746902,0.21547314578005114
0.015795188490380373,0.21547314578005114
0.015795188490380373,0.21579283887468031
0.01584608598283058,0.21579283887468031
0.01584608598283058,0.2164322250639386
0.015863051813647316,0.2164322250639386
0.015863051813647316,0.21675191815856779
0.015880017644464048,0.21675191815856779
0.015880017644464048,0.21739130434782608
0.01591394930609752,0.21739130434782608
0.01591394930609752,0.21771099744245526
0.0160496759526314,0.21771099744245526
0.01608360761426487,0.21771099744245526
0.016168436768348546,0.21771099744245526
0.016168436768348546,0.2180306905370844
0.016236300091615485,0.2180306905370844
0.016236300091615485,0.21898976982097187
0.016338095076515898,0.21898976982097187
0.016338095076515898,0.21930946291560102
0.016355060907332634,0.21930946291560102
0.016355060907332634,0.21962915601023017
0.016372026738149366,0.21962915601023017
0.016372026738149366,0.21994884910485935
0.016405958399782837,0.21994884910485935
0.016405958399782837,0.2202685421994885
0.016422924230599573,0.2202685421994885
0.016422924230599573,0.22058823529411764
0.01649078755386651,0.22058823529411764
0.01649078755386651,0.22090792838874682
0.016524719215499983,0.22090792838874682
0.016524719215499983,0.22122762148337596
0.016609548369583657,0.22122762148337596
0.016609548369583657,0.2215473145780051
0.016694377523667335,0.2215473145780051
0.016694377523667335,0.22186700767263426
0.016728309185300803,0.22186700767263426
0.016728309185300803,0.22218670076726343
0.01674527501611754,0.22218670076726343
0.01674527501611754,0.22250639386189258
0.016796172508567745,0.22250639386189258
0.016796172508567745,0.2231457800511509
0.016830104170201216,0.2231457800511509
0.016830104170201216,0.2237851662404092
0.016864035831834684,0.2237851662404092
0.016864035831834684,0.22410485933503838
0.016897967493468155,0.22410485933503838
0.016897967493468155,0.22474424552429667
0.01691493332428489,0.22474424552429667
0.01691493332428489,0.22506393861892582
0.016948864985918362,0.22506393861892582
0.016948864985918362,0.225383631713555
0.017033694140002036,0.225383631713555
0.017033694140002036,0.2260230179028133
0.017050659970818772,0.2260230179028133
0.017050659970818772,0.2266624040920716
0.01708459163245224,0.2266624040920716
0.01711852329408571,0.2266624040920716
0.017237284109802856,0.2266624040920716
0.017237284109802856,0.22762148337595908
0.017271215771436327,0.22762148337595908
0.017271215771436327,0.22794117647058823
0.017288181602253063,0.22794117647058823
0.017288181602253063,0.2289002557544757
0.017322113263886534,0.2289002557544757
0.017322113263886534,0.22921994884910485
0.017457839910420412,0.22921994884910485
0.017457839910420412,0.22953964194373402
0.017491771572053883,0.22953964194373402
0.017491771572053883,0.22985933503836317
0.017525703233687354,0.22985933503836317
0.017525703233687354,0.23081841432225064
0.01754266906450409,0.23081841432225064
0.01754266906450409,0.2311381074168798
0.017559634895320825,0.2311381074168798
0.017559634895320825,0.23145780051150894
0.017593566556954293,0.23145780051150894
0.017593566556954293,0.2317774936061381
0.0176444640494045,0.2317774936061381
0.0176444640494045,0.23209718670076726
0.017695361541854703,0.23209718670076726
0.017695361541854703,0.2324168797953964
0.01771232737267144,0.2324168797953964
0.01771232737267144,0.23305626598465473
0.017797156526755117,0.23305626598465473
0.017797156526755117,0.23369565217391305
0.01784805401920532,0.23369565217391305
0.01784805401920532,0.2340153452685422
0.017898951511655527,0.2340153452685422
0.017898951511655527,0.23433503836317135
0.0179837806657392,0.23433503836317135
0.0179837806657392,0.23529411764705882
0.018034678158189408,0.23529411764705882
0.018034678158189408,0.23657289002557544
0.018068609819822876,0.23657289002557544
0.018068609819822876,0.23689258312020461
0.018136473143089818,0.23689258312020461
0.018136473143089818,0.23721227621483376
0.01818737063554002,0.23721227621483376
0.01818737063554002,0.2375319693094629
0.018204336466356757,0.2375319693094629
0.018204336466356757,0.23785166240409208
0.018221302297173492,0.23785166240409208
0.018221302297173492,0.23849104859335038
0.018441858097791048,0.23849104859335038
0.018441858097791048,0.23881074168797953
0.018458823928607784,0.23881074168797953
0.018458823928607784,0.23945012787723785
0.0186115164059584,0.23945012787723785
0.0186115164059584,0.239769820971867
0.018628482236775136,0.239769820971867
0.018628482236775136,0.24008951406649617
0.018662413898408604,0.24008951406649617
0.018662413898408604,0.24040920716112532
0.018798140544942485,0.24040920716112532
0.018798140544942485,0.2413682864450128
0.01881510637575922,0.2413682864450128
0.01881510637575922,0.2420076726342711
0.01884903803739269,0.2420076726342711
0.01884903803739269,0.24232736572890026
0.0189508330222931,0.24232736572890026
0.0189508330222931,0.2426470588235294
0.018984764683926573,0.2426470588235294
0.018984764683926573,0.24296675191815856
0.01900173051474331,0.24296675191815856
0.01900173051474331,0.24392583120204603
0.01901869634556004,0.24392583120204603
0.01901869634556004,0.2442455242966752
0.01905262800719351,0.2442455242966752
0.01905262800719351,0.24456521739130435
0.019120491330460454,0.24456521739130435
0.019120491330460454,0.2448849104859335
0.019171388822910657,0.2448849104859335
0.019171388822910657,0.24520460358056265
0.019273183807811067,0.24520460358056265
0.019273183807811067,0.24552429667519182
0.01930711546944454,0.24552429667519182
0.01930711546944454,0.24584398976982097
0.019324081300261274,0.24584398976982097
0.019324081300261274,0.24616368286445012
0.01934104713107801,0.24616368286445012
0.01934104713107801,0.2464833759590793
0.019358012961894745,0.2464833759590793
0.019358012961894745,0.24808184143222506
0.019459807946795155,0.24808184143222506
0.019459807946795155,0.2484015345268542
0.01947677377761189,0.2484015345268542
0.01947677377761189,0.24872122762148338
0.019493739608428626,0.24872122762148338
0.019493739608428626,0.24904092071611253
0.01951070543924536,0.24904092071611253
0.01951070543924536,0.24936061381074168
0.01964643208577924,0.24936061381074168
0.01964643208577924,0.25031969309462915
0.019663397916595975,0.25031969309462915
0.019663397916595975,0.2506393861892583
0.019731261239862918,0.2506393861892583
0.019731261239862918,0.25127877237851665
0.019765192901496385,0.25127877237851665
0.019765192901496385,0.25191815856777494
0.019850022055580063,0.25191815856777494
0.019850022055580063,0.2522378516624041
0.01988395371721353,0.2522378516624041
0.01988395371721353,0.25255754475703324
0.019917885378847002,0.25255754475703324
0.019917885378847002,0.2528772378516624
0.019934851209663738,0.2528772378516624
0.019934851209663738,0.2531969309462916
0.019951817040480473,0.2531969309462916
0.019951817040480473,0.25351662404092073
0.01996878287129721,0.25351662404092073
0.01996878287129721,0.2538363171355499
0.020019680363747412,0.2538363171355499
0.020019680363747412,0.25415601023017903
0.020053612025380883,0.25415601023017903
0.020053612025380883,0.2547953964194373
0.02007057785619762,0.2547953964194373
0.02007057785619762,0.2551150895140665
0.0202063045027315,0.2551150895140665
0.0202063045027315,0.2554347826086957
0.020291133656815175,0.2554347826086957
0.020291133656815175,0.2557544757033248
0.02030809948763191,0.2557544757033248
0.02030809948763191,0.25607416879795397
0.020342031149265378,0.25607416879795397
0.020342031149265378,0.2563938618925831
0.020358996980082113,0.2563938618925831
0.020358996980082113,0.2570332480818414
0.02051168945743273,0.2570332480818414
0.02051168945743273,0.2579923273657289
0.020528655288249466,0.2579923273657289
0.020528655288249466,0.2586317135549872
0.02071527942723355,0.2586317135549872
0.02071527942723355,0.25895140664961636
0.020732245258050286,0.25895140664961636
0.020732245258050286,0.2592710997442455
0.02074921108886702,0.2592710997442455
0.02074921108886702,0.2595907928388747
0.020766176919683757,0.2595907928388747
0.020766176919683757,0.25991048593350385
0.02085100607376743,0.25991048593350385
0.02085100607376743,0.260230179028133
0.020884937735400903,0.260230179028133
0.020884937735400903,0.26054987212276215
0.020901903566217638,0.26054987212276215
0.020901903566217638,0.2608695652173913
0.020918869397034374,0.2608695652173913
0.020918869397034374,0.26118925831202044
0.02093583522785111,0.26118925831202044
0.02093583522785111,0.2618286445012788
0.021020664381934784,0.2618286445012788
0.021020664381934784,0.2624680306905371
0.021088527705201723,0.2624680306905371
0.021088527705201723,0.26278772378516624
0.02113942519765193,0.26278772378516624
0.02113942519765193,0.2631074168797954
0.021292117675002546,0.2631074168797954
0.021292117675002546,0.2637468030690537
0.021326049336636014,0.2637468030690537
0.021326049336636014,0.2640664961636829
0.021393912659902956,0.2640664961636829
0.021393912659902956,0.2647058823529412
0.02147874181398663,0.2647058823529412
0.02147874181398663,0.2650255754475703
0.021597502629703776,0.2650255754475703
0.021597502629703776,0.2653452685421995
0.021699297614604186,0.2653452685421995
0.021699297614604186,0.2656649616368286
0.021784126768687864,0.2656649616368286
0.021784126768687864,0.2659846547314578
0.021801092599504596,0.2659846547314578
0.021801092599504596,0.266304347826087
0.021851990091954803,0.266304347826087
0.021851990091954803,0.2666240409207161
0.02186895592277154,0.2666240409207161
0.02186895592277154,0.26694373401534527
0.021885921753588274,0.26694373401534527
0.021885921753588274,0.26758312020460356
0.02197075090767195,0.26758312020460356
0.02197075090767195,0.2682225063938619
0.021987716738488684,0.2682225063938619
0.021987716738488684,0.26854219948849106
0.02207254589257236,0.26854219948849106
0.02207254589257236,0.2688618925831202
0.0221404092158393,0.2688618925831202
0.0221404092158393,0.26982097186700765
0.02217434087747277,0.26982097186700765
0.02217434087747277,0.27014066496163686
0.02220827253910624,0.27014066496163686
0.02220827253910624,0.270460358056266
0.02227613586237318,0.270460358056266
0.02227613586237318,0.2710997442455243
0.022327033354823386,0.2710997442455243
0.022327033354823386,0.27141943734015345
0.022360965016456857,0.27141943734015345
0.022360965016456857,0.2717391304347826
0.022394896678090324,0.2717391304347826
0.022394896678090324,0.27205882352941174
0.022479725832174002,0.27205882352941174
0.022479725832174002,0.27237851662404094
0.022530623324624206,0.27237851662404094
0.022530623324624206,0.2726982097186701
0.022598486647891148,0.2726982097186701
0.02263241830952462,0.2726982097186701
0.02263241830952462,0.2733375959079284
0.022666349971158087,0.2733375959079284
0.022666349971158087,0.2739769820971867
0.022683315801974822,0.2739769820971867
0.022683315801974822,0.27429667519181583
0.022717247463608294,0.27429667519181583
0.022717247463608294,0.27461636828644503
0.022768144956058497,0.27461636828644503
0.022768144956058497,0.2749360613810742
0.022802076617691968,0.2749360613810742
0.022802076617691968,0.27525575447570333
0.022852974110142175,0.27525575447570333
0.022852974110142175,0.2758951406649616
0.02286993994095891,0.2758951406649616
0.02286993994095891,0.27653452685422
0.022954769095042585,0.27653452685422
0.022954769095042585,0.2768542199488491
0.023294085711377286,0.2768542199488491
0.023294085711377286,0.27717391304347827
0.023429812357911167,0.27717391304347827
0.023429812357911167,0.2774936061381074
0.02346374401954464,0.2774936061381074
0.02346374401954464,0.27781329923273657
0.02348070985036137,0.27781329923273657
0.02348070985036137,0.2781329923273657
0.02361643649689525,0.2781329923273657
0.02361643649689525,0.27845268542199486
0.02366733398934546,0.27845268542199486
0.02366733398934546,0.2790920716112532
0.02370126565097893,0.2790920716112532
0.02370126565097893,0.27941176470588236
0.023735197312612397,0.27941176470588236
0.023735197312612397,0.2797314578005115
0.023786094805062604,0.2797314578005115
0.023786094805062604,0.28005115089514065
0.02380306063587934,0.28005115089514065
0.02380306063587934,0.2803708439897698
0.024176308913847512,0.2803708439897698
0.024176308913847512,0.28069053708439895
0.024193274744664248,0.28069053708439895
0.024193274744664248,0.28101023017902815
0.024261138067931187,0.28101023017902815
0.024261138067931187,0.2819693094629156
0.024312035560381393,0.2819693094629156
0.024312035560381393,0.2829283887468031
0.02434596722201486,0.2829283887468031
0.02434596722201486,0.28324808184143224
0.024379898883648332,0.28324808184143224
0.024379898883648332,0.2842071611253197
0.02443079637609854,0.2842071611253197
0.02443079637609854,0.28452685421994883
0.024464728037732007,0.28452685421994883
0.024464728037732007,0.284846547314578
0.024583488853449152,0.284846547314578
0.024583488853449152,0.2851662404092072
0.024821010484883443,0.2851662404092072
0.024821010484883443,0.28548593350383633
0.02487190797733365,0.28548593350383633
0.02487190797733365,0.2858056265984655
0.024922805469783857,0.2858056265984655
0.024922805469783857,0.2861253196930946
0.02497370296223406,0.2861253196930946
0.02497370296223406,0.2864450127877238
0.024990668793050796,0.2864450127877238
0.024990668793050796,0.2867647058823529
0.025024600454684267,0.2867647058823529
0.025024600454684267,0.2874040920716113
0.02507549794713447,0.2874040920716113
0.02507549794713447,0.28804347826086957
0.025092463777951206,0.28804347826086957
0.025092463777951206,0.2883631713554987
0.02510942960876794,0.2883631713554987
0.02510942960876794,0.28868286445012786
0.02521122459366835,0.28868286445012786
0.02521122459366835,0.289002557544757
0.025245156255301823,0.289002557544757
0.025245156255301823,0.28964194373401536
0.025279087916935294,0.28964194373401536
0.025279087916935294,0.29028132992327366
0.025296053747752026,0.29028132992327366
0.025296053747752026,0.29187979539641945
0.02531301957856876,0.29187979539641945
0.02531301957856876,0.2921994884910486
0.025380882901835704,0.2921994884910486
0.025380882901835704,0.29251918158567775
0.025431780394285907,0.29251918158567775
0.025431780394285907,0.2928388746803069
0.025482677886736114,0.2928388746803069
0.025482677886736114,0.29315856777493604
0.025533575379186317,0.29315856777493604
0.025533575379186317,0.29347826086956524
0.025618404533269995,0.29347826086956524
0.025618404533269995,0.2937979539641944
0.0256693020257202,0.2937979539641944
0.02570323368735367,0.2937979539641944
0.02570323368735367,0.2944373401534527
0.025821994503070815,0.2944373401534527
0.025821994503070815,0.29475703324808183
0.025889857826337757,0.29475703324808183
0.025889857826337757,0.295076726342711
0.026008618642054903,0.295076726342711
0.026008618642054903,0.29539641943734013
0.026110413626955313,0.29539641943734013
0.026110413626955313,0.29571611253196933
0.02612737945777205,0.29571611253196933
0.02612737945777205,0.2960358056265985
0.026195242781038987,0.2960358056265985
0.026195242781038987,0.29635549872122763
0.026212208611855723,0.29635549872122763
0.026212208611855723,0.2969948849104859
0.026246140273489194,0.2969948849104859
0.026246140273489194,0.2976342710997442
0.026246140273489194,0.29827365728900257
0.026347935258389604,0.29827365728900257
0.026347935258389604,0.2985933503836317
0.026483661904923485,0.2985933503836317
0.026483661904923485,0.29891304347826086
0.026500627735740218,0.29891304347826086
0.026500627735740218,0.29923273657289
0.026585456889823895,0.29923273657289
0.026585456889823895,0.29987212276214836
0.02677208102880798,0.29987212276214836
0.02677208102880798,0.3008312020460358
0.026856910182891658,0.3008312020460358
0.026856910182891658,0.3014705882352941
0.026958705167792068,0.3014705882352941
0.026958705167792068,0.30179028132992325
0.026992636829425536,0.30179028132992325
0.026992636829425536,0.30210997442455245
0.027026568491059007,0.30210997442455245
0.027026568491059007,0.3024296675191816
0.02711139764514268,0.3024296675191816
0.02711139764514268,0.30274936061381075
0.027179260968409624,0.30274936061381075
0.027179260968409624,0.30338874680306904
0.02729802178412677,0.30338874680306904
0.02729802178412677,0.3037084398976982
0.027365885107393708,0.3037084398976982
0.027365885107393708,0.3040281329923274
0.027450714261477386,0.3040281329923274
0.027450714261477386,0.30434782608695654
0.027484645923110854,0.30434782608695654
0.027484645923110854,0.3046675191815857
0.02770520172372841,0.3046675191815857
0.02770520172372841,0.30498721227621484
0.02773913338536188,0.30498721227621484
0.02773913338536188,0.305306905370844
0.027790030877812087,0.305306905370844
0.027790030877812087,0.30562659846547313
0.027857894201079026,0.30562659846547313
0.027857894201079026,0.3059462915601023
0.02787486003189576,0.3059462915601023
0.02787486003189576,0.3062659846547315
0.02792575752434597,0.3062659846547315
0.02792575752434597,0.30658567774936063
0.02797665501679617,0.30658567774936063
0.02797665501679617,0.3069053708439898
0.028044518340063114,0.3069053708439898
0.028044518340063114,0.3078644501278772
0.02806148417087985,0.3078644501278772
0.02806148417087985,0.30850383631713557
0.02807845000169658,0.30850383631713557
0.02807845000169658,0.3088235294117647
0.028112381663330053,0.3088235294117647
0.028112381663330053,0.30914322250639387
0.028214176648230463,0.30914322250639387
0.028214176648230463,0.309462915601023
0.028248108309863934,0.309462915601023
0.028248108309863934,0.30978260869565216
0.02826507414068067,0.30978260869565216
0.02826507414068067,0.3104219948849105
0.02836686912558108,0.3104219948849105
0.02836686912558108,0.3110613810741688
0.028417766618031286,0.3110613810741688
0.02843473244884802,0.31138107416879796
0.02843473244884802,0.3117007672634271
0.028485629941298225,0.3117007672634271
0.028485629941298225,0.3123401534526854
0.02860439075701537,0.3123401534526854
0.02860439075701537,0.3126598465473146
0.028655288249465578,0.3126598465473146
0.028655288249465578,0.31297953964194375
0.028740117403549252,0.31297953964194375
0.028740117403549252,0.31361892583120204
0.028774049065182723,0.31361892583120204
0.028774049065182723,0.31425831202046034
0.028960673204166808,0.31425831202046034
0.028960673204166808,0.3145780051150895
0.029011570696617014,0.3145780051150895
0.029011570696617014,0.3148976982097187
0.029045502358250482,0.3148976982097187
0.029045502358250482,0.31521739130434784
0.029147297343150896,0.31521739130434784
0.029147297343150896,0.315537084398977
0.0291981948356011,0.315537084398977
0.0291981948356011,0.31585677749360613
0.029249092328051306,0.31585677749360613
0.029249092328051306,0.3161764705882353
0.02933392148213498,0.3161764705882353
0.02933392148213498,0.31649616368286443
0.029520545621119065,0.31649616368286443
0.029520545621119065,0.31681585677749363
0.029588408944386007,0.31681585677749363
0.029588408944386007,0.3171355498721228
0.029893793899087237,0.3171355498721228
0.029893793899087237,0.3174552429667519
0.029927725560720708,0.3174552429667519
0.029927725560720708,0.3177749360613811
0.03006345220725459,0.3177749360613811
0.03006345220725459,0.3180946291560102
0.03026704217705541,0.3180946291560102
0.03026704217705541,0.31841432225063937
0.030521529639306436,0.31841432225063937
0.030521529639306436,0.3187340153452685
0.03103050456380849,0.3187340153452685
0.03103050456380849,0.3190537084398977
0.031149265379525636,0.3190537084398977
0.031149265379525636,0.31937340153452687
0.03145465033422687,0.31937340153452687
0.03145465033422687,0.319693094629156
0.031522513657493804,0.319693094629156
0.031522513657493804,0.32001278772378516
0.03157341114994401,0.32001278772378516
0.03157341114994401,0.32065217391304346
0.03160734281157748,0.32065217391304346
0.03160734281157748,0.3212915601023018
0.031641274473210954,0.3212915601023018
0.031641274473210954,0.32161125319693096
0.03169217196566116,0.32161125319693096
0.03169217196566116,0.3219309462915601
0.031709137796477896,0.3219309462915601
0.031709137796477896,0.3225703324808184
0.03179396695056157,0.3225703324808184
0.03179396695056157,0.32320971867007675
0.031844864443011774,0.32320971867007675
0.031844864443011774,0.3235294117647059
0.03186183027382851,0.3235294117647059
0.03186183027382851,0.3241687979539642
0.031878796104645245,0.3241687979539642
0.031878796104645245,0.32448849104859334
0.03194665942791219,0.32448849104859334
0.03194665942791219,0.3248081841432225
0.03199755692036239,0.3248081841432225
0.03199755692036239,0.32512787723785164
0.032285976044246885,0.32512787723785164
0.032285976044246885,0.32576726342711
0.03230294187506362,0.32576726342711
0.03230294187506362,0.32608695652173914
0.032319907705880356,0.32608695652173914
0.032319907705880356,0.3264066496163683
0.032489566014047705,0.3264066496163683
0.032489566014047705,0.32672634271099743
0.032727087645481996,0.32672634271099743
0.032727087645481996,0.3270460358056266
0.03274405347629873,0.3270460358056266
0.03274405347629873,0.3273657289002558
0.03294764344609956,0.3273657289002558
0.03294764344609956,0.3280051150895141
0.03298157510773302,0.3280051150895141
0.03298157510773302,0.3283248081841432
0.033015506769366494,0.3283248081841432
0.033015506769366494,0.32864450127877237
0.03303247260018323,0.32864450127877237
0.03303247260018323,0.3289641943734015
0.033083370092633436,0.3289641943734015
0.033083370092633436,0.32928388746803067
0.03313426758508364,0.32928388746803067
0.033168199246717114,0.32928388746803067
0.03320213090835058,0.32928388746803067
0.03320213090835058,0.32960358056265987
0.03332089172406773,0.32960358056265987
0.03332089172406773,0.329923273657289
0.03333785755488446,0.329923273657289
0.03333785755488446,0.33024296675191817
0.0333548233857012,0.33024296675191817
0.0333548233857012,0.3305626598465473
0.03338875504733467,0.3305626598465473
0.03338875504733467,0.33088235294117646
0.03342268670896814,0.33088235294117646
0.03342268670896814,0.3312020460358056
0.033575379186318755,0.3312020460358056
0.033575379186318755,0.33152173913043476
0.03372807166366937,0.33152173913043476
0.03372807166366937,0.33184143222506396
0.0337450374944861,0.33184143222506396
0.033778969156119575,0.33184143222506396
0.03379593498693631,0.33184143222506396
0.03379593498693631,0.3321611253196931
0.03388076414101999,0.3321611253196931
0.03388076414101999,0.33248081841432225
0.03391469580265346,0.33248081841432225
0.03391469580265346,0.3328005115089514
0.03396559329510366,0.3328005115089514
0.03396559329510366,0.33312020460358055
0.03406738828000407,0.33312020460358055
0.03406738828000407,0.3334398976982097
0.03408435411082081,0.3334398976982097
0.03408435411082081,0.3337595907928389
0.03411828577245428,0.3337595907928389
0.03411828577245428,0.33407928388746805
0.034220080757354686,0.33407928388746805
0.034220080757354686,0.3343989769820972
0.03452546571205592,0.3343989769820972
0.03452546571205592,0.33471867007672634
0.03464422652777307,0.33471867007672634
0.03464422652777307,0.3350383631713555
0.03481388483594042,0.3350383631713555
0.03481388483594042,0.33535805626598464
0.03493264565165756,0.33535805626598464
0.03493264565165756,0.33631713554987214
0.034949611482474295,0.33631713554987214
0.034949611482474295,0.3366368286445013
0.03496657731329103,0.3366368286445013
0.03496657731329103,0.33695652173913043
0.03501747480574124,0.33695652173913043
0.03501747480574124,0.3372762148337596
0.035187133113908586,0.3372762148337596
0.035187133113908586,0.3379156010230179
0.03523803060635879,0.3379156010230179
0.03523803060635879,0.3382352941176471
0.035288928098809,0.3382352941176471
0.035288928098809,0.3385549872122762
0.03542465474534288,0.3385549872122762
0.03542465474534288,0.3388746803069054
0.03549251806860982,0.3388746803069054
0.03549251806860982,0.3391943734015345
0.035509483899426555,0.3391943734015345
0.035509483899426555,0.33951406649616367
0.03566217637677717,0.33951406649616367
0.03566217637677717,0.3398337595907928
0.03569610803841064,0.3398337595907928
0.03569610803841064,0.340153452685422
0.035713073869227376,0.340153452685422
0.035713073869227376,0.34047314578005117
0.03579790302331105,0.34047314578005117
0.03579790302331105,0.34111253196930946
0.03589969800821146,0.34111253196930946
0.03589969800821146,0.3414322250639386
0.036035424654745345,0.3414322250639386
0.036035424654745345,0.34175191815856776
0.03605239048556208,0.34175191815856776
0.03605239048556208,0.3420716112531969
0.03617115130127922,0.3420716112531969
0.03617115130127922,0.3423913043478261
0.03618811713209596,0.3423913043478261
0.03618811713209596,0.34271099744245526
0.03652743374843066,0.34271099744245526
0.03652743374843066,0.3430306905370844
0.03673102371823148,0.3430306905370844
0.03673102371823148,0.34335038363171355
0.03683281870313189,0.34335038363171355
0.03683281870313189,0.3436700767263427
0.03695157951884904,0.3436700767263427
0.03695157951884904,0.34398976982097185
0.03710427199619965,0.34398976982097185
0.03710427199619965,0.34430946291560105
0.03725696447355027,0.34430946291560105
0.03725696447355027,0.3446291560102302
0.03730786196600047,0.3446291560102302
0.03730786196600047,0.34494884910485935
0.03747752027416783,0.34494884910485935
0.03747752027416783,0.3452685421994885
0.03754538359743476,0.3452685421994885
0.03754538359743476,0.34558823529411764
0.03769807607478538,0.34558823529411764
0.03769807607478538,0.3459079283887468
0.037732007736418854,0.3459079283887468
0.037732007736418854,0.34622762148337594
0.03779987105968579,0.34622762148337594
0.03779987105968579,0.34654731457800514
0.037969529367853146,0.34654731457800514
0.037969529367853146,0.3468670076726343
0.03807132435275355,0.3468670076726343
0.03807132435275355,0.34718670076726343
0.038173119337653966,0.34718670076726343
0.038173119337653966,0.34782608695652173
0.03839367513827152,0.34782608695652173
0.03839367513827152,0.3481457800511509
0.03861423093888908,0.3481457800511509
0.03861423093888908,0.34846547314578
0.03868209426215602,0.34846547314578
0.03868209426215602,0.34878516624040923
0.03871602592378949,0.34878516624040923
0.03871602592378949,0.3491048593350384
0.038749957585422955,0.3491048593350384
0.038749957585422955,0.3494245524296675
0.038902650062773575,0.3494245524296675
0.038902650062773575,0.34974424552429667
0.03891961589359031,0.34974424552429667
0.03891961589359031,0.3500639386189258
0.03912320586339113,0.3500639386189258
0.03912320586339113,0.35038363171355497
0.039462522479725835,0.35038363171355497
0.039462522479725835,0.35070332480818417
0.03958128329544298,0.35070332480818417
0.03958128329544298,0.3510230179028133
0.03959824912625971,0.3510230179028133
0.03959824912625971,0.35134271099744246
0.0397848732652438,0.35134271099744246
0.0397848732652438,0.3516624040920716
0.03995453157341115,0.3516624040920716
0.03995453157341115,0.35198209718670076
0.04020901903566217,0.35198209718670076
0.04020901903566217,0.3523017902813299
0.04029384818974585,0.3523017902813299
0.04032777985137932,0.3523017902813299
0.040429574836279736,0.3523017902813299
0.040429574836279736,0.35262148337595906
0.040446540667096464,0.35262148337595906
0.040446540667096464,0.35294117647058826
0.0404635064979132,0.35294117647058826
0.0404635064979132,0.3532608695652174
0.040480472328729936,0.3532608695652174
0.040480472328729936,0.35358056265984655
0.04061619897526382,0.35358056265984655
0.04061619897526382,0.3539002557544757
0.04071799396016423,0.3539002557544757
0.04071799396016423,0.35421994884910485
0.040972481422415254,0.35421994884910485
0.040972481422415254,0.35485933503836314
0.04105731057649893,0.35485933503836314
0.04105731057649893,0.35517902813299235
0.041328763869566694,0.35517902813299235
0.041328763869566694,0.3554987212276215
0.041447524685283836,0.3554987212276215
0.041447524685283836,0.35581841432225064
0.04163414882426793,0.35581841432225064
0.041651114655084656,0.3561381074168798
0.04166808048590139,0.3561381074168798
0.04166808048590139,0.3567774936061381
0.04190560211733568,0.3567774936061381
0.04190560211733568,0.3570971867007673
0.042007397102236096,0.3570971867007673
0.042007397102236096,0.35741687979539644
0.042177055410403445,0.35741687979539644
0.042177055410403445,0.3577365728900256
0.04231278205693733,0.3577365728900256
0.04231278205693733,0.3583759590792839
0.042329747887754066,0.3583759590792839
0.042329747887754066,0.358695652173913
0.04241457704183774,0.358695652173913
0.04241457704183774,0.3590153452685422
0.04251637202673815,0.3590153452685422
0.04251637202673815,0.3593350383631714
0.04278782531980591,0.3593350383631714
0.04278782531980591,0.3596547314578005
0.04300838112042347,0.3596547314578005
0.04300838112042347,0.3602941176470588
0.04319500525940755,0.3602941176470588
0.04319500525940755,0.36061381074168797
0.043500390214108786,0.36061381074168797
0.043500390214108786,0.3609335038363171
0.04356825353737573,0.3609335038363171
0.04356825353737573,0.3612531969309463
0.043636116860642664,0.3612531969309463
0.043636116860642664,0.36157289002557547
0.043670048522276135,0.36157289002557547
0.043670048522276135,0.3618925831202046
0.043703980183909606,0.3618925831202046
0.043703980183909606,0.36221227621483376
0.04375487767635981,0.36221227621483376
0.04375487767635981,0.36285166240409206
0.043992399307794104,0.36285166240409206
0.043992399307794104,0.3631713554987212
0.04424688677004513,0.3631713554987212
0.04424688677004513,0.3634910485933504
0.04429778426249534,0.3634910485933504
0.04429778426249534,0.36381074168797956
0.044314750093312066,0.36381074168797956
0.044314750093312066,0.3641304347826087
0.04441654507821248,0.3641304347826087
0.04441654507821248,0.36445012787723785
0.04456923755556309,0.36445012787723785
0.04456923755556309,0.364769820971867
0.04467103254046351,0.364769820971867
0.04467103254046351,0.36508951406649615
0.044925520002714533,0.36508951406649615
0.044925520002714533,0.3657289002557545
0.04501034915679821,0.3657289002557545
0.04501034915679821,0.36604859335038364
0.045129109972515354,0.36604859335038364
0.045163041634148825,0.36604859335038364
0.04523090495741577,0.36604859335038364
0.04523090495741577,0.3663682864450128
0.04555325574293373,0.3663682864450128
0.04555325574293373,0.36668797953964194
0.04575684571273455,0.36668797953964194
0.04575684571273455,0.3670076726342711
0.045807743205184756,0.3670076726342711
0.045807743205184756,0.36732736572890023
0.045960435682535376,0.36732736572890023
0.045960435682535376,0.36764705882352944
0.04602829900580231,0.36764705882352944
0.04602829900580231,0.3679667519181586
0.04606223066743578,0.3679667519181586
0.04606223066743578,0.36828644501278773
0.046096162329069254,0.36828644501278773
0.046096162329069254,0.3686061381074169
0.04618099148315293,0.3686061381074169
0.04618099148315293,0.36892583120204603
0.04624885480641987,0.36892583120204603
0.04624885480641987,0.3692455242966752
0.0462658206372366,0.3692455242966752
0.0462658206372366,0.3698849104859335
0.046859624715822334,0.3698849104859335
0.046859624715822334,0.3702046035805627
0.04687659054663907,0.3702046035805627
0.04687659054663907,0.3705242966751918
0.047097146347256626,0.3705242966751918
0.047097146347256626,0.37084398976982097
0.0471310780088901,0.37084398976982097
0.0471310780088901,0.3711636828644501
0.04716500967052357,0.3711636828644501
0.04716500967052357,0.37148337595907927
0.04728377048624071,0.37148337595907927
0.04728377048624071,0.3718030690537084
0.04733466797869092,0.3718030690537084
0.04733466797869092,0.3721227621483376
0.04748736045604153,0.3721227621483376
0.04748736045604153,0.37244245524296676
0.04760612127175868,0.37244245524296676
0.04760612127175868,0.3727621483375959
0.04769095042584235,0.3727621483375959
0.04769095042584235,0.37308184143222506
0.04772488208747582,0.37308184143222506
0.04772488208747582,0.3734015345268542
0.04784364290319297,0.3734015345268542
0.04784364290319297,0.37404092071611256
0.04791150622645991,0.37404092071611256
0.04791150622645991,0.3743606138107417
0.04792847205727664,0.3743606138107417
0.04792847205727664,0.37468030690537085
0.048098130365444,0.37468030690537085
0.048098130365444,0.37531969309462915
0.04821689118116114,0.37531969309462915
0.04821689118116114,0.37595907928388744
0.04828475450442808,0.37595907928388744
0.04828475450442808,0.37627877237851665
0.048793729428930135,0.37627877237851665
0.048793729428930135,0.3765984654731458
0.04884462692138034,0.3765984654731458
0.04884462692138034,0.37691815856777494
0.04891249024464728,0.37691815856777494
0.04891249024464728,0.3772378516624041
0.04904821689118116,0.3772378516624041
0.04904821689118116,0.37755754475703324
0.0490651827219979,0.37755754475703324
0.0490651827219979,0.3778772378516624
0.04909911438363137,0.3778772378516624
0.04909911438363137,0.3781969309462916
0.04928573852261545,0.3781969309462916
0.04928573852261545,0.37851662404092073
0.049489328492416274,0.37851662404092073
0.049489328492416274,0.3788363171355499
0.049523260154049745,0.3788363171355499
0.049523260154049745,0.37915601023017903
0.04979471344711751,0.37915601023017903
0.04979471344711751,0.3794757033248082
0.04987954260120118,0.3794757033248082
0.04987954260120118,0.3797953964194373
0.050049200909368534,0.3797953964194373
0.050049200909368534,0.3801150895140665
0.05018492755590241,0.3801150895140665
0.05018492755590241,0.3804347826086957
0.05033762003325303,0.3804347826086957
0.05033762003325303,0.38107416879795397
0.05035458586406976,0.38107416879795397
0.05035458586406976,0.3813938618925831
0.05040548335651997,0.3813938618925831
0.05040548335651997,0.38171355498721227
0.05050727834142038,0.38171355498721227
0.05050727834142038,0.3820332480818414
0.050659970818770994,0.3820332480818414
0.050659970818770994,0.38235294117647056
0.050727834142037936,0.38235294117647056
0.050727834142037936,0.3829923273657289
0.05076176580367141,0.3829923273657289
0.05076176580367141,0.3836317135549872
0.050863560788571814,0.3836317135549872
0.050863560788571814,0.38395140664961636
0.05111804825082284,0.38395140664961636
0.05111804825082284,0.3842710997442455
0.05115197991245631,0.3842710997442455
0.05115197991245631,0.3845907928388747
0.05144039903634081,0.3845907928388747
0.05144039903634081,0.38491048593350385
0.05155915985205795,0.38491048593350385
0.05155915985205795,0.385230179028133
0.05172881816022531,0.385230179028133
0.05172881816022531,0.38554987212276215
0.05189847646839266,0.38554987212276215
0.05189847646839266,0.3858695652173913
0.052017237284109806,0.3858695652173913
0.052017237284109806,0.38618925831202044
0.05211903226901021,0.38618925831202044
0.05211903226901021,0.3865089514066496
0.05216992976146042,0.3865089514066496
0.05216992976146042,0.3868286445012788
0.052390485562077975,0.3868286445012788
0.052390485562077975,0.38714833759590794
0.05272980217841268,0.38714833759590794
0.05272980217841268,0.3874680306905371
0.05281463133249635,0.3874680306905371
0.05281463133249635,0.38778772378516624
0.052950357979030235,0.38778772378516624
0.052950357979030235,0.38842710997442453
0.052984289640663706,0.38842710997442453
0.052984289640663706,0.3887468030690537
0.053238777102914726,0.3887468030690537
0.053238777102914726,0.3897058823529412
0.053323606256998404,0.3897058823529412
0.053323606256998404,0.3903452685421995
0.053476298734349025,0.3903452685421995
0.053476298734349025,0.3906649616368286
0.05349326456516575,0.3906649616368286
0.05349326456516575,0.3909846547314578
0.05357809371924943,0.3909846547314578
0.05357809371924943,0.391304347826087
0.053730786196600044,0.391304347826087
0.053730786196600044,0.3916240409207161
0.05381561535068372,0.3916240409207161
0.05381561535068372,0.39194373401534527
0.053849547012317193,0.39194373401534527
0.053883478673950665,0.39194373401534527
0.05398527365885107,0.39194373401534527
0.05398527365885107,0.3922634271099744
0.054121000305384956,0.3922634271099744
0.054121000305384956,0.39258312020460356
0.05422279529028536,0.39258312020460356
0.05422279529028536,0.3929028132992327
0.0542397611211021,0.3929028132992327
0.0542397611211021,0.3932225063938619
0.05430762444436904,0.3932225063938619
0.05430762444436904,0.39354219948849106
0.05434155610600251,0.39354219948849106
0.05434155610600251,0.3938618925831202
0.05437548776763598,0.3938618925831202
0.054460316921719654,0.3938618925831202
0.054460316921719654,0.39418158567774936
0.054494248583353125,0.39418158567774936
0.054494248583353125,0.3945012787723785
0.05498625767703844,0.3945012787723785
0.05498625767703844,0.39482097186700765
0.05500322350785518,0.39482097186700765
0.05500322350785518,0.39514066496163686
0.05503715516948865,0.39514066496163686
0.05503715516948865,0.395460358056266
0.05527467680092294,0.395460358056266
0.05527467680092294,0.39578005115089515
0.05556309592480744,0.39578005115089515
0.05556309592480744,0.3960997442455243
0.05588544671032541,0.3960997442455243
0.05588544671032541,0.39705882352941174
0.056021173356859286,0.39705882352941174
0.056021173356859286,0.39737851662404094
0.056394421634827455,0.39737851662404094
0.056394421634827455,0.3976982097186701
0.05659801160462828,0.3976982097186701
0.05659801160462828,0.39801790281329924
0.056750704081978895,0.39801790281329924
0.056750704081978895,0.3983375959079284
0.05676766991279563,0.3983375959079284
0.05676766991279563,0.39865728900255754
0.05702215737504666,0.39865728900255754
0.05702215737504666,0.3989769820971867
0.0570900206983136,0.3989769820971867
0.0570900206983136,0.39929667519181583
0.05725967900648095,0.39929667519181583
0.05725967900648095,0.3999360613810742
0.057480234807098504,0.3999360613810742
0.057480234807098504,0.40025575447570333
0.057514166468731975,0.40025575447570333
0.057514166468731975,0.4005754475703325
0.05778561976179974,0.4005754475703325
0.05778561976179974,0.4008951406649616
0.05785348308506667,0.4008951406649616
0.05785348308506667,0.40121483375959077
0.05798920973160056,0.40121483375959077
0.05798920973160056,0.40153452685422
0.058124936378134436,0.40153452685422
0.058124936378134436,0.40217391304347827
0.05815886803976791,0.40217391304347827
0.05815886803976791,0.4024936061381074
0.05817583387058464,0.4024936061381074
0.05817583387058464,0.40281329923273657
0.05820976553221811,0.40281329923273657
0.05820976553221811,0.4031329923273657
0.05858301381018628,0.4031329923273657
0.05858301381018628,0.40345268542199486
0.05878660377998711,0.40345268542199486
0.05878660377998711,0.40377237851662406
0.0590241254114214,0.40377237851662406
0.0590241254114214,0.4040920716112532
0.059244681212038956,0.4040920716112532
0.059244681212038956,0.40441176470588236
0.05932951036612263,0.40441176470588236
0.05932951036612263,0.4047314578005115
0.059380407858572834,0.4047314578005115
0.059380407858572834,0.40505115089514065
0.059583997828373654,0.40505115089514065
0.059583997828373654,0.4053708439897698
0.0600420752604255,0.4053708439897698
0.0600420752604255,0.40569053708439895
0.06012690441450918,0.40569053708439895
0.06012690441450918,0.40601023017902815
0.06021173356859286,0.40601023017902815
0.06021173356859286,0.4063299232736573
0.06026263106104306,0.4063299232736573
0.06026263106104306,0.40664961636828645
0.06033049438431,0.40664961636828645
0.06033049438431,0.4069693094629156
0.06043228936921041,0.4069693094629156
0.06043228936921041,0.40728900255754474
0.06044925520002715,0.40728900255754474
0.06044925520002715,0.4076086956521739
0.06060194767737776,0.4076086956521739
0.06060194767737776,0.4079283887468031
0.060669811000644704,0.4079283887468031
0.060669811000644704,0.40824808184143224
0.061280580910047164,0.40824808184143224
0.061280580910047164,0.4085677749360614
0.061314512571680635,0.4085677749360614
0.061314512571680635,0.40888746803069054
0.0615859658647484,0.40888746803069054
0.0615859658647484,0.4092071611253197
0.061670795018832075,0.4092071611253197
0.061670795018832075,0.40952685421994883
0.06189135081944963,0.40952685421994883
0.06189135081944963,0.409846547314578
0.0619252824810831,0.409846547314578
0.0619252824810831,0.4101662404092072
0.0619761799735333,0.4101662404092072
0.06201011163516677,0.4101662404092072
0.0622645990974178,0.4101662404092072
0.0622645990974178,0.41048593350383633
0.062485154898035355,0.41048593350383633
0.062485154898035355,0.4108056265984655
0.06256998405211903,0.4108056265984655
0.06256998405211903,0.4114450127877238
0.06280750568355332,0.4114450127877238
0.06280750568355332,0.4120843989769821
0.0628414373451868,0.4120843989769821
0.0628414373451868,0.4124040920716113
0.06301109565335415,0.4124040920716113
0.06301109565335415,0.4127237851662404
0.0633334464388721,0.4127237851662404
0.0633334464388721,0.41304347826086957
0.06343524142377252,0.41304347826086957
0.06343524142377252,0.4133631713554987
0.06374062637847375,0.4133631713554987
0.06374062637847375,0.41368286445012786
0.06394421634827457,0.41368286445012786
0.06394421634827457,0.414002557544757
0.06404601133317499,0.414002557544757
0.06404601133317499,0.4143222506393862
0.06409690882562519,0.4143222506393862
0.06409690882562519,0.41464194373401536
0.06462284958094398,0.41464194373401536
0.06462284958094398,0.4149616368286445
0.06474161039666113,0.4149616368286445
0.06474161039666113,0.41528132992327366
0.06480947371992807,0.41528132992327366
0.06480947371992807,0.4156010230179028
0.06484340538156154,0.4156010230179028
0.06518272199789624,0.4156010230179028
0.06518272199789624,0.41592071611253195
0.06521665365952971,0.41592071611253195
0.06521665365952971,0.4162404092071611
0.06528451698279665,0.4162404092071611
0.06528451698279665,0.4165601023017903
0.06531844864443012,0.4165601023017903
0.06531844864443012,0.41687979539641945
0.06533541447524685,0.41687979539641945
0.06533541447524685,0.4171994884910486
0.06535238030606359,0.4171994884910486
0.06535238030606359,0.41751918158567775
0.06569169692239829,0.41751918158567775
0.06569169692239829,0.4178388746803069
0.06574259441484849,0.4178388746803069
0.06574259441484849,0.41815856777493604
0.06598011604628279,0.41815856777493604
0.06598011604628279,0.41847826086956524
0.06620067184690034,0.41847826086956524
0.06620067184690034,0.4187979539641944
0.06626853517016729,0.4187979539641944
0.06626853517016729,0.4194373401534527
0.06630246683180076,0.4194373401534527
0.06630246683180076,0.41975703324808183
0.06677751009466934,0.41975703324808183
0.06677751009466934,0.420076726342711
0.06681144175630281,0.420076726342711
0.06681144175630281,0.42039641943734013
0.06696413423365342,0.42039641943734013
0.06696413423365342,0.42071611253196933
0.0669980658952869,0.42071611253196933
0.06720165586508771,0.42071611253196933
0.06720165586508771,0.4210358056265985
0.06745614332733874,0.4210358056265985
0.06745614332733874,0.42135549872122763
0.06760883580468935,0.42135549872122763
0.06760883580468935,0.4216751918158568
0.06776152828203998,0.4216751918158568
0.06776152828203998,0.4219948849104859
0.06808387906755793,0.4219948849104859
0.06808387906755793,0.42231457800511507
0.06816870822164162,0.42231457800511507
0.06816870822164162,0.4226342710997442
0.06827050320654203,0.4226342710997442
0.06827050320654203,0.4229539641943734
0.06837229819144243,0.4229539641943734
0.0684062298530759,0.4229539641943734
0.06845712734552611,0.4229539641943734
0.06845712734552611,0.42327365728900257
0.06883037562349428,0.42327365728900257
0.06883037562349428,0.42391304347826086
0.0689321706083947,0.42391304347826086
0.0689321706083947,0.42423273657289
0.0689830681008449,0.42423273657289
0.0689830681008449,0.42455242966751916
0.06915272640901225,0.42455242966751916
0.06915272640901225,0.42487212276214836
0.06945811136371348,0.42487212276214836
0.06945811136371348,0.42551150895140666
0.06950900885616369,0.42551150895140666
0.06950900885616369,0.4258312020460358
0.06954294051779715,0.4258312020460358
0.06954294051779715,0.42615089514066495
0.06989922296494859,0.42615089514066495
0.06989922296494859,0.4264705882352941
0.0699501204573988,0.4264705882352941
0.0699501204573988,0.42679028132992325
0.0702385395812833,0.42679028132992325
0.0702385395812833,0.42710997442455245
0.07039123205863392,0.42710997442455245
0.07039123205863392,0.4274296675191816
0.07061178785925147,0.4274296675191816
0.07061178785925147,0.42774936061381075
0.07069661701333514,0.42774936061381075
0.07069661701333514,0.4280690537084399
0.07117166027620372,0.4280690537084399
0.07117166027620372,0.42838874680306904
0.0712055919378372,0.42838874680306904
0.0712055919378372,0.4287084398976982
0.07151097689253842,0.4287084398976982
0.07151097689253842,0.4290281329923274
0.07168063520070578,0.4290281329923274
0.07168063520070578,0.42934782608695654
0.07179939601642292,0.42934782608695654
0.07179939601642292,0.42998721227621484
0.07186725933968986,0.42998721227621484
0.07186725933968986,0.430306905370844
0.071986020155407,0.430306905370844
0.071986020155407,0.4309462915601023
0.07200298598622375,0.4309462915601023
0.07200298598622375,0.43158567774936063
0.07213871263275763,0.43158567774936063
0.07213871263275763,0.4322250639386189
0.07234230260255844,0.4322250639386189
0.07234230260255844,0.4328644501278772
0.07249499507990906,0.4328644501278772
0.07249499507990906,0.43318414322250637
0.07266465338807641,0.43318414322250637
0.07269858504970989,0.43318414322250637
0.07269858504970989,0.43350383631713557
0.07281734586542703,0.43350383631713557
0.07281734586542703,0.4338235294117647
0.07298700417359438,0.4338235294117647
0.07298700417359438,0.43414322250639387
0.07312273082012827,0.43414322250639387
0.07312273082012827,0.434462915601023
0.07325845746666214,0.434462915601023
0.07329238912829561,0.434462915601023
0.07329238912829561,0.43478260869565216
0.07332632078992908,0.43478260869565216
0.07332632078992908,0.4351023017902813
0.07358080825218011,0.4351023017902813
0.07358080825218011,0.4354219948849105
0.07361473991381358,0.4354219948849105
0.07364867157544705,0.4354219948849105
0.07373350072953072,0.4354219948849105
0.07373350072953072,0.43574168797953966
0.0738183298836144,0.43574168797953966
0.0738183298836144,0.4360613810741688
0.07385226154524788,0.4360613810741688
0.07385226154524788,0.43638107416879796
0.07402191985341522,0.43638107416879796
0.07402191985341522,0.4367007672634271
0.07403888568423196,0.4367007672634271
0.07403888568423196,0.43702046035805625
0.07431033897729972,0.43702046035805625
0.07431033897729972,0.4373401534526854
0.07437820230056666,0.4373401534526854
0.07437820230056666,0.43797953964194375
0.07439516813138339,0.43797953964194375
0.07439516813138339,0.4382992327365729
0.07459875810118421,0.4382992327365729
0.07459875810118421,0.43861892583120204
0.07466662142445116,0.43861892583120204
0.07470055308608463,0.43861892583120204
0.07476841640935157,0.43861892583120204
0.07476841640935157,0.43925831202046034
0.07497200637915238,0.43925831202046034
0.07497200637915238,0.4398976982097187
0.07529435716467035,0.4398976982097187
0.07529435716467035,0.440537084398977
0.07532828882630382,0.440537084398977
0.07532828882630382,0.44085677749360613
0.07543008381120424,0.44085677749360613
0.07543008381120424,0.4411764705882353
0.07559974211937158,0.4411764705882353
0.07559974211937158,0.44149616368286443
0.07573546876590546,0.44149616368286443
0.07573546876590546,0.44181585677749363
0.0758033320891724,0.44181585677749363
0.0758033320891724,0.4421355498721228
0.0758542295816226,0.4421355498721228
0.0758542295816226,0.4424552429667519
0.07617658036714058,0.4424552429667519
0.07617658036714058,0.4430946291560102
0.07631230701367446,0.4430946291560102
0.07631230701367446,0.44341432225063937
0.07632927284449119,0.44341432225063937
0.07632927284449119,0.4437340153452685
0.07663465779919243,0.4437340153452685
0.07663465779919243,0.4440537084398977
0.07687217943062671,0.4440537084398977
0.07690611109226018,0.4440537084398977
0.07736418852431204,0.4440537084398977
0.07736418852431204,0.44437340153452687
0.07753384683247938,0.44437340153452687
0.07753384683247938,0.444693094629156
0.07811068508024838,0.444693094629156
0.07811068508024838,0.44501278772378516
0.07838213837331615,0.44501278772378516
0.07838213837331615,0.4453324808184143
0.07839910420413287,0.4453324808184143
0.07839910420413287,0.44565217391304346
0.0786026941739337,0.44565217391304346
0.0786026941739337,0.4459718670076726
0.07875538665128431,0.4459718670076726
0.07875538665128431,0.4462915601023018
0.07890807912863493,0.4462915601023018
0.07890807912863493,0.44661125319693096
0.07892504495945167,0.44661125319693096
0.07892504495945167,0.4469309462915601
0.07907773743680228,0.4469309462915601
0.07907773743680228,0.44725063938618925
0.07909470326761901,0.44725063938618925
0.07909470326761901,0.4475703324808184
0.07914560076006923,0.4475703324808184
0.07914560076006923,0.44789002557544755
0.07919649825251943,0.44789002557544755
0.0792304299141529,0.44789002557544755
0.07953581486885412,0.44789002557544755
0.07953581486885412,0.44820971867007675
0.07970547317702148,0.44820971867007675
0.07970547317702148,0.4485294117647059
0.0798072681619219,0.4485294117647059
0.0798072681619219,0.44884910485933505
0.08004478979335618,0.44884910485933505
0.08004478979335618,0.4491687979539642
0.08006175562417292,0.4491687979539642
0.08007872145498965,0.44948849104859334
0.08007872145498965,0.45044757033248084
0.08028231142479048,0.45044757033248084
0.08028231142479048,0.45076726342711
0.08036714057887415,0.45076726342711
0.08036714057887415,0.45108695652173914
0.08046893556377456,0.45108695652173914
0.08046893556377456,0.4514066496163683
0.0805367988870415,0.4514066496163683
0.0805367988870415,0.45172634271099743
0.08074038885684232,0.45172634271099743
0.08074038885684232,0.4520460358056266
0.08119846628889417,0.4520460358056266
0.08119846628889417,0.4523657289002558
0.08130026127379458,0.4523657289002558
0.08130026127379458,0.45268542199488493
0.08187709952156356,0.45268542199488493
0.08187709952156356,0.4530051150895141
0.08201282616809745,0.4530051150895141
0.08201282616809745,0.4533248081841432
0.0821824844762648,0.4533248081841432
0.08221641613789828,0.4533248081841432
0.08235214278443215,0.4533248081841432
0.08235214278443215,0.45364450127877237
0.08291201520138441,0.45364450127877237
0.08294594686301789,0.45364450127877237
0.08321740015608564,0.45364450127877237
0.08321740015608564,0.4539641943734015
0.08330222931016931,0.4539641943734015
0.08330222931016931,0.45428388746803067
0.08337009263343625,0.45428388746803067
0.08337009263343625,0.454923273657289
0.08355671677242034,0.454923273657289
0.08355671677242034,0.45524296675191817
0.08359064843405381,0.45524296675191817
0.08359064843405381,0.4555626598465473
0.0836754775881375,0.4555626598465473
0.0836754775881375,0.45588235294117646
0.08374334091140444,0.45588235294117646
0.08374334091140444,0.4562020460358056
0.08382817006548811,0.4562020460358056
0.08382817006548811,0.45652173913043476
0.08404872586610566,0.45652173913043476
0.08404872586610566,0.45684143222506396
0.08425231583590649,0.45684143222506396
0.08425231583590649,0.4571611253196931
0.08437107665162363,0.4571611253196931
0.08437107665162363,0.45748081841432225
0.0846934274371416,0.45748081841432225
0.0846934274371416,0.4578005115089514
0.084795222422042,0.4578005115089514
0.084795222422042,0.45812020460358055
0.0853211631773608,0.45812020460358055
0.0853211631773608,0.4584398976982097
0.08552475314716161,0.4584398976982097
0.08552475314716161,0.4587595907928389
0.08569441145532897,0.4587595907928389
0.08569441145532897,0.45907928388746805
0.08620338637983102,0.45907928388746805
0.08620338637983102,0.4593989769820972
0.08623731804146449,0.4593989769820972
0.08623731804146449,0.45971867007672634
0.08625428387228122,0.45971867007672634
0.08625428387228122,0.4600383631713555
0.08627124970309796,0.4600383631713555
0.08627124970309796,0.46035805626598464
0.08708560958230124,0.46035805626598464
0.08708560958230124,0.4606777493606138
0.08805266193885515,0.4606777493606138
0.08805266193885515,0.460997442455243
0.08815445692375555,0.460997442455243
0.08815445692375555,0.46131713554987214
0.08835804689355638,0.46131713554987214
0.08835804689355638,0.4616368286445013
0.08845984187845679,0.4616368286445013
0.08845984187845679,0.46195652173913043
0.08849377354009026,0.46195652173913043
0.08849377354009026,0.4622762148337596
0.08883309015642496,0.4622762148337596
0.08883309015642496,0.4625959079283887
0.08920633843439313,0.4625959079283887
0.08920633843439313,0.4629156010230179
0.08968138169726171,0.4629156010230179
0.08968138169726171,0.4632352941176471
0.08983407417461232,0.4632352941176471
0.08983407417461232,0.4635549872122762
0.0898680058362458,0.4635549872122762
0.0898680058362458,0.4638746803069054
0.09025821994503071,0.4638746803069054
0.09025821994503071,0.4641943734015345
0.09027518577584745,0.4641943734015345
0.09027518577584745,0.46451406649616367
0.090495741576465,0.46451406649616367
0.090495741576465,0.4648337595907928
0.09052967323809848,0.4648337595907928
0.09052967323809848,0.465153452685422
0.09061450239218215,0.465153452685422
0.09061450239218215,0.4657928388746803
0.09069933154626582,0.4657928388746803
0.09069933154626582,0.46611253196930946
0.09078416070034949,0.46611253196930946
0.09078416070034949,0.4664322250639386
0.09081809236198296,0.4664322250639386
0.09081809236198296,0.4670716112531969
0.09091988734688337,0.4670716112531969
0.09091988734688337,0.4673913043478261
0.09110651148586746,0.4673913043478261
0.09110651148586746,0.46771099744245526
0.09134403311730176,0.46771099744245526
0.09134403311730176,0.4680306905370844
0.09137796477893523,0.4680306905370844
0.09137796477893523,0.46835038363171355
0.09168334973363645,0.46835038363171355
0.09168334973363645,0.4686700767263427
0.09229411964303892,0.4686700767263427
0.09229411964303892,0.46898976982097185
0.09285399205999118,0.46898976982097185
0.09285399205999118,0.46930946291560105
0.09288792372162465,0.46930946291560105
0.09288792372162465,0.4696291560102302
0.093057582029792,0.4696291560102302
0.093057582029792,0.46994884910485935
0.09314241118387567,0.46994884910485935
0.09314241118387567,0.4702685421994885
0.09326117199959282,0.4702685421994885
0.09326117199959282,0.47058823529411764
0.09360048861592753,0.47058823529411764
0.09360048861592753,0.4709079283887468
0.09361745444674426,0.4709079283887468
0.09361745444674426,0.47122762148337594
0.09377014692409487,0.47122762148337594
0.09377014692409487,0.47154731457800514
0.09392283940144548,0.47154731457800514
0.09395677106307895,0.47154731457800514
0.09424519018696345,0.47154731457800514
0.09424519018696345,0.4718670076726343
0.09451664348003122,0.4718670076726343
0.09451664348003122,0.47218670076726343
0.09455057514166469,0.47218670076726343
0.09455057514166469,0.4725063938618926
0.09456754097248142,0.4725063938618926
0.09456754097248142,0.47282608695652173
0.09497472091208306,0.47282608695652173
0.09497472091208306,0.4731457800511509
0.09500865257371653,0.4731457800511509
0.09500865257371653,0.47346547314578
0.09502561840453327,0.47346547314578
0.09502561840453327,0.47378516624040923
0.09507651589698347,0.47378516624040923
0.09507651589698347,0.4741048593350384
0.09524617420515083,0.4741048593350384
0.09524617420515083,0.4744245524296675
0.09526314003596756,0.4744245524296675
0.09526314003596756,0.47474424552429667
0.09531403752841777,0.47474424552429667
0.09531403752841777,0.47538363171355497
0.09544976417495164,0.47538363171355497
0.09544976417495164,0.47570332480818417
0.09548369583658511,0.47570332480818417
0.09551762749821859,0.47570332480818417
0.09560245665230227,0.47570332480818417
0.09560245665230227,0.4760230179028133
0.09565335414475247,0.4760230179028133
0.09565335414475247,0.47634271099744246
0.09575514912965288,0.47634271099744246
0.09575514912965288,0.4766624040920716
0.09599267076108717,0.4766624040920716
0.09599267076108717,0.47698209718670076
0.09607749991517085,0.47698209718670076
0.09607749991517085,0.4773017902813299
0.09617929490007125,0.4773017902813299
0.09617929490007125,0.47762148337595906
0.09629805571578841,0.47762148337595906
0.09629805571578841,0.47794117647058826
0.09634895320823861,0.47794117647058826
0.09634895320823861,0.47858056265984655
0.09643378236232228,0.47858056265984655
0.09643378236232228,0.4789002557544757
0.09723117641070883,0.4789002557544757
0.09723117641070883,0.47921994884910485
0.0975026297037766,0.47921994884910485
0.0975026297037766,0.47985933503836314
0.09774015133521088,0.47985933503836314
0.09774015133521088,0.48017902813299235
0.09779104882766108,0.48017902813299235
0.09779104882766108,0.4804987212276215
0.0981303654439958,0.4804987212276215
0.0981303654439958,0.48081841432225064
0.09821519459807947,0.48081841432225064
0.09821519459807947,0.4811381074168798
0.09840181873706355,0.4811381074168798
0.09840181873706355,0.48145780051150894
0.0984187845678803,0.48145780051150894
0.0984187845678803,0.4817774936061381
0.09860540870686438,0.4817774936061381
0.09863934036849785,0.4817774936061381
0.09908045196973296,0.4817774936061381
0.09908045196973296,0.4820971867007673
0.09916528112381663,0.4820971867007673
0.09916528112381663,0.48241687979539644
0.09957246106341827,0.48241687979539644
0.09960639272505174,0.48241687979539644
0.1001153676495538,0.48241687979539644
0.1001153676495538,0.48305626598465473
0.10089579586712362,0.48305626598465473
0.10089579586712362,0.483695652173913
0.10130297580672526,0.483695652173913
0.10130297580672526,0.4840153452685422
0.10206643819347834,0.4840153452685422
0.10206643819347834,0.4843350383631714
0.10293169556513182,0.4843350383631714
0.10293169556513182,0.4846547314578005
0.10320314885819959,0.4846547314578005
0.10320314885819959,0.4849744245524297
0.10322011468901632,0.4849744245524297
0.10322011468901632,0.48561381074168797
0.10345763632045062,0.48561381074168797
0.10345763632045062,0.4859335038363171
0.10349156798208409,0.4859335038363171
0.10349156798208409,0.4862531969309463
0.10361032879780123,0.4862531969309463
0.10361032879780123,0.48657289002557547
0.10408537206066981,0.48657289002557547
0.10408537206066981,0.4868925831202046
0.10428896203047064,0.4868925831202046
0.10428896203047064,0.48721227621483376
0.10489973193987309,0.48721227621483376
0.10489973193987309,0.4875319693094629
0.10522208272539106,0.4875319693094629
0.10522208272539106,0.48785166240409206
0.10559533100335923,0.48785166240409206
0.10559533100335923,0.4884910485933504
0.10569712598825964,0.4884910485933504
0.10569712598825964,0.48881074168797956
0.10610430592786128,0.48881074168797956
0.10610430592786128,0.4891304347826087
0.10627396423602864,0.4891304347826087
0.10627396423602864,0.48945012787723785
0.10637575922092905,0.48945012787723785
0.10640969088256252,0.48945012787723785
0.10691866580706458,0.48945012787723785
0.10691866580706458,0.489769820971867
0.1072240507617658,0.489769820971867
0.1072240507617658,0.49008951406649615
0.10734281157748295,0.49008951406649615
0.10734281157748295,0.4904092071611253
0.10739370906993316,0.4904092071611253
0.10739370906993316,0.4907289002557545
0.10746157239320009,0.4907289002557545
0.10746157239320009,0.49104859335038364
0.10763123070136744,0.49104859335038364
0.10763123070136744,0.4913682864450128
0.10781785484035153,0.4913682864450128
0.10781785484035153,0.49168797953964194
0.10786875233280174,0.49168797953964194
0.10786875233280174,0.4920076726342711
0.10810627396423603,0.4920076726342711
0.10810627396423603,0.49232736572890023
0.10827593227240338,0.49232736572890023
0.10827593227240338,0.49264705882352944
0.10875097553527197,0.49264705882352944
0.10875097553527197,0.4929667519181586
0.10897153133588952,0.4929667519181586
0.10897153133588952,0.49328644501278773
0.10932781378304096,0.49328644501278773
0.10932781378304096,0.4936061381074169
0.10946354042957483,0.4936061381074169
0.10946354042957483,0.49392583120204603
0.10961623290692545,0.49392583120204603
0.10961623290692545,0.4942455242966752
0.11021003698551118,0.4942455242966752
0.11021003698551118,0.4945652173913043
0.11024396864714466,0.4945652173913043
0.11024396864714466,0.4948849104859335
0.11034576363204505,0.4948849104859335
0.11034576363204505,0.4952046035805627
0.11087170438736385,0.4952046035805627
0.11087170438736385,0.4955242966751918
0.11092260187981405,0.4955242966751918
0.11092260187981405,0.49584398976982097
0.11099046520308099,0.49584398976982097
0.11099046520308099,0.49648337595907927
0.11168606426656713,0.49648337595907927
0.11168606426656713,0.4968030690537084
0.11173696175901734,0.4968030690537084
0.11173696175901734,0.4971227621483376
0.11190662006718469,0.4971227621483376
0.11190662006718469,0.49744245524296676
0.11214414169861898,0.49744245524296676
0.11214414169861898,0.4977621483375959
0.11251738997658715,0.4977621483375959
0.11251738997658715,0.49808184143222506
0.11255132163822062,0.49808184143222506
0.11255132163822062,0.4984015345268542
0.11273794577720471,0.4984015345268542
0.11273794577720471,0.49872122762148335
0.1128736724237386,0.49872122762148335
0.1128736724237386,0.49904092071611256
0.11295850157782227,0.49904092071611256
0.11295850157782227,0.49968030690537085
0.11304333073190594,0.49968030690537085
0.11304333073190594,0.5
0.11375589562620882,0.5
0.11375589562620882,0.5003196930946292
0.11421397305826066,0.5003196930946292
0.11421397305826066,0.5006393861892583
0.1145193580129619,0.5006393861892583
0.1145193580129619,0.5009590792838875
0.11489260629093007,0.5009590792838875
0.11489260629093007,0.5012787723785166
0.11490957212174681,0.5012787723785166
0.11490957212174681,0.5015984654731458
0.11513012792236436,0.5015984654731458
0.11513012792236436,0.5019181585677749
0.11519799124563129,0.5019181585677749
0.11519799124563129,0.5022378516624041
0.11585965864748397,0.5022378516624041
0.11585965864748397,0.5025575447570333
0.11636863357198603,0.5025575447570333
0.11636863357198603,0.5028772378516624
0.11684367683485461,0.5028772378516624
0.11684367683485461,0.5031969309462916
0.11759017339079095,0.5031969309462916
0.11759017339079095,0.5035166240409207
0.11855722574734484,0.5035166240409207
0.11855722574734484,0.5038363171355499
0.11870991822469547,0.5038363171355499
0.11870991822469547,0.504156010230179
0.11877778154796241,0.504156010230179
0.11877778154796241,0.5044757033248082
0.11898137151776322,0.5044757033248082
0.11898137151776322,0.5047953964194374
0.11899833734857997,0.5047953964194374
0.11899833734857997,0.5051150895140665
0.11915102982593058,0.5051150895140665
0.11915102982593058,0.5054347826086957
0.11918496148756405,0.5054347826086957
0.11921889314919752,0.5054347826086957
0.11925282481083099,0.5054347826086957
0.11925282481083099,0.5057544757033248
0.1194564147806318,0.5057544757033248
0.1194564147806318,0.506074168797954
0.11971090224288283,0.506074168797954
0.11971090224288283,0.5063938618925832
0.12021987716738489,0.5063938618925832
0.12021987716738489,0.5067135549872123
0.12038953547555224,0.5067135549872123
0.12038953547555224,0.5070332480818415
0.12040650130636897,0.5070332480818415
0.12040650130636897,0.5073529411764706
0.12098333955413797,0.5073529411764706
0.12098333955413797,0.5076726342710998
0.1210003053849547,0.5076726342710998
0.1210003053849547,0.5079923273657289
0.12150928030945675,0.5079923273657289
0.12150928030945675,0.5083120204603581
0.12152624614027349,0.5083120204603581
0.12152624614027349,0.5086317135549873
0.1216280411251739,0.5086317135549873
0.1216280411251739,0.5089514066496164
0.12234060601947677,0.5089514066496164
0.12234060601947677,0.5092710997442456
0.12347731668419802,0.5092710997442456
0.12347731668419802,0.5095907928388747
0.1235621458382817,0.5095907928388747
0.1235621458382817,0.5099104859335039
0.1236130433307319,0.5099104859335039
0.1236130433307319,0.510230179028133
0.12388449662379966,0.510230179028133
0.12388449662379966,0.5105498721227621
0.12398629160870007,0.5105498721227621
0.12398629160870007,0.5108695652173914
0.12408808659360049,0.5108695652173914
0.12408808659360049,0.5111892583120204
0.12413898408605069,0.5111892583120204
0.12413898408605069,0.5115089514066496
0.12463099317973601,0.5115089514066496
0.12463099317973601,0.5118286445012787
0.12464795901055274,0.5118286445012787
0.12468189067218621,0.5118286445012787
0.12490244647280377,0.5118286445012787
0.12490244647280377,0.5121483375959079
0.1250042414577042,0.5121483375959079
0.1250042414577042,0.512468030690537
0.12524176308913848,0.512468030690537
0.12524176308913848,0.5127877237851662
0.1256828746903736,0.5127877237851662
0.1256828746903736,0.5131074168797954
0.1258355671677242,0.5131074168797954
0.1258355671677242,0.5134271099744245
0.1259712938142581,0.5134271099744245
0.1259712938142581,0.5137468030690537
0.12617488378405892,0.5137468030690537
0.12617488378405892,0.5140664961636828
0.12676868786264464,0.5140664961636828
0.12676868786264464,0.514386189258312
0.12681958535509483,0.514386189258312
0.12681958535509483,0.5147058823529411
0.12693834617081198,0.5147058823529411
0.12693834617081198,0.5150255754475703
0.12704014115571238,0.5150255754475703
0.12704014115571238,0.5153452685421995
0.12712497030979608,0.5153452685421995
0.12712497030979608,0.5156649616368286
0.12749821858776425,0.5156649616368286
0.12749821858776425,0.5159846547314578
0.12793933018899936,0.5159846547314578
0.12793933018899936,0.5163043478260869
0.12802415934308303,0.5163043478260869
0.12802415934308303,0.5166240409207161
0.12870279257575243,0.5166240409207161
0.12870279257575243,0.5169437340153452
0.12917783583862102,0.5169437340153452
0.12917783583862102,0.5172634271099744
0.12944928913168877,0.5172634271099744
0.12944928913168877,0.5175831202046036
0.12978860574802348,0.5175831202046036
0.12978860574802348,0.5179028132992327
0.12985646907129042,0.5179028132992327
0.12985646907129042,0.5182225063938619
0.12989040073292388,0.5182225063938619
0.12990736656374063,0.518542199488491
0.12992433239455736,0.518542199488491
0.12992433239455736,0.5188618925831202
0.1306708289504937,0.5188618925831202
0.1306708289504937,0.5191815856777494
0.13068779478131043,0.5191815856777494
0.13068779478131043,0.5195012787723785
0.13109497472091208,0.5195012787723785
0.13109497472091208,0.5198209718670077
0.13141732550643004,0.5198209718670077
0.13141732550643004,0.5201406649616368
0.13160394964541414,0.5201406649616368
0.13160394964541414,0.520460358056266
0.13180753961521496,0.520460358056266
0.13180753961521496,0.5207800511508951
0.13219775372399986,0.5207800511508951
0.13219775372399986,0.5210997442455243
0.13223168538563335,0.5210997442455243
0.13223168538563335,0.5214194373401535
0.13233348037053375,0.5214194373401535
0.13233348037053375,0.5217391304347826
0.1323674120321672,0.5217391304347826
0.13282548946421907,0.5217391304347826
0.13282548946421907,0.5220588235294118
0.13297818194156968,0.5220588235294118
0.13297818194156968,0.5223785166240409
0.13331749855790437,0.5223785166240409
0.13331749855790437,0.5226982097186701
0.13369074683587256,0.5226982097186701
0.13369074683587256,0.5230179028132992
0.13374164432832275,0.5230179028132992
0.13374164432832275,0.5233375959079284
0.13423365342200808,0.5233375959079284
0.13423365342200808,0.5239769820971867
0.13435241423772523,0.5239769820971867
0.13435241423772523,0.5242966751918159
0.13460690169997624,0.5242966751918159
0.13460690169997624,0.524616368286445
0.1350140816395779,0.524616368286445
0.1350140816395779,0.5249360613810742
0.1351158766244783,0.5249360613810742
0.1351158766244783,0.5252557544757033
0.1352176716093787,0.5252557544757033
0.1352176716093787,0.5255754475703325
0.13535339825591258,0.5255754475703325
0.13535339825591258,0.5258951406649617
0.13576057819551424,0.5258951406649617
0.13576057819551424,0.5262148337595908
0.13706694716840284,0.5262148337595908
0.13706694716840284,0.52653452685422
0.13730446879983713,0.52653452685422
0.1373384004614706,0.52653452685422
0.13764378541617184,0.52653452685422
0.1376777170778053,0.52653452685422
0.1376777170778053,0.5268542199488491
0.13777951206270572,0.5268542199488491
0.13777951206270572,0.5271739130434783
0.13808489701740695,0.5271739130434783
0.13808489701740695,0.5274936061381074
0.1383563503104747,0.5274936061381074
0.1383563503104747,0.5278132992327366
0.13855994028027552,0.5278132992327366
0.13855994028027552,0.5281329923273658
0.1389840860506939,0.5281329923273658
0.13901801771232739,0.5281329923273658
0.13944216348274574,0.5281329923273658
0.13944216348274574,0.5287723785166241
0.1406806691323674,0.5287723785166241
0.1406806691323674,0.5294117647058824
0.14113874656441927,0.5294117647058824
0.14113874656441927,0.5297314578005116
0.14122357571850294,0.5297314578005116
0.14122357571850294,0.5300511508951407
0.14132537070340334,0.5300511508951407
0.14132537070340334,0.5303708439897699
0.14142716568830377,0.5303708439897699
0.14142716568830377,0.530690537084399
0.14156289233483763,0.530690537084399
0.14156289233483763,0.5310102301790282
0.14161378982728784,0.5310102301790282
0.14161378982728784,0.5313299232736572
0.141987038105256,0.5313299232736572
0.141987038105256,0.5316496163682864
0.14220759390587356,0.5316496163682864
0.14220759390587356,0.5319693094629157
0.14273353466119235,0.5319693094629157
0.14273353466119235,0.5322890025575447
0.1429540904618099,0.5322890025575447
0.1429880221234434,0.5322890025575447
0.1430898171083438,0.5322890025575447
0.1430898171083438,0.532608695652174
0.1432425095856944,0.532608695652174
0.1432425095856944,0.532928388746803
0.1432934070781446,0.532928388746803
0.1432934070781446,0.5332480818414322
0.14341216789386177,0.5332480818414322
0.14341216789386177,0.5335677749360613
0.1434800312171287,0.5335677749360613
0.1434800312171287,0.5338874680306905
0.143717552848563,0.5338874680306905
0.143717552848563,0.5345268542199488
0.1437684503410132,0.5345268542199488
0.1437684503410132,0.534846547314578
0.14436225441959893,0.534846547314578
0.14436225441959893,0.5351662404092071
0.14492212683655117,0.5351662404092071
0.14492212683655117,0.5354859335038363
0.14493909266736793,0.5354859335038363
0.14493909266736793,0.5358056265984654
0.14514268263716873,0.5358056265984654
0.14514268263716873,0.5361253196930946
0.14527840928370261,0.5361253196930946
0.14527840928370261,0.5364450127877238
0.14577041837738794,0.5364450127877238
0.14577041837738794,0.5367647058823529
0.14621152997862305,0.5367647058823529
0.14624546164025654,0.5367647058823529
0.1463811882867904,0.5367647058823529
0.1463811882867904,0.5370843989769821
0.14651691493332428,0.5370843989769821
0.14651691493332428,0.5374040920716112
0.14668657324149165,0.5374040920716112
0.14668657324149165,0.5377237851662404
0.1469580265345594,0.5377237851662404
0.1469580265345594,0.5380434782608695
0.14704285568864306,0.5380434782608695
0.14704285568864306,0.5383631713554987
0.1471446506735435,0.5383631713554987
0.1471446506735435,0.539002557544757
0.14726341148926064,0.539002557544757
0.14726341148926064,0.5393222506393862
0.14753486478232838,0.5393222506393862
0.14753486478232838,0.5396419437340153
0.14809473719928065,0.5396419437340153
0.14809473719928065,0.5399616368286445
0.14875640460113332,0.5399616368286445
0.14875640460113332,0.5402813299232737
0.1489939262325676,0.5402813299232737
0.1489939262325676,0.5406010230179028
0.14914661870991822,0.5406010230179028
0.14914661870991822,0.540920716112532
0.14941807200298599,0.540920716112532
0.14941807200298599,0.5412404092071611
0.14951986698788639,0.5412404092071611
0.14951986698788639,0.5418797953964194
0.14960469614197008,0.5418797953964194
0.14960469614197008,0.5421994884910486
0.15031726103627294,0.5421994884910486
0.15031726103627294,0.5425191815856778
0.15067354348342438,0.5425191815856778
0.15067354348342438,0.5428388746803069
0.15162363000916154,0.5428388746803069
0.15162363000916154,0.5431585677749361
0.1517084591632452,0.5431585677749361
0.1517084591632452,0.5434782608695652
0.1517932883173289,0.5434782608695652
0.1517932883173289,0.5437979539641944
0.15269247735061586,0.5437979539641944
0.15269247735061586,0.5441176470588235
0.15279427233551626,0.5441176470588235
0.15279427233551626,0.5444373401534527
0.15294696481286688,0.5444373401534527
0.15294696481286688,0.5447570332480819
0.1530487597977673,0.5447570332480819
0.1530487597977673,0.545076726342711
0.1531505547826677,0.545076726342711
0.1531505547826677,0.5453964194373402
0.15320145227511792,0.5453964194373402
0.15320145227511792,0.5457161125319693
0.15398188049268774,0.5457161125319693
0.15398188049268774,0.5463554987212276
0.15438906043228937,0.5463554987212276
0.15438906043228937,0.5466751918158568
0.1545926504020902,0.5466751918158568
0.1545926504020902,0.546994884910486
0.15525431780394286,0.546994884910486
0.15525431780394286,0.5473145780051151
0.1552712836347596,0.5473145780051151
0.1552712836347596,0.5476342710997443
0.15540701028129347,0.5476342710997443
0.15540701028129347,0.5479539641943734
0.15549183943537714,0.5479539641943734
0.15549183943537714,0.5482736572890026
0.15564453191272776,0.5482736572890026
0.15564453191272776,0.5485933503836317
0.15593295103661226,0.5485933503836317
0.15593295103661226,0.5489130434782609
0.15601778019069593,0.5489130434782609
0.1560517118523294,0.5489130434782609
0.1560517118523294,0.5492327365728901
0.15623833599131348,0.5492327365728901
0.15623833599131348,0.5495524296675192
0.1570187642088833,0.5495524296675192
0.1570187642088833,0.5498721227621484
0.1570526958705168,0.5498721227621484
0.15708662753215025,0.5498721227621484
0.15762953411828579,0.5498721227621484
0.15766346577991924,0.5498721227621484
0.15825726985850497,0.5498721227621484
0.15825726985850497,0.5501918158567775
0.15854568898238947,0.5501918158567775
0.15854568898238947,0.5505115089514067
0.15983509212446134,0.5505115089514067
0.15983509212446134,0.5508312020460358
0.160496759526314,0.5508312020460358
0.160496759526314,0.551150895140665
0.16058158868039768,0.551150895140665
0.16058158868039768,0.5514705882352942
0.16064945200366462,0.5514705882352942
0.16068338366529808,0.5514705882352942
0.1607851786501985,0.5514705882352942
0.1607851786501985,0.5521099744245525
0.1608360761426487,0.5521099744245525
0.1608360761426487,0.5527493606138107
0.16090393946591564,0.5527493606138107
0.16090393946591564,0.55306905370844
0.16110752943571646,0.55306905370844
0.16114146109734995,0.55306905370844
0.1611753927589834,0.55306905370844
0.1612093244206169,0.55306905370844
0.16124325608225035,0.55306905370844
0.16124325608225035,0.553388746803069
0.1614977435445014,0.553388746803069
0.1614977435445014,0.5537084398976982
0.16151470937531812,0.5537084398976982
0.16151470937531812,0.5540281329923273
0.16180312849920261,0.5540281329923273
0.16180312849920261,0.5543478260869565
0.16187099182246956,0.5543478260869565
0.16187099182246956,0.5546675191815856
0.16188795765328629,0.5546675191815856
0.16188795765328629,0.5549872122762148
0.16249872756268874,0.5549872122762148
0.16249872756268874,0.555306905370844
0.16322825828780835,0.555306905370844
0.16322825828780835,0.5556265984654731
0.16353364324250957,0.5556265984654731
0.16353364324250957,0.5559462915601023
0.16355060907332633,0.5559462915601023
0.16355060907332633,0.5562659846547314
0.1635845407349598,0.5562659846547314
0.1635845407349598,0.5565856777493606
0.16375419904312713,0.5565856777493606
0.16375419904312713,0.5569053708439897
0.16426317396762918,0.5569053708439897
0.16426317396762918,0.5572250639386189
0.16482304638458145,0.5572250639386189
0.16482304638458145,0.5575447570332481
0.16490787553866512,0.5575447570332481
0.16490787553866512,0.5578644501278772
0.16512843133928268,0.5578644501278772
0.16512843133928268,0.5581841432225064
0.16550167961725085,0.5581841432225064
0.16550167961725085,0.5585038363171355
0.16558650877133455,0.5585038363171355
0.16558650877133455,0.5588235294117647
0.16584099623358556,0.5588235294117647
0.16584099623358556,0.5591432225063938
0.1665874927895219,0.5591432225063938
0.1665874927895219,0.559462915601023
0.16670625360523905,0.559462915601023
0.16670625360523905,0.5597826086956522
0.1668250144209562,0.5597826086956522
0.1668250144209562,0.5601023017902813
0.16711343354484068,0.5601023017902813
0.16711343354484068,0.5604219948849105
0.16730005768382478,0.5604219948849105
0.16730005768382478,0.5607416879795396
0.16748668182280887,0.5607416879795396
0.16748668182280887,0.5610613810741688
0.16753757931525906,0.5610613810741688
0.16753757931525906,0.5617007672634271
0.16799565674731093,0.5617007672634271
0.16799565674731093,0.5620204603580563
0.16816531505547827,0.5620204603580563
0.16816531505547827,0.5623401534526854
0.16835193919446234,0.5623401534526854
0.16835193919446234,0.5626598465473146
0.1683689050252791,0.5626598465473146
0.1683689050252791,0.5629795396419437
0.16840283668691255,0.5629795396419437
0.16840283668691255,0.5632992327365729
0.16928505988938278,0.5632992327365729
0.16928505988938278,0.5636189258312021
0.16957347901326728,0.5636189258312021
0.16957347901326728,0.5639386189258312
0.16979403481388483,0.5639386189258312
0.16979403481388483,0.5642583120204604
0.16989582979878526,0.5642583120204604
0.16989582979878526,0.5645780051150895
0.17004852227613587,0.5645780051150895
0.17004852227613587,0.5648976982097187
0.17026907807675343,0.5648976982097187
0.17026907807675343,0.5652173913043478
0.1704557022157375,0.5652173913043478
0.1704557022157375,0.565537084398977
0.17055749720063793,0.565537084398977
0.17055749720063793,0.5658567774936062
0.17128702792575753,0.5658567774936062
0.171320959587391,0.5658567774936062
0.17135489124902448,0.5658567774936062
0.17135489124902448,0.5661764705882353
0.17155848121882528,0.5661764705882353
0.17155848121882528,0.5664961636828645
0.17216925112822776,0.5664961636828645
0.17216925112822776,0.5668158567774936
0.17225408028231143,0.5668158567774936
0.17225408028231143,0.5671355498721228
0.17323809846968205,0.5671355498721228
0.17323809846968205,0.5674552429667519
0.17357741508601676,0.5674552429667519
0.17361134674765022,0.5674552429667519
0.173882800040718,0.5674552429667519
0.173882800040718,0.5677749360613811
0.1739336975331682,0.5677749360613811
0.17396762919480166,0.5677749360613811
0.17439177496522004,0.5677749360613811
0.17439177496522004,0.5684143222506394
0.17445963828848698,0.5684143222506394
0.17445963828848698,0.5687340153452686
0.17500254487462252,0.5687340153452686
0.17500254487462252,0.5690537084398977
0.1753757931525907,0.5690537084398977
0.1753757931525907,0.5693734015345269
0.1759186997387262,0.5693734015345269
0.1759186997387262,0.569693094629156
0.17669912795629603,0.569693094629156
0.17669912795629603,0.5700127877237852
0.1767839571103797,0.5700127877237852
0.1767839571103797,0.5703324808184144
0.17695361541854704,0.5703324808184144
0.17698754708018052,0.5703324808184144
0.17710630789589765,0.5703324808184144
0.17714023955753114,0.5703324808184144
0.1774625903430491,0.5703324808184144
0.1774625903430491,0.5709718670076727
0.17756438532794952,0.5709718670076727
0.17756438532794952,0.5712915601023018
0.17766618031284992,0.5712915601023018
0.17766618031284992,0.571611253196931
0.17788673611346748,0.571611253196931
0.17788673611346748,0.57193094629156
0.17800549692918463,0.57193094629156
0.17800549692918463,0.5725703324808185
0.1788198568083879,0.5725703324808185
0.1788198568083879,0.5728900255754475
0.1794984900410573,0.5728900255754475
0.1795324217026908,0.5728900255754475
0.17956635336432425,0.5728900255754475
0.17956635336432425,0.5732097186700768
0.17976994333412508,0.5732097186700768
0.17976994333412508,0.5735294117647058
0.18097451732211325,0.5735294117647058
0.18100844898374674,0.5735294117647058
0.18121203895354757,0.5735294117647058
0.18121203895354757,0.573849104859335
0.18134776560008142,0.573849104859335
0.18134776560008142,0.5741687979539642
0.18178887720131656,0.5741687979539642
0.18178887720131656,0.5748081841432225
0.18245054460316923,0.5748081841432225
0.18245054460316923,0.5751278772378516
0.18328187031318924,0.5751278772378516
0.18328187031318924,0.5754475703324808
0.18351939194462352,0.5754475703324808
0.18351939194462352,0.5757672634271099
0.18382477689932475,0.5757672634271099
0.18382477689932475,0.5760869565217391
0.18399443520749212,0.5760869565217391
0.18399443520749212,0.5764066496163683
0.18409623019239252,0.5764066496163683
0.18409623019239252,0.5767263427109974
0.184130161854026,0.5767263427109974
0.18416409351565946,0.5767263427109974
0.18426588850055986,0.5767263427109974
0.18426588850055986,0.5770460358056266
0.18460520511689457,0.5770460358056266
0.18460520511689457,0.5773657289002557
0.1847748634250619,0.5773657289002557
0.1847748634250619,0.5776854219948849
0.1851481117030301,0.5776854219948849
0.1851481117030301,0.578005115089514
0.18618302738285095,0.578005115089514
0.18618302738285095,0.5783248081841432
0.1862169590444844,0.5783248081841432
0.1862169590444844,0.5786445012787724
0.1862508907061179,0.5786445012787724
0.1862508907061179,0.5792838874680307
0.18628482236775135,0.5792838874680307
0.18628482236775135,0.5796035805626598
0.18672593396898646,0.5796035805626598
0.18672593396898646,0.579923273657289
0.18716704557022157,0.579923273657289
0.18716704557022157,0.5802429667519181
0.18745546469410607,0.5802429667519181
0.18745546469410607,0.5805626598465473
0.1879135421261579,0.5805626598465473
0.1879135421261579,0.5812020460358056
0.18811713209595873,0.5812020460358056
0.18811713209595873,0.5815217391304348
0.18826982457330935,0.5815217391304348
0.18826982457330935,0.5818414322250639
0.18874486783617794,0.5818414322250639
0.18874486783617794,0.5821611253196931
0.18884666282107834,0.5821611253196931
0.18884666282107834,0.5824808184143222
0.18903328696006244,0.5824808184143222
0.18903328696006244,0.5828005115089514
0.1891181161141461,0.5828005115089514
0.18915204777577957,0.5828005115089514
0.18920294526822978,0.5828005115089514
0.18920294526822978,0.5831202046035806
0.18938956940721388,0.5831202046035806
0.18938956940721388,0.5837595907928389
0.18986461267008245,0.5837595907928389
0.18986461267008245,0.584079283887468
0.19054324590275185,0.584079283887468
0.19057717756438533,0.584079283887468
0.19190051236809066,0.584079283887468
0.19190051236809066,0.5843989769820972
0.19200230735299106,0.5843989769820972
0.19200230735299106,0.5847186700767263
0.19205320484544128,0.5847186700767263
0.19205320484544128,0.5850383631713555
0.19257914560076006,0.5850383631713555
0.19257914560076006,0.5856777493606138
0.19279970140137762,0.5856777493606138
0.19279970140137762,0.585997442455243
0.19288453055546131,0.585997442455243
0.19291846221709477,0.585997442455243
0.1930881205252621,0.585997442455243
0.1931220521868956,0.585997442455243
0.19320688134097927,0.585997442455243
0.19320688134097927,0.5863171355498721
0.1934104713107801,0.5863171355498721
0.1934104713107801,0.5866368286445013
0.19347833463404704,0.5866368286445013
0.19347833463404704,0.5869565217391305
0.19402124122018255,0.5869565217391305
0.19402124122018255,0.5872762148337596
0.1942757286824336,0.5872762148337596
0.1942757286824336,0.5879156010230179
0.19514098605408706,0.5879156010230179
0.19514098605408706,0.5882352941176471
0.19534457602388788,0.5882352941176471
0.19537850768552137,0.5882352941176471
0.19561602931695565,0.5882352941176471
0.19561602931695565,0.5885549872122762
0.19634556004207526,0.5885549872122762
0.19634556004207526,0.5888746803069054
0.19643038919615893,0.5888746803069054
0.19643038919615893,0.5891943734015346
0.19644735502697566,0.5891943734015346
0.19644735502697566,0.5895140664961637
0.19646432085779242,0.5895140664961637
0.19646432085779242,0.5904731457800512
0.19700722744392793,0.5904731457800512
0.19700722744392793,0.5907928388746803
0.1970920565980116,0.5907928388746803
0.1970920565980116,0.5911125319693095
0.19726171490617894,0.5911125319693095
0.19726171490617894,0.5914322250639387
0.19773675816904754,0.5914322250639387
0.19773675816904754,0.5917519181585678
0.19819483560109938,0.5917519181585678
0.19819483560109938,0.592071611253197
0.19921278545010349,0.592071611253197
0.19921278545010349,0.592391304347826
0.19977265786705575,0.592391304347826
0.19977265786705575,0.5930306905370843
0.19978962369787248,0.5930306905370843
0.19978962369787248,0.5933503836317136
0.19987445285195615,0.5933503836317136
0.19987445285195615,0.5936700767263428
0.2004173594380917,0.5936700767263428
0.20045129109972515,0.5936700767263428
0.20053612025380882,0.5936700767263428
0.20053612025380882,0.5939897698209718
0.20062094940789252,0.5939897698209718
0.20062094940789252,0.594309462915601
0.2006718469003427,0.594309462915601
0.2006718469003427,0.5946291560102301
0.20131654847137864,0.5946291560102301
0.20131654847137864,0.5949488491048593
0.2014353092870958,0.5949488491048593
0.20146924094872926,0.5949488491048593
0.2015371042719962,0.5949488491048593
0.2015371042719962,0.5952685421994884
0.2015880017644464,0.5952685421994884
0.2015880017644464,0.5955882352941176
0.2017237284109803,0.5955882352941176
0.2017237284109803,0.5959079283887468
0.2018764208883309,0.5959079283887468
0.2018764208883309,0.5962276214833759
0.20189338671914764,0.5962276214833759
0.20189338671914764,0.5965473145780051
0.20253808829018358,0.5965473145780051
0.20253808829018358,0.5968670076726342
0.20321672152285297,0.5968670076726342
0.20321672152285297,0.5971867007672634
0.2032336873536697,0.5971867007672634
0.2032336873536697,0.5975063938618926
0.2035730039700044,0.5975063938618926
0.2035730039700044,0.5978260869565217
0.20392928641715585,0.5978260869565217
0.20392928641715585,0.5981457800511509
0.20403108140205625,0.5981457800511509
0.20403108140205625,0.59846547314578
0.2040989447253232,0.59846547314578
0.2040989447253232,0.5987851662404092
0.20420073971022362,0.5987851662404092
0.20420073971022362,0.5994245524296675
0.20421770554104035,0.5997442455242967
0.20430253469512402,0.5997442455242967
0.20430253469512402,0.600383631713555
0.20437039801839096,0.600383631713555
0.20437039801839096,0.6007033248081841
0.20503206542024363,0.6007033248081841
0.20503206542024363,0.6010230179028133
0.20532048454412813,0.6010230179028133
0.2053544162057616,0.6010230179028133
0.2062366394082318,0.6010230179028133
0.2062366394082318,0.6013427109974424
0.20628753690068202,0.6013427109974424
0.20628753690068202,0.6016624040920716
0.20650809270129958,0.6016624040920716
0.20650809270129958,0.6019820971867008
0.20654202436293306,0.6019820971867008
0.20654202436293306,0.6023017902813299
0.2076787350276543,0.6023017902813299
0.2076787350276543,0.6026214833759591
0.20778053001255473,0.6026214833759591
0.20778053001255473,0.6029411764705882
0.2089342065080927,0.6029411764705882
0.2089342065080927,0.6032608695652174
0.209171728139527,0.6032608695652174
0.209171728139527,0.6035805626598465
0.20929048895524413,0.6035805626598465
0.20929048895524413,0.6039002557544757
0.20964677140239557,0.6039002557544757
0.20964677140239557,0.6042199488491049
0.2097146347256625,0.6042199488491049
0.2097146347256625,0.604539641943734
0.21017271215771435,0.604539641943734
0.21020664381934784,0.604539641943734
0.21035933629669845,0.604539641943734
0.21035933629669845,0.6048593350383632
0.21112279868345152,0.6048593350383632
0.21112279868345152,0.6051790281329923
0.211156730345085,0.6051790281329923
0.21119066200671846,0.6051790281329923
0.21147908113060296,0.6051790281329923
0.21147908113060296,0.6054987212276215
0.21152997862305317,0.6054987212276215
0.21152997862305317,0.6058184143222506
0.2115469444538699,0.6058184143222506
0.2115469444538699,0.6061381074168798
0.211733568592854,0.6061381074168798
0.21176750025448746,0.6061381074168798
0.21203895354755523,0.6061381074168798
0.21203895354755523,0.606457800511509
0.21261579179532422,0.606457800511509
0.21261579179532422,0.6067774936061381
0.2133283566896271,0.6067774936061381
0.2133283566896271,0.6070971867007673
0.21351498082861117,0.6070971867007673
0.21351498082861117,0.6074168797953964
0.21380339995249567,0.6074168797953964
0.21380339995249567,0.6077365728900256
0.21456686233924877,0.6077365728900256
0.21456686233924877,0.6080562659846548
0.21465169149333244,0.6080562659846548
0.21465169149333244,0.6083759590792839
0.21466865732414916,0.6083759590792839
0.21466865732414916,0.6086956521739131
0.21490617895558345,0.6086956521739131
0.21490617895558345,0.6090153452685422
0.21538122221845205,0.6090153452685422
0.21538122221845205,0.6093350383631714
0.2158562654813206,0.6093350383631714
0.2158562654813206,0.6096547314578005
0.21663669369889044,0.6096547314578005
0.21663669369889044,0.6099744245524297
0.2167554545146076,0.6099744245524297
0.2167554545146076,0.6102941176470589
0.21689118116114145,0.6102941176470589
0.21689118116114145,0.610613810741688
0.21709477113094228,0.610613810741688
0.21709477113094228,0.6109335038363172
0.21726442943910965,0.6109335038363172
0.21726442943910965,0.6112531969309463
0.21763767771707782,0.6112531969309463
0.21763767771707782,0.6115728900255755
0.21767160937871127,0.6115728900255755
0.21767160937871127,0.6118925831202046
0.21770554104034476,0.6118925831202046
0.21770554104034476,0.6122122762148338
0.21896101252078315,0.6122122762148338
0.21896101252078315,0.612531969309463
0.21938515829120153,0.612531969309463
0.21938515829120153,0.6128516624040921
0.22006379152387093,0.6128516624040921
0.22006379152387093,0.6134910485933504
0.22096298055715788,0.6134910485933504
0.22096298055715788,0.6141304347826086
0.2210138780496081,0.6141304347826086
0.2210138780496081,0.6144501278772379
0.2211665705269587,0.6144501278772379
0.2211665705269587,0.614769820971867
0.2214549896508432,0.614769820971867
0.2214549896508432,0.6150895140664961
0.22176037460554443,0.6150895140664961
0.22176037460554443,0.6154092071611253
0.22182823792881137,0.6154092071611253
0.22186216959044486,0.6154092071611253
0.22215058871432933,0.6154092071611253
0.22215058871432933,0.6157289002557544
0.22238811034576364,0.6157289002557544
0.22238811034576364,0.6160485933503836
0.22264259780801465,0.6160485933503836
0.22264259780801465,0.6163682864450127
0.22349088934885142,0.6163682864450127
0.22349088934885142,0.6166879795396419
0.22398289844253674,0.6166879795396419
0.22398289844253674,0.6170076726342711
0.22405076176580366,0.6170076726342711
0.22405076176580366,0.6173273657289002
0.22413559091988736,0.6173273657289002
0.22413559091988736,0.6176470588235294
0.22423738590478776,0.6176470588235294
0.22423738590478776,0.6179667519181585
0.22428828339723797,0.6179667519181585
0.22428828339723797,0.6182864450127877
0.22442401004377185,0.6182864450127877
0.22442401004377185,0.6186061381074168
0.2245936683519392,0.6186061381074168
0.2245936683519392,0.618925831202046
0.22481422415255675,0.618925831202046
0.22481422415255675,0.6192455242966752
0.22534016490787553,0.6192455242966752
0.22534016490787553,0.6195652173913043
0.22552678904685963,0.6195652173913043
0.22552678904685963,0.6198849104859335
0.22588307149401107,0.6198849104859335
0.22588307149401107,0.6202046035805626
0.22620542227952903,0.6202046035805626
0.22620542227952903,0.6205242966751918
0.22622238811034576,0.6205242966751918
0.22622238811034576,0.620843989769821
0.22752875708323436,0.620843989769821
0.22756268874486785,0.620843989769821
0.2280207661769197,0.620843989769821
