fpr,tpr
0.0,0.0
0.0,9.150805270863836e-05
0.0,0.004849926793557833
5.037732617303604e-06,0.004849926793557833
5.037732617303604e-06,0.07055270863836018
1.0075465234607208e-05,0.07055270863836018
1.0075465234607208e-05,0.09489385065885798
1.5113197851910811e-05,0.09489385065885798
1.5113197851910811e-05,0.11960102489019034
2.0150930469214415e-05,0.11960102489019034
2.0150930469214415e-05,0.12564055636896046
2.518866308651802e-05,0.12564055636896046
2.518866308651802e-05,0.14604685212298682
3.0226395703821623e-05,0.14604685212298682
3.0226395703821623e-05,0.15236090775988287
3.526412832112523e-05,0.15236090775988287
3.526412832112523e-05,0.16773426061493413
4.030186093842883e-05,0.16773426061493413
4.030186093842883e-05,0.17185212298682284
4.533959355573244e-05,0.17185212298682284
4.533959355573244e-05,0.17834919472913616
4.533959355573244e-05,0.17853221083455345
4.533959355573244e-05,0.18301610541727673
5.037732617303604e-05,0.18301610541727673
5.037732617303604e-05,0.1929904831625183
5.5415058790339646e-05,0.1929904831625183
5.5415058790339646e-05,0.19747437774524157
6.0452791407643246e-05,0.19747437774524157
6.0452791407643246e-05,0.19756588579795023
7.052825664225046e-05,0.19756588579795023
7.052825664225046e-05,0.2025073206442167
7.556598925955406e-05,0.2025073206442167
7.556598925955406e-05,0.20259882869692533
8.060372187685766e-05,0.20259882869692533
8.060372187685766e-05,0.20644216691068815
8.564145449416126e-05,0.20644216691068815
8.564145449416126e-05,0.20763177159590043
9.067918711146488e-05,0.20763177159590043
9.067918711146488e-05,0.20772327964860907
9.571691972876848e-05,0.20772327964860907
9.571691972876848e-05,0.2144948755490483
0.00010075465234607208,0.2144948755490483
0.00010075465234607208,0.2177891654465593
0.00010579238496337569,0.2177891654465593
0.00010579238496337569,0.22135797950219618
0.00011083011758067929,0.22135797950219618
0.00011083011758067929,0.229502196193265
0.00011586785019798289,0.229502196193265
0.00011586785019798289,0.22986822840409957
0.00012090558281528649,0.22986822840409957
0.00012090558281528649,0.2326134699853587
0.0001259433154325901,0.2326134699853587
0.0001259433154325901,0.23636530014641288
0.0001309810480498937,0.23636530014641288
0.0001309810480498937,0.24185578330893118
0.00013601878066719732,0.24185578330893118
0.00013601878066719732,0.24267935578330893
0.00014609424590180452,0.24267935578330893
0.00014609424590180452,0.2428623718887262
0.00015113197851910812,0.2428623718887262
0.00015113197851910812,0.24698023426061494
0.00015616971113641172,0.24698023426061494
0.00015616971113641172,0.24752928257686677
0.00016120744375371532,0.24752928257686677
0.00016120744375371532,0.2557650073206442
0.00016624517637101892,0.2557650073206442
0.00016624517637101892,0.25750366032210836
0.00017128290898832252,0.25750366032210836
0.00017128290898832252,0.25841874084919475
0.00017632064160562615,0.25841874084919475
0.00017632064160562615,0.2600658857979502
0.00018135837422292975,0.2600658857979502
0.00018135837422292975,0.26125549048316254
0.00018639610684023335,0.26125549048316254
0.00018639610684023335,0.26308565153733526
0.00019143383945753695,0.26308565153733526
0.00019143383945753695,0.26372620790629575
0.00019647157207484055,0.26372620790629575
0.00019647157207484055,0.26418374816983897
0.00020150930469214415,0.26418374816983897
0.00020150930469214415,0.2670204978038067
0.00020654703730944775,0.2670204978038067
0.00020654703730944775,0.2685761346998536
0.00021158476992675138,0.2685761346998536
0.00021158476992675138,0.27232796486090777
0.00021662250254405498,0.27232796486090777
0.00021662250254405498,0.27278550512445093
0.00022166023516135858,0.27278550512445093
0.00022166023516135858,0.2730600292825769
0.00023173570039596578,0.2730600292825769
0.00023173570039596578,0.27543923865300146
0.00023677343301326938,0.27543923865300146
0.00023677343301326938,0.2814787701317716
0.00024181116563057298,0.2814787701317716
0.00024181116563057298,0.28202781844802344
0.0002468488982478766,0.28202781844802344
0.0002468488982478766,0.28358345534407026
0.0002518866308651802,0.28358345534407026
0.0002518866308651802,0.28523060029282576
0.0002569243634824838,0.28523060029282576
0.0002569243634824838,0.28953147877013174
0.0002619620960997874,0.28953147877013174
0.0002619620960997874,0.29401537335285505
0.000266999828717091,0.29401537335285505
0.000266999828717091,0.29428989751098095
0.00027203756133439464,0.29428989751098095
0.00027203756133439464,0.2951134699853587
0.0002770752939516982,0.2951134699853587
0.0002770752939516982,0.2953879941434846
0.00028211302656900184,0.2953879941434846
0.00028211302656900184,0.2957540263543192
0.0002871507591863054,0.2957540263543192
0.0002871507591863054,0.29776720351390923
0.00029218849180360904,0.29776720351390923
0.00029218849180360904,0.2979502196193265
0.0002972262244209126,0.2979502196193265
0.0002972262244209126,0.2986822840409956
0.00030226395703821624,0.2986822840409956
0.00030226395703821624,0.30161054172767204
0.00031233942227282344,0.30161054172767204
0.00031233942227282344,0.30499633967789164
0.00031737715489012707,0.30499633967789164
0.00031737715489012707,0.30728404099560763
0.00032241488750743065,0.30728404099560763
0.00032241488750743065,0.3080161054172767
0.00032745262012473427,0.3080161054172767
0.00032745262012473427,0.30829062957540265
0.00033249035274203785,0.30829062957540265
0.00033249035274203785,0.30984626647144947
0.0003375280853593415,0.30984626647144947
0.0003375280853593415,0.3115849194729136
0.00034256581797664505,0.3115849194729136
0.00034256581797664505,0.3137811127379209
0.0003476035505939487,0.3137811127379209
0.0003476035505939487,0.3146961932650073
0.0003476035505939487,0.3148792093704246
0.0003476035505939487,0.3150622254758419
0.0003526412832112523,0.3150622254758419
0.0003526412832112523,0.3166178623718887
0.0003576790158285559,0.3166178623718887
0.0003576790158285559,0.31670937042459735
0.0003627167484458595,0.31670937042459735
0.0003627167484458595,0.3172584187408492
0.0003677544810631631,0.3172584187408492
0.0003677544810631631,0.3241215226939971
0.0003727922136804667,0.3241215226939971
0.0003727922136804667,0.3267752562225476
0.0003778299462977703,0.3267752562225476
0.0003778299462977703,0.3273243045387994
0.0003828676789150739,0.3273243045387994
0.0003828676789150739,0.32741581259150804
0.00038790541153237753,0.32741581259150804
0.00038790541153237753,0.3283308931185944
0.0003929431441496811,0.3283308931185944
0.0003929431441496811,0.3286054172767203
0.00039798087676698473,0.3286054172767203
0.00039798087676698473,0.32878843338213765
0.0004030186093842883,0.32878843338213765
0.0004030186093842883,0.33052708638360173
0.00040805634200159193,0.33052708638360173
0.00040805634200159193,0.3306185944363104
0.0004130940746188955,0.3306185944363104
0.0004130940746188955,0.33354685212298685
0.00041813180723619913,0.33354685212298685
0.00041813180723619913,0.3339128843338214
0.00042316953985350276,0.3339128843338214
0.00042316953985350276,0.3386713030746706
0.00042820727247080634,0.3386713030746706
0.00042820727247080634,0.34269765739385066
0.00043324500508810996,0.34269765739385066
0.00043324500508810996,0.3453513909224012
0.00043828273770541354,0.3453513909224012
0.00043828273770541354,0.34672401171303074
0.00044332047032271716,0.34672401171303074
0.00044332047032271716,0.346907027818448
0.00044835820294002074,0.346907027818448
0.00044835820294002074,0.34800512445095166
0.00045339593555732436,0.34800512445095166
0.00045339593555732436,0.3523060029282577
0.00045843366817462794,0.3523060029282577
0.00045843366817462794,0.35349560761347
0.00046347140079193157,0.35349560761347
0.00046347140079193157,0.3538616398243045
0.00047354686602653877,0.3538616398243045
0.00047354686602653877,0.35431918008784774
0.0004785845986438424,0.35431918008784774
0.0004785845986438424,0.3552342606149341
0.00048362233126114597,0.3552342606149341
0.00048362233126114597,0.35697291361639827
0.0004886600638784495,0.35697291361639827
0.0004886600638784495,0.35743045387994143
0.0004936977964957532,0.35743045387994143
0.0004936977964957532,0.35779648609077597
0.0004987355291130568,0.35779648609077597
0.0004987355291130568,0.36081625183016103
0.0005037732617303604,0.36081625183016103
0.0005037732617303604,0.36200585651537337
0.0005138487269649676,0.36200585651537337
0.0005138487269649676,0.370699121522694
0.0005188864595822712,0.370699121522694
0.0005188864595822712,0.3724377745241581
0.0005239241921995748,0.3724377745241581
0.0005239241921995748,0.37271229868228406
0.0005289619248168785,0.37271229868228406
0.0005289619248168785,0.3728038067349927
0.000533999657434182,0.3728038067349927
0.000533999657434182,0.3787518301610542
0.0005390373900514856,0.3787518301610542
0.0005390373900514856,0.3790263543191801
0.0005440751226687893,0.3790263543191801
0.0005440751226687893,0.3804904831625183
0.0005491128552860929,0.3804904831625183
0.0005491128552860929,0.3818631039531479
0.0005541505879033964,0.3818631039531479
0.0005541505879033964,0.38305270863836016
0.0005591883205207,0.38305270863836016
0.0005591883205207,0.38341874084919475
0.0005642260531380037,0.38341874084919475
0.0005642260531380037,0.38497437774524157
0.0005692637857553073,0.38497437774524157
0.0005692637857553073,0.3850658857979502
0.0005743015183726108,0.3850658857979502
0.0005743015183726108,0.38616398243045386
0.0005793392509899145,0.38616398243045386
0.0005793392509899145,0.38808565153733526
0.0005843769836072181,0.38808565153733526
0.0005843769836072181,0.39000732064421667
0.0005894147162245217,0.39000732064421667
0.0005894147162245217,0.3900988286969253
0.0005894147162245217,0.3902818448023426
0.0005944524488418252,0.3902818448023426
0.0005944524488418252,0.3904648609077599
0.0005994901814591289,0.3904648609077599
0.0005994901814591289,0.3914714494875549
0.0006045279140764325,0.3914714494875549
0.0006045279140764325,0.3933931185944363
0.0006095656466937361,0.3933931185944363
0.0006095656466937361,0.3945827232796486
0.0006146033793110396,0.3945827232796486
0.0006146033793110396,0.3952232796486091
0.0006196411119283433,0.3952232796486091
0.0006196411119283433,0.39632137628111275
0.0006246788445456469,0.39632137628111275
0.0006246788445456469,0.39659590043923865
0.0006297165771629505,0.39659590043923865
0.0006297165771629505,0.39879209370424595
0.0006397920423975577,0.39879209370424595
0.0006397920423975577,0.3988836017569546
0.0006448297750148613,0.3988836017569546
0.0006448297750148613,0.3990666178623719
0.0006498675076321649,0.3990666178623719
0.0006498675076321649,0.3996156661786237
0.0006549052402494685,0.3996156661786237
0.0006549052402494685,0.399798682284041
0.0006599429728667721,0.399798682284041
0.0006599429728667721,0.4005307467057101
0.0006649807054840757,0.4005307467057101
0.0006649807054840757,0.4009882869692533
0.0006700184381013794,0.4009882869692533
0.0006700184381013794,0.4011713030746706
0.000675056170718683,0.4011713030746706
0.000675056170718683,0.40135431918008785
0.0006800939033359865,0.40135431918008785
0.0006800939033359865,0.4017203513909224
0.0006851316359532901,0.4017203513909224
0.0006851316359532901,0.401811859443631
0.0006901693685705938,0.401811859443631
0.0006901693685705938,0.40391654465592974
0.0006952071011878973,0.40391654465592974
0.0006952071011878973,0.4040080527086384
0.0007002448338052009,0.4040080527086384
0.0007002448338052009,0.40675329428989754
0.0007052825664225046,0.40675329428989754
0.0007052825664225046,0.40730234260614934
0.0007103202990398082,0.40730234260614934
0.0007103202990398082,0.4103221083455344
0.0007153580316571118,0.4103221083455344
0.0007153580316571118,0.4118777452415813
0.0007203957642744153,0.4118777452415813
0.0007203957642744153,0.41215226939970717
0.000725433496891719,0.41215226939970717
0.000725433496891719,0.4126098096632504
0.0007304712295090226,0.4126098096632504
0.0007304712295090226,0.41279282576866766
0.0007355089621263262,0.41279282576866766
0.0007355089621263262,0.4144399707174231
0.0007405466947436298,0.4144399707174231
0.0007405466947436298,0.41471449487554907
0.000750622159978237,0.41471449487554907
0.000750622159978237,0.4148060029282577
0.0007556598925955406,0.4148060029282577
0.0007556598925955406,0.41654465592972184
0.0007606976252128442,0.41654465592972184
0.0007606976252128442,0.4182833089311859
0.0007657353578301478,0.4182833089311859
0.0007657353578301478,0.4186493411420205
0.0007707730904474514,0.4186493411420205
0.0007707730904474514,0.41901537335285505
0.0007758108230647551,0.41901537335285505
0.0007758108230647551,0.4191983894582723
0.0007808485556820586,0.4191983894582723
0.0007808485556820586,0.4201134699853587
0.0007858862882993622,0.4201134699853587
0.0007858862882993622,0.4220351390922401
0.0007909240209166658,0.4220351390922401
0.0007909240209166658,0.42285871156661786
0.0007959617535339695,0.42285871156661786
0.0007959617535339695,0.4232247437774524
0.000800999486151273,0.4232247437774524
0.000800999486151273,0.42404831625183015
0.0008060372187685766,0.42404831625183015
0.0008060372187685766,0.42468887262079064
0.0008110749513858803,0.42468887262079064
0.0008110749513858803,0.42505490483162517
0.0008211504166204874,0.42505490483162517
0.0008211504166204874,0.4257869692532943
0.000826188149237791,0.4257869692532943
0.000826188149237791,0.42596998535871156
0.0008312258818550947,0.42596998535871156
0.0008312258818550947,0.4260614934114202
0.0008362636144723983,0.4260614934114202
0.0008362636144723983,0.42761713030746706
0.0008413013470897018,0.42761713030746706
0.0008413013470897018,0.42853221083455345
0.0008463390797070055,0.42853221083455345
0.0008463390797070055,0.4291727672035139
0.0008513768123243091,0.4291727672035139
0.0008513768123243091,0.429904831625183
0.0008614522775589162,0.429904831625183
0.0008614522775589162,0.431185944363104
0.0008664900101762199,0.431185944363104
0.0008664900101762199,0.4314604685212299
0.0008715277427935235,0.4314604685212299
0.0008715277427935235,0.4320095168374817
0.0008765654754108271,0.4320095168374817
0.0008765654754108271,0.43237554904831627
0.0008816032080281306,0.43237554904831627
0.0008816032080281306,0.4324670571010249
0.0008866409406454343,0.4324670571010249
0.0008866409406454343,0.43265007320644217
0.0008916786732627379,0.43265007320644217
0.0008916786732627379,0.43283308931185943
0.0008967164058800415,0.43283308931185943
0.0008967164058800415,0.4330161054172767
0.0009017541384973452,0.4330161054172767
0.0009017541384973452,0.4334736456808199
0.0009067918711146487,0.4334736456808199
0.0009067918711146487,0.4337481698389458
0.0009219050689665596,0.4337481698389458
0.0009219050689665596,0.43484626647144947
0.0009269428015838631,0.43484626647144947
0.0009269428015838631,0.4353953147877013
0.0009319805342011667,0.4353953147877013
0.0009319805342011667,0.4359443631039531
0.0009370182668184704,0.4359443631039531
0.0009370182668184704,0.4365849194729136
0.000942055999435774,0.4365849194729136
0.000942055999435774,0.43731698389458273
0.0009470937320530775,0.43731698389458273
0.0009470937320530775,0.438506588579795
0.0009521314646703811,0.438506588579795
0.0009521314646703811,0.4387811127379209
0.0009571691972876848,0.4387811127379209
0.0009571691972876848,0.4404282576866764
0.0009622069299049884,0.4404282576866764
0.0009622069299049884,0.4406112737920937
0.0009672446625222919,0.4406112737920937
0.0009672446625222919,0.4419838945827233
0.0009722823951395956,0.44207540263543194
0.0009722823951395956,0.4422584187408492
0.000977320127756899,0.4422584187408492
0.000977320127756899,0.4434480234260615
0.0009823578603742028,0.4434480234260615
0.0009823578603742028,0.444088579795022
0.0009873955929915064,0.444088579795022
0.0009873955929915064,0.44555270863836016
0.0010025087908434173,0.44555270863836016
0.0010025087908434173,0.446101756954612
0.0010075465234607207,0.446101756954612
0.0010075465234607207,0.4466508052708638
0.0010125842560780244,0.4466508052708638
0.0010125842560780244,0.44784040995607616
0.001017621988695328,0.44784040995607616
0.001017621988695328,0.4479319180087848
0.0010276974539299352,0.4479319180087848
0.0010276974539299352,0.44976207906295756
0.0010327351865472387,0.44976207906295756
0.0010327351865472387,0.45021961932650073
0.001042810651781846,0.45021961932650073
0.001042810651781846,0.4511346998535871
0.0010478483843991495,0.4511346998535871
0.0010478483843991495,0.45122620790629575
0.0010528861170164532,0.45122620790629575
0.0010528861170164532,0.4513177159590044
0.001057923849633757,0.4513177159590044
0.001057923849633757,0.45150073206442165
0.0010629615822510604,0.45150073206442165
0.0010629615822510604,0.4515922401171303
0.001067999314868364,0.4515922401171303
0.001067999314868364,0.45186676427525624
0.0010730370474856677,0.45186676427525624
0.0010730370474856677,0.45195827232796487
0.0010831125127202749,0.45195827232796487
0.0010831125127202749,0.45214128843338214
0.0010881502453375786,0.45214128843338214
0.0010881502453375786,0.45250732064421667
0.001093187977954882,0.45250732064421667
0.001093187977954882,0.4533308931185944
0.0010982257105721857,0.4533308931185944
0.0010982257105721857,0.4536054172767203
0.0011083011758067929,0.4536054172767203
0.0011083011758067929,0.453696925329429
0.0011133389084240965,0.453696925329429
0.0011133389084240965,0.4548865300146413
0.0011183766410414,0.4548865300146413
0.0011183766410414,0.4551610541727672
0.0011234143736587037,0.4551610541727672
0.0011234143736587037,0.4578147877013177
0.0011284521062760074,0.4578147877013177
0.0011284521062760074,0.45818081991215226
0.0011334898388933108,0.45818081991215226
0.0011334898388933108,0.45845534407027816
0.0011385275715106145,0.45845534407027816
0.0011385275715106145,0.4594619326500732
0.0011435653041279182,0.4594619326500732
0.0011435653041279182,0.46046852122986826
0.0011486030367452217,0.46046852122986826
0.0011486030367452217,0.4609260614934114
0.0011637162345971325,0.4609260614934114
0.0011637162345971325,0.46129209370424595
0.0011687539672144362,0.46129209370424595
0.0011687539672144362,0.4630307467057101
0.0011737916998317396,0.4630307467057101
0.0011737916998317396,0.4634882869692533
0.001183867165066347,0.4634882869692533
0.001183867165066347,0.46357979502196195
0.0011889048976836505,0.46357979502196195
0.0011889048976836505,0.46504392386530014
0.0011939426303009541,0.46504392386530014
0.0011939426303009541,0.4663250366032211
0.0011989803629182578,0.4663250366032211
0.0011989803629182578,0.46696559297218154
0.0012040180955355613,0.46696559297218154
0.0012040180955355613,0.4671486090775988
0.001209055828152865,0.4671486090775988
0.001209055828152865,0.4675146412884334
0.0012140935607701687,0.4675146412884334
0.0012140935607701687,0.46788067349926793
0.0012241690260047758,0.46788067349926793
0.0012241690260047758,0.46815519765739383
0.0012292067586220793,0.46815519765739383
0.0012292067586220793,0.46824670571010246
0.001234244491239383,0.46824670571010246
0.001234244491239383,0.4687042459736457
0.0012392822238566866,0.4687042459736457
0.0012392822238566866,0.46916178623718885
0.0012493576890912938,0.46916178623718885
0.0012493576890912938,0.47016837481698387
0.0012543954217085975,0.47016837481698387
0.0012543954217085975,0.47025988286969256
0.001259433154325901,0.47025988286969256
0.001259433154325901,0.4706259150805271
0.0012644708869432046,0.4706259150805271
0.0012644708869432046,0.4713579795021962
0.0012695086195605083,0.4713579795021962
0.0012695086195605083,0.471907027818448
0.0012745463521778118,0.471907027818448
0.0012745463521778118,0.47199853587115664
0.0012795840847951154,0.47199853587115664
0.0012795840847951154,0.47218155197657397
0.0012846218174124191,0.47218155197657397
0.0012846218174124191,0.47273060029282576
0.0012896595500297226,0.47273060029282576
0.0012896595500297226,0.4728221083455344
0.0012946972826470263,0.4728221083455344
0.0012946972826470263,0.473188140556369
0.001309810480498937,0.473188140556369
0.001309810480498937,0.47392020497803805
0.0013148482131162406,0.47392020497803805
0.0013148482131162406,0.4747437774524158
0.0013198859457335442,0.4747437774524158
0.0013198859457335442,0.47492679355783307
0.001324923678350848,0.47492679355783307
0.001324923678350848,0.47556734992679356
0.001334999143585455,0.47556734992679356
0.001334999143585455,0.4756588579795022
0.0013400368762027587,0.4756588579795022
0.0013400368762027587,0.4759333821376281
0.0013450746088200622,0.4759333821376281
0.0013450746088200622,0.47620790629575405
0.001360187806671973,0.47620790629575405
0.001360187806671973,0.4773060029282577
0.0013652255392892767,0.4773060029282577
0.0013652255392892767,0.47812957540263545
0.0013702632719065802,0.47812957540263545
0.0013702632719065802,0.47849560761347
0.0013753010045238839,0.47849560761347
0.0013753010045238839,0.4787701317715959
0.0013803387371411876,0.4787701317715959
0.0013803387371411876,0.4788616398243045
0.001385376469758491,0.4788616398243045
0.001385376469758491,0.47895314787701315
0.0013904142023757947,0.47895314787701315
0.0013904142023757947,0.4794106881405564
0.0013954519349930984,0.4794106881405564
0.0013954519349930984,0.47986822840409954
0.0014004896676104018,0.47986822840409954
0.0014004896676104018,0.4804172767203514
0.0014055274002277055,0.4804172767203514
0.0014055274002277055,0.4806918008784773
0.0014105651328450092,0.4806918008784773
0.0014105651328450092,0.48087481698389456
0.0014156028654623127,0.48087481698389456
0.0014156028654623127,0.48096632503660325
0.0014206405980796164,0.48096632503660325
0.0014206405980796164,0.4810578330893119
0.00142567833069692,0.4810578330893119
0.00142567833069692,0.48124084919472915
0.0014357537959315272,0.48124084919472915
0.0014357537959315272,0.4816983894582723
0.0014407915285488306,0.4816983894582723
0.0014407915285488306,0.48178989751098095
0.0014458292611661343,0.48178989751098095
0.0014458292611661343,0.48243045387994143
0.0014559047264007415,0.48243045387994143
0.0014559047264007415,0.4826134699853587
0.0014609424590180452,0.4826134699853587
0.0014609424590180452,0.4830710102489019
0.0014659801916353488,0.4830710102489019
0.0014659801916353488,0.48316251830161056
0.001476055656869956,0.48316251830161056
0.001476055656869956,0.4839860907759883
0.0014810933894872597,0.4839860907759883
0.0014810933894872597,0.4841691068814056
0.0014861311221045631,0.4841691068814056
0.0014861311221045631,0.48462664714494874
0.0014911688547218668,0.48462664714494874
0.0014911688547218668,0.4847181551976574
0.001501244319956474,0.4847181551976574
0.001501244319956474,0.48526720351390923
0.0015062820525737776,0.48526720351390923
0.0015062820525737776,0.48627379209370425
0.001511319785191081,0.48627379209370425
0.001511319785191081,0.4867313323572474
0.0015213952504256885,0.4867313323572474
0.0015213952504256885,0.48700585651537337
0.001526432983042992,0.48700585651537337
0.001526432983042992,0.4873718887262079
0.0015314707156602956,0.4873718887262079
0.0015314707156602956,0.48755490483162517
0.0015365084482775993,0.48755490483162517
0.0015365084482775993,0.4882869692532943
0.0015415461808949028,0.4882869692532943
0.0015415461808949028,0.4895680819912152
0.0015465839135122064,0.4895680819912152
0.0015465839135122064,0.48965959004392384
0.0015516216461295101,0.48965959004392384
0.0015516216461295101,0.4902086383601757
0.0015566593787468136,0.4902086383601757
0.0015566593787468136,0.49030014641288433
0.0015616971113641173,0.49030014641288433
0.0015616971113641173,0.49057467057101023
0.0015717725765987244,0.49057467057101023
0.0015717725765987244,0.4911237188872621
0.001576810309216028,0.4911237188872621
0.001576810309216028,0.49130673499267935
0.0015868857744506353,0.49130673499267935
0.0015868857744506353,0.4914897510980966
0.001591923507067939,0.4914897510980966
0.001591923507067939,0.4918557833089312
0.0015969612396852424,0.4918557833089312
0.0015969612396852424,0.4931368960468521
0.001601998972302546,0.4931368960468521
0.001601998972302546,0.49350292825768666
0.0016070367049198498,0.49350292825768666
0.0016070367049198498,0.4935944363103953
0.001617112170154457,0.4935944363103953
0.001617112170154457,0.493685944363104
0.0016221499027717606,0.493685944363104
0.0016221499027717606,0.4937774524158126
0.001627187635389064,0.4937774524158126
0.001627187635389064,0.49414348462664714
0.0016322253680063677,0.49414348462664714
0.0016322253680063677,0.4943265007320644
0.0016372631006236712,0.4943265007320644
0.0016372631006236712,0.49478404099560763
0.0016423008332409749,0.49478404099560763
0.0016423008332409749,0.49505856515373353
0.0016473385658582786,0.49505856515373353
0.0016473385658582786,0.4956076134699854
0.001652376298475582,0.4956076134699854
0.001652376298475582,0.4971632503660322
0.0016574140310928857,0.4971632503660322
0.0016574140310928857,0.49725475841874084
0.0016624517637101894,0.49725475841874084
0.0016624517637101894,0.49771229868228406
0.0016674894963274929,0.49771229868228406
0.0016674894963274929,0.4980783308931186
0.0016725272289447965,0.4980783308931186
0.0016725272289447965,0.4984443631039531
0.0016775649615621002,0.4984443631039531
0.0016775649615621002,0.4985358711566618
0.0016876404267967074,0.4985358711566618
0.0016876404267967074,0.4987188872620791
0.001692678159414011,0.4987188872620791
0.001692678159414011,0.4990849194729136
0.0017027536246486182,0.4990849194729136
0.0017027536246486182,0.49917642752562225
0.0017077913572659217,0.49917642752562225
0.0017077913572659217,0.4992679355783309
0.001717866822500529,0.4992679355783309
0.001717866822500529,0.49954245973645683
0.0017279422877351362,0.49954245973645683
0.0017279422877351362,0.4997254758418741
0.0017329800203524399,0.4997254758418741
0.0017329800203524399,0.5009150805270863
0.0017380177529697433,0.5009150805270863
0.0017380177529697433,0.5010065885797951
0.001743055485587047,0.5010065885797951
0.001743055485587047,0.5016471449487555
0.0017480932182043507,0.5016471449487555
0.0017480932182043507,0.5024707174231332
0.0017581686834389578,0.5024707174231332
0.0017581686834389578,0.5027452415812591
0.0017632064160562613,0.5027452415812591
0.0017632064160562613,0.5029282576866764
0.001768244148673565,0.5029282576866764
0.001768244148673565,0.5030197657393851
0.0017732818812908687,0.5030197657393851
0.0017732818812908687,0.503294289897511
0.0017783196139081721,0.503294289897511
0.0017783196139081721,0.5034773060029283
0.0017833573465254758,0.5034773060029283
0.0017833573465254758,0.5035688140556369
0.0017883950791427795,0.5035688140556369
0.0017883950791427795,0.5040263543191801
0.0018035082769946903,0.5040263543191801
0.0018035082769946903,0.504300878477306
0.0018085460096119938,0.504300878477306
0.0018085460096119938,0.5046669106881405
0.0018186214748466011,0.5046669106881405
0.0018186214748466011,0.5048499267935578
0.0018236592074639046,0.5048499267935578
0.0018236592074639046,0.5053074670571011
0.0018337346726985118,0.5053074670571011
0.0018337346726985118,0.5057650073206442
0.0018387724053158154,0.5057650073206442
0.0018387724053158154,0.5064055636896047
0.0018438101379331191,0.5064055636896047
0.0018438101379331191,0.5065885797950219
0.0018488478705504226,0.5065885797950219
0.0018488478705504226,0.507595168374817
0.0018538856031677263,0.507595168374817
0.0018538856031677263,0.5079612005856515
0.00185892333578503,0.5079612005856515
0.00185892333578503,0.5082357247437774
0.001868998801019637,0.5082357247437774
0.001868998801019637,0.508601756954612
0.0018790742662542442,0.508601756954612
0.0018790742662542442,0.5086932650073206
0.001884111998871548,0.5086932650073206
0.001884111998871548,0.5090592972181552
0.001894187464106155,0.5090592972181552
0.001894187464106155,0.5095168374816984
0.0018992251967234587,0.5095168374816984
0.0018992251967234587,0.5098828696925329
0.0019143383945753696,0.5098828696925329
0.0019143383945753696,0.5100658857979502
0.001919376127192673,0.5100658857979502
0.001919376127192673,0.5101573938506588
0.0019244138598099767,0.5101573938506588
0.0019244138598099767,0.5102489019033675
0.0019294515924272804,0.5102489019033675
0.0019294515924272804,0.5104319180087847
0.0019395270576618876,0.5104319180087847
0.0019395270576618876,0.5105234260614934
0.0019445647902791912,0.5105234260614934
0.0019445647902791912,0.5112554904831625
0.0019496025228964947,0.5112554904831625
0.0019496025228964947,0.511896046852123
0.001954640255513798,0.511896046852123
0.001954640255513798,0.5120790629575402
0.001959677988131102,0.5120790629575402
0.001959677988131102,0.5121705710102489
0.0019647157207484055,0.5121705710102489
0.0019647157207484055,0.512628111273792
0.001969753453365709,0.512628111273792
0.001969753453365709,0.512902635431918
0.001974791185983013,0.512902635431918
0.001974791185983013,0.5137262079062958
0.0019798289186003164,0.5137262079062958
0.0019798289186003164,0.5140007320644217
0.001994942116452227,0.5140007320644217
0.001994942116452227,0.5140922401171303
0.0020050175816868345,0.5140922401171303
0.0020050175816868345,0.5145497803806734
0.002010055314304138,0.5145497803806734
0.002010055314304138,0.5150988286969254
0.0020150930469214415,0.5150988286969254
0.0020150930469214415,0.5153733528550513
0.0020201307795387454,0.5153733528550513
0.0020201307795387454,0.5158308931185944
0.002025168512156049,0.5158308931185944
0.002025168512156049,0.5159224011713031
0.0020302062447733523,0.5159224011713031
0.0020302062447733523,0.5177525622254758
0.002035243977390656,0.5177525622254758
0.002035243977390656,0.5180270863836017
0.0020402817100079597,0.5180270863836017
0.0020402817100079597,0.5184846266471449
0.002050357175242567,0.5184846266471449
0.002050357175242567,0.5189421669106882
0.0020553949078598705,0.5189421669106882
0.0020553949078598705,0.5191251830161054
0.002060432640477174,0.5191251830161054
0.002060432640477174,0.5193997071742313
0.0020654703730944774,0.5193997071742313
0.0020654703730944774,0.51949121522694
0.002075545838329085,0.51949121522694
0.002075545838329085,0.5196742313323572
0.0020805835709463883,0.5196742313323572
0.0020805835709463883,0.5198572474377745
0.0020906590361809956,0.5198572474377745
0.0020906590361809956,0.5204062957540263
0.002095696768798299,0.5204062957540263
0.002095696768798299,0.5209553440702782
0.002100734501415603,0.5209553440702782
0.002100734501415603,0.5211383601756955
0.0021057722340329064,0.5211383601756955
0.0021057722340329064,0.5213213762811127
0.00211080996665021,0.5213213762811127
0.00211080996665021,0.5224194729136163
0.002115847699267514,0.5224194729136163
0.002115847699267514,0.522785505124451
0.0021208854318848173,0.522785505124451
0.0021208854318848173,0.5229685212298683
0.0021309608971194246,0.5229685212298683
0.0021309608971194246,0.5233345534407028
0.002135998629736728,0.5233345534407028
0.002135998629736728,0.52351756954612
0.0021410363623540316,0.52351756954612
0.0021410363623540316,0.5246156661786238
0.002151111827588639,0.5246156661786238
0.002151111827588639,0.5247071742313324
0.0021561495602059424,0.5247071742313324
0.0021561495602059424,0.524798682284041
0.0021611872928232463,0.524798682284041
0.0021611872928232463,0.5255307467057101
0.0021712627580578532,0.5255307467057101
0.0021712627580578532,0.5259882869692533
0.002176300490675157,0.5259882869692533
0.002176300490675157,0.5260797950219619
0.0021813382232924606,0.5260797950219619
0.0021813382232924606,0.5261713030746705
0.002186375955909764,0.5261713030746705
0.002186375955909764,0.5262628111273792
0.002191413688527068,0.5262628111273792
0.002191413688527068,0.5263543191800878
0.0021964514211443714,0.5263543191800878
0.0021964514211443714,0.5265373352855052
0.002201489153761675,0.5265373352855052
0.002201489153761675,0.5267203513909224
0.0022166023516135857,0.5267203513909224
0.0022166023516135857,0.5272693997071742
0.002221640084230889,0.5272693997071742
0.002221640084230889,0.5279099560761347
0.002226677816848193,0.5279099560761347
0.002226677816848193,0.5280014641288433
0.0022317155494654965,0.5280014641288433
0.0022317155494654965,0.5280929721815519
0.0022367532820828,0.5280929721815519
0.0022367532820828,0.5291910688140556
0.002241791014700104,0.5291910688140556
0.002241791014700104,0.5293740849194729
0.0022468287473174074,0.5293740849194729
0.0022468287473174074,0.5297401171303074
0.002251866479934711,0.5297401171303074
0.002251866479934711,0.5300146412884333
0.0022569042125520147,0.5300146412884333
0.0022569042125520147,0.5301976573938506
0.002277055143021229,0.5301976573938506
0.002277055143021229,0.5302891654465594
0.0022820928756385325,0.5302891654465594
0.0022820928756385325,0.5308382137628112
0.0022871306082558364,0.5308382137628112
0.0022871306082558364,0.5317532942898975
0.00229216834087314,0.5317532942898975
0.00229216834087314,0.5333089311859444
0.0023022438061077472,0.5333089311859444
0.0023022438061077472,0.5341325036603221
0.0023072815387250507,0.5341325036603221
0.0023072815387250507,0.5343155197657394
0.002317357003959658,0.5343155197657394
0.002317357003959658,0.5344985358711567
0.0023223947365769615,0.5344985358711567
0.0023223947365769615,0.5349560761346999
0.002327432469194265,0.5349560761346999
0.002327432469194265,0.5350475841874085
0.0023324702018115684,0.5350475841874085
0.0023324702018115684,0.5355966325036603
0.002342545667046176,0.5355966325036603
0.002342545667046176,0.5356881405563689
0.002352621132280783,0.5356881405563689
0.002352621132280783,0.5359626647144948
0.0023576588648980866,0.5359626647144948
0.0023576588648980866,0.5360541727672035
0.002367734330132694,0.5360541727672035
0.002367734330132694,0.5363286969253295
0.0023727720627499975,0.5363286969253295
0.0023727720627499975,0.5364202049780381
0.002377809795367301,0.5364202049780381
0.002377809795367301,0.5368777452415813
0.002382847527984605,0.5368777452415813
0.002382847527984605,0.5372437774524158
0.0023878852606019083,0.5372437774524158
0.0023878852606019083,0.5374267935578331
0.0023929229932192118,0.5374267935578331
0.0023929229932192118,0.5377928257686676
0.0024130739236884265,0.5377928257686676
0.0024130739236884265,0.5381588579795022
0.00241811165630573,0.5381588579795022
0.00241811165630573,0.5382503660322109
0.0024281871215403373,0.5382503660322109
0.0024281871215403373,0.5386163982430454
0.0024332248541576408,0.5386163982430454
0.0024332248541576408,0.5390739385065886
0.0024382625867749442,0.5390739385065886
0.0024382625867749442,0.5391654465592972
0.0024483380520095516,0.5391654465592972
0.0024483380520095516,0.5394399707174231
0.002453375784626855,0.5394399707174231
0.002453375784626855,0.5401720351390923
0.0024584135172441585,0.5401720351390923
0.0024584135172441585,0.5404465592972182
0.0024634512498614624,0.5404465592972182
0.0024634512498614624,0.5424597364568082
0.002468488982478766,0.5424597364568082
0.002468488982478766,0.5425512445095169
0.0024735267150960694,0.5425512445095169
0.0024735267150960694,0.5431002928257687
0.00248863991294798,0.5431002928257687
0.00248863991294798,0.5432833089311859
0.002493677645565284,0.5432833089311859
0.002493677645565284,0.5433748169838946
0.0024987153781825876,0.5433748169838946
0.0024987153781825876,0.5439238653001464
0.002503753110799891,0.5439238653001464
0.002503753110799891,0.5447474377745242
0.002518866308651802,0.5447474377745242
0.002518866308651802,0.5448389458272328
0.0025390172391210166,0.5448389458272328
0.0025390172391210166,0.5450219619326501
0.0025541304369729274,0.5450219619326501
0.0025541304369729274,0.545296486090776
0.002559168169590231,0.545296486090776
0.002559168169590231,0.5455710102489019
0.0025642059022075343,0.5455710102489019
0.0025642059022075343,0.5458455344070278
0.0025692436348248382,0.5458455344070278
0.0025692436348248382,0.5460285505124451
0.002584356832676749,0.5460285505124451
0.002584356832676749,0.5465775988286969
0.002594432297911356,0.5465775988286969
0.002594432297911356,0.5470351390922401
0.0025994700305286595,0.5470351390922401
0.0025994700305286595,0.5474011713030746
0.0026045077631459634,0.5474011713030746
0.0026045077631459634,0.5474926793557833
0.002609545495763267,0.5474926793557833
0.002609545495763267,0.5476756954612005
0.0026145832283805703,0.5476756954612005
0.0026145832283805703,0.5477672035139092
0.002619620960997874,0.5477672035139092
0.002619620960997874,0.5480417276720352
0.0026246586936151776,0.5480417276720352
0.0026246586936151776,0.5481332357247438
0.0026397718914670885,0.5481332357247438
0.0026397718914670885,0.5483162518301611
0.002644809624084392,0.5483162518301611
0.002644809624084392,0.5488653001464129
0.002649847356701696,0.5488653001464129
0.002649847356701696,0.549322840409956
0.0026548850893189993,0.549322840409956
0.0026548850893189993,0.549871888726208
0.0026649605545536067,0.549871888726208
0.0026649605545536067,0.5500549048316252
0.00266999828717091,0.5500549048316252
0.00266999828717091,0.5502379209370425
0.0026750360197882136,0.5502379209370425
0.0026750360197882136,0.5503294289897511
0.0026901492176401244,0.5503294289897511
0.0026901492176401244,0.5504209370424598
0.002700224682874732,0.5504209370424598
0.002700224682874732,0.5505124450951684
0.0027052624154920353,0.5505124450951684
0.0027052624154920353,0.5506954612005857
0.002710300148109339,0.5506954612005857
0.002710300148109339,0.5507869692532943
0.002720375613343946,0.5507869692532943
0.002720375613343946,0.5511530014641288
0.0027254133459612495,0.5511530014641288
0.0027254133459612495,0.551610541727672
0.0027304510785785534,0.551610541727672
0.0027304510785785534,0.5517020497803806
0.002735488811195857,0.5517020497803806
0.002735488811195857,0.5520680819912153
0.0027455642764304643,0.5520680819912153
0.0027455642764304643,0.5521595900439239
0.002755639741665071,0.5521595900439239
0.002755639741665071,0.5523426061493412
0.002760677474282375,0.5523426061493412
0.002760677474282375,0.5524341142020498
0.0027657152068996786,0.5524341142020498
0.0027657152068996786,0.5525256222547584
0.002770752939516982,0.5525256222547584
0.002770752939516982,0.5526171303074671
0.0027808284047515894,0.5526171303074671
0.0027808284047515894,0.5528001464128843
0.002785866137368893,0.5528001464128843
0.002785866137368893,0.552891654465593
0.0027909038699861968,0.552891654465593
0.0027909038699861968,0.5531661786237189
0.0027959416026035002,0.5531661786237189
0.0027959416026035002,0.553623718887262
0.0028009793352208037,0.553623718887262
0.0028009793352208037,0.5559114202049781
0.0028060170678381076,0.5559114202049781
0.0028060170678381076,0.5560029282576867
0.002811054800455411,0.5560029282576867
0.002811054800455411,0.5560944363103953
0.0028211302656900184,0.5560944363103953
0.0028211302656900184,0.5567349926793558
0.002826167998307322,0.5567349926793558
0.002826167998307322,0.556918008784773
0.0028412811961592327,0.556918008784773
0.0028412811961592327,0.5571925329428989
0.00285135666139384,0.5571925329428989
0.00285135666139384,0.5572840409956076
0.0028563943940111435,0.5572840409956076
0.0028563943940111435,0.5573755490483162
0.002861432126628447,0.5573755490483162
0.002861432126628447,0.5574670571010248
0.0028715075918630544,0.5574670571010248
0.0028715075918630544,0.5576500732064422
0.002876545324480358,0.5576500732064422
0.002876545324480358,0.5580161054172768
0.0028815830570976613,0.5580161054172768
0.0028815830570976613,0.5591142020497804
0.002886620789714965,0.5591142020497804
0.002886620789714965,0.5592972181551976
0.0028916585223322687,0.5592972181551976
0.0028916585223322687,0.5593887262079063
0.002896696254949572,0.5593887262079063
0.002896696254949572,0.5601207906295754
0.002901733987566876,0.5601207906295754
0.002901733987566876,0.5603038067349927
0.0029067717201841795,0.5603038067349927
0.0029067717201841795,0.56048682284041
0.002911809452801483,0.56048682284041
0.002911809452801483,0.5605783308931186
0.002916847185418787,0.5605783308931186
0.002916847185418787,0.5607613469985359
0.0029319603832706977,0.5607613469985359
0.0029319603832706977,0.5608528550512445
0.002936998115888001,0.5608528550512445
0.002936998115888001,0.5613103953147877
0.002967224511591823,0.5613103953147877
0.002967224511591823,0.5618594436310396
0.00297729997682643,0.5618594436310396
0.00297729997682643,0.5620424597364568
0.0029823377094437336,0.5620424597364568
0.0029823377094437336,0.5622254758418741
0.0029974509072956445,0.5622254758418741
0.0029974509072956445,0.5625
0.003002488639912948,0.5625
0.003002488639912948,0.5626830161054173
0.0030075263725302514,0.5626830161054173
0.0030075263725302514,0.5630490483162518
0.0030176018377648588,0.5630490483162518
0.0030176018377648588,0.5632320644216691
0.003022639570382162,0.5632320644216691
0.003022639570382162,0.5642386530014641
0.0030327150356167696,0.5642386530014641
0.0030327150356167696,0.5644216691068814
0.003042790500851377,0.5644216691068814
0.003042790500851377,0.5647877013177159
0.0030478282334686804,0.5647877013177159
0.0030478282334686804,0.5650622254758418
0.003052865966085984,0.5650622254758418
0.003052865966085984,0.5653367496339677
0.0030579036987032878,0.5653367496339677
0.0030579036987032878,0.5655197657393851
0.0030629414313205912,0.5655197657393851
0.0030629414313205912,0.5658857979502196
0.0030730168965551986,0.5658857979502196
0.0030730168965551986,0.5659773060029283
0.003078054629172502,0.5659773060029283
0.003078054629172502,0.5662518301610542
0.0030830923617898055,0.5662518301610542
0.0030830923617898055,0.566800878477306
0.0030881300944071094,0.566800878477306
0.0030881300944071094,0.5672584187408491
0.003093167827024413,0.5672584187408491
0.003093167827024413,0.5674414348462665
0.0030982055596417164,0.5674414348462665
0.0030982055596417164,0.5676244509516838
0.0031032432922590203,0.5676244509516838
0.0031032432922590203,0.5677159590043924
0.0031082810248763237,0.5677159590043924
0.0031082810248763237,0.5678074670571011
0.003113318757493627,0.5678074670571011
0.003113318757493627,0.5679904831625183
0.0031233942227282346,0.5679904831625183
0.0031233942227282346,0.568081991215227
0.0031334696879628415,0.568081991215227
0.0031334696879628415,0.5681734992679356
0.0031385074205801454,0.5681734992679356
0.0031385074205801454,0.5682650073206442
0.003143545153197449,0.5682650073206442
0.003143545153197449,0.5687225475841874
0.0031485828858147523,0.5687225475841874
0.0031485828858147523,0.5691800878477306
0.0031586583510493597,0.5691800878477306
0.0031586583510493597,0.5699121522693997
0.003168733816283967,0.5699121522693997
0.003168733816283967,0.570095168374817
0.003178809281518574,0.570095168374817
0.003178809281518574,0.5701866764275256
0.003183847014135878,0.5701866764275256
0.003183847014135878,0.5703696925329429
0.003203997944605092,0.5703696925329429
0.003203997944605092,0.5705527086383602
0.0032140734098396995,0.5705527086383602
0.0032140734098396995,0.5709187408491947
0.003219111142457003,0.5709187408491947
0.003219111142457003,0.5710102489019033
0.0032291866076916103,0.5710102489019033
0.0032291866076916103,0.571101756954612
0.003234224340308914,0.571101756954612
0.003234224340308914,0.5712847730600292
0.003244299805543521,0.5712847730600292
0.003244299805543521,0.5716508052708639
0.0032493375381608246,0.5716508052708639
0.0032493375381608246,0.5717423133235725
0.003254375270778128,0.5717423133235725
0.003254375270778128,0.5718338213762811
0.0032594130033954316,0.5718338213762811
0.0032594130033954316,0.5720168374816984
0.0032644507360127355,0.5720168374816984
0.0032644507360127355,0.5730234260614934
0.003269488468630039,0.5730234260614934
0.003269488468630039,0.573389458272328
0.0032745262012473424,0.573389458272328
0.0032745262012473424,0.5736639824304539
0.0032795639338646463,0.5736639824304539
0.0032795639338646463,0.5737554904831625
0.003294677131716557,0.5737554904831625
0.003294677131716557,0.5738469985358712
0.0032997148643338606,0.5738469985358712
0.0032997148643338606,0.5741215226939971
0.003304752596951164,0.5741215226939971
0.003304752596951164,0.5742130307467057
0.003309790329568468,0.5742130307467057
0.003309790329568468,0.574396046852123
0.0033148280621857714,0.574396046852123
0.0033148280621857714,0.5746705710102489
0.003319865794803075,0.5746705710102489
0.003319865794803075,0.5748535871156661
0.003324903527420379,0.5748535871156661
0.003324903527420379,0.5750366032210834
0.0033299412600376822,0.5750366032210834
0.0033299412600376822,0.5755856515373353
0.0033349789926549857,0.5755856515373353
0.0033349789926549857,0.575677159590044
0.0033400167252722896,0.575677159590044
0.0033400167252722896,0.5758601756954612
0.003345054457889593,0.5758601756954612
0.003345054457889593,0.5759516837481699
0.0033500921905068965,0.5759516837481699
0.0033500921905068965,0.5765007320644217
0.0033551299231242004,0.5765007320644217
0.0033551299231242004,0.5768667642752562
0.0033702431209761113,0.5768667642752562
0.0033702431209761113,0.5771412884333821
0.0033752808535934147,0.5771412884333821
0.0033752808535934147,0.5772327964860908
0.003385356318828022,0.5772327964860908
0.003385356318828022,0.5775988286969254
0.0033903940514453256,0.5775988286969254
0.0033903940514453256,0.5778733528550513
0.003395431784062629,0.5778733528550513
0.003395431784062629,0.5779648609077599
0.0034004695166799325,0.5779648609077599
0.0034004695166799325,0.5782393850658858
0.0034055072492972364,0.5782393850658858
0.0034055072492972364,0.5784224011713031
0.0034155827145318433,0.5784224011713031
0.0034155827145318433,0.5785139092240117
0.0034256581797664507,0.5785139092240117
0.0034256581797664507,0.5787884333821376
0.003430695912383754,0.5787884333821376
0.003430695912383754,0.5792459736456809
0.003435733645001058,0.5792459736456809
0.003435733645001058,0.579703513909224
0.0034407713776183615,0.579703513909224
0.0034407713776183615,0.5797950219619327
0.003445809110235665,0.5797950219619327
0.003445809110235665,0.5799780380673499
0.003460922308087576,0.5799780380673499
0.003460922308087576,0.5804355783308931
0.0034659600407048797,0.5804355783308931
0.0034659600407048797,0.5811676427525623
0.0034760355059394866,0.5811676427525623
0.0034760355059394866,0.5813506588579795
0.0034810732385567905,0.5813506588579795
0.0034810732385567905,0.5815336749633968
0.003486110971174094,0.5815336749633968
0.003486110971174094,0.5816251830161054
0.0034961864364087014,0.5816251830161054
0.0034961864364087014,0.5820827232796486
0.003511299634260612,0.5820827232796486
0.003511299634260612,0.5821742313323572
0.0035163373668779157,0.5821742313323572
0.0035163373668779157,0.5822657393850659
0.0035264128321125226,0.5822657393850659
0.0035264128321125226,0.5823572474377745
0.00353648829734713,0.5823572474377745
0.00353648829734713,0.5824487554904831
0.0035415260299644334,0.5824487554904831
0.0035415260299644334,0.5825402635431918
0.0035465637625817373,0.5825402635431918
0.0035465637625817373,0.5826317715959004
0.003561676960433648,0.5826317715959004
0.003561676960433648,0.5831808199121523
0.003571752425668255,0.5831808199121523
0.003571752425668255,0.583272327964861
0.003576790158285559,0.583272327964861
0.003576790158285559,0.5833638360175696
0.0035818278909028624,0.5833638360175696
0.0035818278909028624,0.5837298682284041
0.0035969410887547733,0.5837298682284041
0.0035969410887547733,0.5838213762811127
0.0036070165539893806,0.5838213762811127
0.0036070165539893806,0.58400439238653
0.003612054286606684,0.58400439238653
0.003612054286606684,0.5840959004392386
0.0036170920192239876,0.5840959004392386
0.0036170920192239876,0.5842789165446559
0.0036221297518412915,0.5842789165446559
0.0036221297518412915,0.5844619326500732
0.003627167484458595,0.5844619326500732
0.003627167484458595,0.5846449487554904
0.0036322052170758984,0.5846449487554904
0.0036322052170758984,0.5847364568081991
0.0036372429496932023,0.5847364568081991
0.0036372429496932023,0.5851024890190337
0.003647318414927809,0.5851024890190337
0.003647318414927809,0.5853770131771596
0.003652356147545113,0.5853770131771596
0.003652356147545113,0.5857430453879942
0.0036573938801624166,0.5857430453879942
0.0036573938801624166,0.5858345534407028
0.00366243161277972,0.5858345534407028
0.00366243161277972,0.5859260614934114
0.0036674693453970235,0.5859260614934114
0.0036674693453970235,0.586292093704246
0.0036725070780143274,0.586292093704246
0.0036725070780143274,0.5863836017569546
0.003677544810631631,0.5863836017569546
0.003677544810631631,0.5864751098096632
0.0036876202758662382,0.5864751098096632
0.0036876202758662382,0.5868411420204978
0.0036926580084835417,0.5868411420204978
0.0036926580084835417,0.5870241581259151
0.003697695741100845,0.5870241581259151
0.003697695741100845,0.587298682284041
0.003702733473718149,0.587298682284041
0.003702733473718149,0.5875732064421669
0.0037228844041873634,0.5875732064421669
0.0037228844041873634,0.5877562225475842
0.003727922136804667,0.5877562225475842
0.003727922136804667,0.5878477306002928
0.0037329598694219707,0.5878477306002928
0.0037329598694219707,0.5879392386530015
0.0037480730672738815,0.5879392386530015
0.0037480730672738815,0.588305270863836
0.0037581485325084885,0.588305270863836
0.0037581485325084885,0.5884882869692533
0.0037631862651257924,0.5884882869692533
0.0037631862651257924,0.5885797950219619
0.003768223997743096,0.5885797950219619
0.003768223997743096,0.5886713030746705
0.0037732617303603993,0.5886713030746705
0.0037732617303603993,0.5887628111273792
0.0037833371955950067,0.5887628111273792
0.0037833371955950067,0.5888543191800878
0.00378837492821231,0.5888543191800878
0.00378837492821231,0.5889458272327965
0.0037934126608296136,0.5889458272327965
0.0037934126608296136,0.5890373352855052
0.0037984503934469175,0.5890373352855052
0.0037984503934469175,0.5894033674963397
0.003803488126064221,0.5894033674963397
0.003803488126064221,0.5894948755490483
0.0038085258586815244,0.5894948755490483
0.0038085258586815244,0.5897693997071742
0.0038135635912988283,0.5897693997071742
0.0038135635912988283,0.5901354319180088
0.003818601323916132,0.5901354319180088
0.003818601323916132,0.5904099560761347
0.0038337145217680426,0.5904099560761347
0.0038337145217680426,0.5906844802342606
0.003838752254385346,0.5906844802342606
0.003838752254385346,0.5909590043923866
0.0038488277196199534,0.5909590043923866
0.0038488277196199534,0.5911420204978038
0.003853865452237257,0.5911420204978038
0.003853865452237257,0.5918740849194729
0.003858903184854561,0.5918740849194729
0.003858903184854561,0.5921486090775988
0.0038689786500891677,0.5921486090775988
0.0038689786500891677,0.5922401171303074
0.003879054115323775,0.5922401171303074
0.003879054115323775,0.5927891654465594
0.003894167313175686,0.5927891654465594
0.003894167313175686,0.592880673499268
0.0038992050457929894,0.592880673499268
0.0038992050457929894,0.5932467057101025
0.0039042427784102933,0.5932467057101025
0.0039042427784102933,0.5933382137628112
0.003909280511027596,0.5933382137628112
0.003909280511027596,0.5937957540263543
0.003929431441496811,0.5937957540263543
0.003929431441496811,0.5939787701317716
0.003934469174114115,0.5939787701317716
0.003934469174114115,0.5940702781844802
0.003939506906731418,0.5940702781844802
0.003939506906731418,0.5941617862371888
0.003944544639348722,0.5941617862371888
0.003944544639348722,0.5943448023426061
0.003949582371966026,0.5943448023426061
0.003949582371966026,0.5948023426061494
0.003959657837200633,0.5948023426061494
0.003959657837200633,0.5952598828696926
0.003964695569817937,0.5952598828696926
0.003964695569817937,0.5956259150805271
0.0039747710350525435,0.5956259150805271
0.0039747710350525435,0.5959919472913616
0.003994921965521758,0.5959919472913616
0.003994921965521758,0.5960834553440703
0.003999959698139061,0.5960834553440703
0.003999959698139061,0.5961749633967789
0.004004997430756365,0.5961749633967789
0.004004997430756365,0.5965409956076134
0.004015072895990972,0.5965409956076134
0.004015072895990972,0.5967240117130308
0.00402514836122558,0.5967240117130308
0.00402514836122558,0.5973645680819912
0.004030186093842883,0.5973645680819912
0.004030186093842883,0.5976390922401171
0.004045299291694794,0.5976390922401171
0.004045299291694794,0.5980051244509517
0.004050337024312098,0.5980051244509517
0.004050337024312098,0.5982796486090776
0.004055374756929402,0.5982796486090776
0.004055374756929402,0.5985541727672035
0.004070487954781312,0.5985541727672035
0.004070487954781312,0.5989202049780381
0.004085601152633223,0.5989202049780381
0.004085601152633223,0.599194729136164
0.004090638885250526,0.599194729136164
0.004090638885250526,0.5993777452415813
0.00409567661786783,0.5993777452415813
0.00409567661786783,0.5994692532942899
0.004100714350485134,0.5994692532942899
0.004100714350485134,0.5996522693997072
0.004105752083102437,0.5996522693997072
0.004105752083102437,0.5998352855051244
0.004110789815719741,0.5998352855051244
0.004110789815719741,0.6000183016105417
0.004115827548337045,0.6000183016105417
0.004115827548337045,0.600201317715959
0.004130940746188955,0.600201317715959
0.004130940746188955,0.6002928257686676
0.004135978478806259,0.6002928257686676
0.004135978478806259,0.6005673499267935
0.004141016211423563,0.6005673499267935
0.004141016211423563,0.6010248901903368
0.004146053944040866,0.6010248901903368
0.004146053944040866,0.6011163982430454
0.00415109167665817,0.6011163982430454
0.00415109167665817,0.6013909224011713
0.0041561294092754735,0.6013909224011713
0.0041561294092754735,0.60148243045388
0.0041611671418927765,0.60148243045388
0.0041611671418927765,0.6015739385065886
0.004171242607127384,0.6015739385065886
0.004171242607127384,0.6016654465592972
0.004176280339744687,0.6016654465592972
0.004176280339744687,0.6018484626647145
0.004181318072361991,0.6018484626647145
0.004181318072361991,0.6019399707174231
0.004186355804979295,0.6019399707174231
0.004186355804979295,0.6020314787701317
0.004196431270213902,0.6020314787701317
0.004196431270213902,0.602214494875549
0.004201469002831206,0.602214494875549
0.004201469002831206,0.6023975109809663
0.004206506735448509,0.6023975109809663
0.004206506735448509,0.6026720351390923
0.004211544468065813,0.6026720351390923
0.004211544468065813,0.6032210834553441
0.004226657665917724,0.6032210834553441
0.004226657665917724,0.6034040995607614
0.004236733131152331,0.6034040995607614
0.004236733131152331,0.60349560761347
0.0042417708637696346,0.60349560761347
0.0042417708637696346,0.6035871156661786
0.004261921794238849,0.6035871156661786
0.004261921794238849,0.6037701317715959
0.004266959526856152,0.6037701317715959
0.004266959526856152,0.6038616398243045
0.004287110457325367,0.6038616398243045
0.004287110457325367,0.6039531478770132
0.004292148189942671,0.6039531478770132
0.004292148189942671,0.6044106881405563
0.004297185922559974,0.6044106881405563
0.004297185922559974,0.6045021961932651
0.004312299120411885,0.6045021961932651
0.004312299120411885,0.604776720351391
0.004322374585646493,0.604776720351391
0.004322374585646493,0.6049597364568082
0.004327412318263796,0.6049597364568082
0.004327412318263796,0.6052342606149341
0.0043324500508810995,0.6052342606149341
0.0043324500508810995,0.6053257686676428
0.0043425255161157065,0.6053257686676428
0.0043425255161157065,0.6057833089311859
0.004357638713967617,0.6057833089311859
0.004357638713967617,0.6059663250366032
0.004372751911819528,0.6059663250366032
0.004372751911819528,0.6061493411420205
0.004377789644436832,0.6061493411420205
0.004377789644436832,0.6062408491947291
0.004382827377054136,0.6062408491947291
0.004382827377054136,0.6063323572474377
0.00440297830752335,0.6063323572474377
0.00440297830752335,0.6064238653001464
0.004408016040140654,0.6064238653001464
0.004408016040140654,0.6069729136163983
0.004413053772757957,0.6069729136163983
0.004413053772757957,0.6070644216691069
0.004418091505375261,0.6070644216691069
0.004418091505375261,0.6073389458272328
0.0044231292379925645,0.6073389458272328
0.0044231292379925645,0.6074304538799414
0.0044281669706098675,0.6074304538799414
0.0044281669706098675,0.6075219619326501
0.004433204703227171,0.6075219619326501
0.004433204703227171,0.6076134699853587
0.004458393366313689,0.6076134699853587
0.004458393366313689,0.6077049780380673
0.004463431098930993,0.6077049780380673
0.004463431098930993,0.607796486090776
0.004468468831548297,0.607796486090776
0.004468468831548297,0.6080710102489019
0.004478544296782904,0.6080710102489019
0.004478544296782904,0.6081625183016105
0.004488619762017511,0.6081625183016105
0.004488619762017511,0.6084370424597365
0.004498695227252119,0.6084370424597365
0.004498695227252119,0.6085285505124451
0.004503732959869422,0.6085285505124451
0.004503732959869422,0.6086200585651538
0.0045138084251040295,0.6086200585651538
0.0045138084251040295,0.608803074670571
0.004523883890338636,0.608803074670571
0.004523883890338636,0.6088945827232797
0.004533959355573243,0.6088945827232797
0.004533959355573243,0.6092606149341142
0.004538997088190547,0.6092606149341142
0.004538997088190547,0.6096266471449487
0.004559148018659762,0.6096266471449487
0.004559148018659762,0.609809663250366
0.004569223483894369,0.609809663250366
0.004569223483894369,0.6101756954612005
0.004579298949128976,0.6101756954612005
0.004579298949128976,0.6102672035139092
0.004594412146980887,0.6102672035139092
0.004594412146980887,0.6103587115666179
0.0045994498795981905,0.6103587115666179
0.0045994498795981905,0.6108162518301611
0.004614563077450101,0.6108162518301611
0.004614563077450101,0.6109992679355783
0.004624638542684708,0.6109992679355783
0.004624638542684708,0.6117313323572474
0.004634714007919316,0.6117313323572474
0.004634714007919316,0.6119143484626647
0.004639751740536619,0.6119143484626647
0.004639751740536619,0.6120058565153733
0.004644789473153923,0.6120058565153733
0.004644789473153923,0.6121888726207906
0.004675015868857745,0.6121888726207906
0.004675015868857745,0.612371888726208
0.004680053601475048,0.612371888726208
0.004680053601475048,0.6132869692532943
0.004685091334092352,0.6132869692532943
0.004685091334092352,0.6134699853587116
0.0046901290667096555,0.6134699853587116
0.0046901290667096555,0.6137445095168375
0.004705242264561566,0.6137445095168375
0.004705242264561566,0.6138360175695461
0.004710279997178869,0.6138360175695461
0.004710279997178869,0.6142020497803806
0.00472539319503078,0.6142020497803806
0.00472539319503078,0.614385065885798
0.004735468660265388,0.614385065885798
0.004735468660265388,0.6144765739385066
0.004750581858117299,0.6144765739385066
0.004750581858117299,0.6149341142020498
0.00476569505596921,0.6149341142020498
0.00476569505596921,0.6155746705710102
0.004775770521203817,0.6155746705710102
0.004775770521203817,0.6157576866764275
0.004790883719055727,0.6157576866764275
0.004790883719055727,0.6160322108345534
0.004795921451673031,0.6160322108345534
0.004795921451673031,0.616123718887262
0.004800959184290334,0.616123718887262
0.004800959184290334,0.6166727672035139
0.004805996916907638,0.6166727672035139
0.004805996916907638,0.6167642752562226
0.004811034649524942,0.6167642752562226
0.004811034649524942,0.6172218155197657
0.004821110114759549,0.6172218155197657
0.004821110114759549,0.6174963396778916
0.004826147847376853,0.6174963396778916
0.004826147847376853,0.6175878477306003
0.004831185579994156,0.6175878477306003
0.004831185579994156,0.6177708638360175
0.00483622331261146,0.6177708638360175
0.00483622331261146,0.6182284040995608
0.004841261045228764,0.6182284040995608
0.004841261045228764,0.6183199121522694
0.004851336510463371,0.6183199121522694
0.004851336510463371,0.6185944363103953
0.004861411975697978,0.6185944363103953
0.004861411975697978,0.6187774524158126
0.0048714874409325854,0.6187774524158126
0.0048714874409325854,0.619418008784773
0.004886600638784496,0.619418008784773
0.004886600638784496,0.6195095168374817
0.004896676104019103,0.6195095168374817
0.004896676104019103,0.6198755490483162
0.004901713836636407,0.6198755490483162
0.004901713836636407,0.6199670571010248
0.00490675156925371,0.6199670571010248
0.00490675156925371,0.6200585651537335
0.004916827034488317,0.6200585651537335
0.004916827034488317,0.6202415812591509
0.004926902499722925,0.6202415812591509
0.004926902499722925,0.620699121522694
0.004931940232340228,0.620699121522694
0.004931940232340228,0.6209736456808199
0.004936977964957532,0.6209736456808199
0.004936977964957532,0.6210651537335286
0.004942015697574836,0.6210651537335286
0.004942015697574836,0.6213396778916545
0.0049571288954267465,0.6213396778916545
0.0049571288954267465,0.6215226939970717
0.0049621666280440496,0.6215226939970717
0.0049621666280440496,0.6216142020497804
0.004982317558513264,0.6216142020497804
0.004982317558513264,0.6217972181551976
0.004987355291130568,0.6217972181551976
0.004987355291130568,0.6220717423133236
0.004997430756365175,0.6220717423133236
0.004997430756365175,0.6221632503660323
0.005002468488982479,0.6221632503660323
0.005002468488982479,0.6222547584187409
0.005027657152068997,0.6222547584187409
0.005027657152068997,0.6223462664714495
0.005032694884686301,0.6223462664714495
0.005032694884686301,0.6224377745241582
0.005042770349920908,0.6224377745241582
0.005042770349920908,0.6227122986822841
0.0050528458151555145,0.6227122986822841
0.0050528458151555145,0.6228953147877013
0.005062921280390122,0.6228953147877013
0.005062921280390122,0.62298682284041
0.005072996745624729,0.62298682284041
0.005072996745624729,0.6233528550512445
0.005078034478242033,0.6233528550512445
0.005078034478242033,0.6234443631039531
0.005083072210859336,0.6234443631039531
0.005083072210859336,0.6240849194729137
0.00508810994347664,0.6240849194729137
0.00508810994347664,0.6241764275256223
0.005098185408711247,0.6241764275256223
0.005098185408711247,0.6244509516837482
0.005108260873945855,0.6244509516837482
0.005108260873945855,0.6249084919472914
0.005113298606563158,0.6249084919472914
0.005113298606563158,0.6250915080527086
0.005123374071797766,0.6250915080527086
0.005123374071797766,0.6253660322108345
0.005128411804415069,0.6253660322108345
0.005128411804415069,0.6254575402635432
0.0051384872696496765,0.6254575402635432
0.0051384872696496765,0.6255490483162518
0.005148562734884283,0.6255490483162518
0.005148562734884283,0.6261896046852123
0.005153600467501587,0.6261896046852123
0.005153600467501587,0.626281112737921
0.005163675932736194,0.626281112737921
0.005163675932736194,0.62701317715959
0.005183826863205408,0.62701317715959
0.005183826863205408,0.6273792093704246
0.005198940061057319,0.6273792093704246
0.005198940061057319,0.6275622254758418
0.005203977793674623,0.6275622254758418
0.005203977793674623,0.6276537335285505
0.0052241287241438375,0.6276537335285505
0.0052241287241438375,0.6277452415812591
0.0052291664567611406,0.6277452415812591
0.0052291664567611406,0.6279282576866764
0.0052342041893784445,0.6279282576866764
0.0052342041893784445,0.6280197657393851
0.005239241921995748,0.6280197657393851
0.005239241921995748,0.6281112737920937
0.005259392852464962,0.6281112737920937
0.005259392852464962,0.6284773060029283
0.00526946831769957,0.6284773060029283
0.00526946831769957,0.6286603221083455
0.005274506050316873,0.6286603221083455
0.005274506050316873,0.6287518301610542
0.005294656980786088,0.6287518301610542
0.005294656980786088,0.6289348462664714
0.005309770178637999,0.6289348462664714
0.005309770178637999,0.6290263543191801
0.0053148079112553025,0.6290263543191801
0.0053148079112553025,0.6291178623718887
0.0053248833764899094,0.6291178623718887
0.0053248833764899094,0.6292093704245973
0.00533999657434182,0.6292093704245973
0.00533999657434182,0.6294838945827232
0.005370222970045642,0.6294838945827232
0.005370222970045642,0.6295754026354319
0.005380298435280249,0.6295754026354319
0.005380298435280249,0.6296669106881405
0.005385336167897553,0.6296669106881405
0.005385336167897553,0.6298499267935578
0.005390373900514857,0.6298499267935578
0.005390373900514857,0.6299414348462665
0.00539541163313216,0.6299414348462665
0.00539541163313216,0.6300329428989752
0.005400449365749464,0.6300329428989752
0.005400449365749464,0.6301244509516838
0.0054105248309840705,0.6301244509516838
0.0054105248309840705,0.6303074670571011
0.005415562563601374,0.6303074670571011
0.005415562563601374,0.6304904831625183
0.005440751226687892,0.6304904831625183
0.005440751226687892,0.6306734992679356
0.005455864424539803,0.6306734992679356
0.005455864424539803,0.6310395314787701
0.005460902157157107,0.6310395314787701
0.005460902157157107,0.6311310395314788
0.00546593988977441,0.6311310395314788
0.00546593988977441,0.6312225475841874
0.005481053087626321,0.6312225475841874
0.005481053087626321,0.6314970717423133
0.0054911285528609285,0.6314970717423133
0.0054911285528609285,0.6315885797950219
0.005496166285478232,0.6315885797950219
0.005496166285478232,0.6317715959004392
0.0055012040180955355,0.6317715959004392
0.0055012040180955355,0.6319546120058566
0.005506241750712839,0.6319546120058566
0.005506241750712839,0.6320461200585652
0.005516317215947446,0.6320461200585652
0.005516317215947446,0.6321376281112738
0.00552135494856475,0.6321376281112738
0.00552135494856475,0.6322291361639825
0.005531430413799357,0.6322291361639825
0.005531430413799357,0.6324121522693997
0.005536468146416661,0.6324121522693997
0.005536468146416661,0.6327781844802343
0.005556619076885875,0.6327781844802343
0.005556619076885875,0.6328696925329429
0.005561656809503179,0.6328696925329429
0.005561656809503179,0.6329612005856515
0.005566694542120483,0.6329612005856515
0.005566694542120483,0.6330527086383602
0.00557677000735509,0.6330527086383602
0.00557677000735509,0.6331442166910688
0.0055868454725896965,0.6331442166910688
0.0055868454725896965,0.6333272327964861
0.0055918832052070004,0.6333272327964861
0.0055918832052070004,0.633876281112738
0.005596920937824304,0.633876281112738
0.005596920937824304,0.6339677891654466
0.005606996403058911,0.6339677891654466
0.005606996403058911,0.6344253294289898
0.005617071868293518,0.6344253294289898
0.005617071868293518,0.6345168374816984
0.005622109600910822,0.6345168374816984
0.005622109600910822,0.6346998535871157
0.005662411461849251,0.6346998535871157
0.005662411461849251,0.6351573938506588
0.0056775246597011615,0.6351573938506588
0.0056775246597011615,0.6355234260614934
0.00570271332278768,0.6355234260614934
0.00570271332278768,0.635614934114202
0.005707751055404983,0.635614934114202
0.005707751055404983,0.6357064421669106
0.005712788788022287,0.6357064421669106
0.005712788788022287,0.6359809663250366
0.00571782652063959,0.6359809663250366
0.00571782652063959,0.6362554904831625
0.005722864253256894,0.6362554904831625
0.005722864253256894,0.6363469985358712
0.005727901985874198,0.6363469985358712
0.005727901985874198,0.6366215226939971
0.005748052916343412,0.6366215226939971
0.005748052916343412,0.6367130307467057
0.005783317044664537,0.6367130307467057
0.005783317044664537,0.6370790629575402
0.005788354777281841,0.6370790629575402
0.005788354777281841,0.6375366032210834
0.005808505707751055,0.6375366032210834
0.005808505707751055,0.6377196193265008
0.005813543440368359,0.6377196193265008
0.005813543440368359,0.6378111273792094
0.0058488075686894845,0.6378111273792094
0.0058488075686894845,0.637902635431918
0.0058538453013067876,0.637902635431918
0.0058538453013067876,0.6379941434846267
0.0058588830339240915,0.6379941434846267
0.0058588830339240915,0.638177159590044
0.005863920766541395,0.638177159590044
0.005863920766541395,0.6385431918008785
0.005868958499158698,0.6385431918008785
0.005868958499158698,0.638909224011713
0.005879033964393306,0.638909224011713
0.005879033964393306,0.6390007320644217
0.005884071697010609,0.6390007320644217
0.005884071697010609,0.6391837481698389
0.005889109429627913,0.6391837481698389
0.005889109429627913,0.6395497803806734
0.005894147162245217,0.6395497803806734
0.005894147162245217,0.6400073206442167
0.005914298092714431,0.6400073206442167
0.005914298092714431,0.6403733528550513
0.005924373557949039,0.6403733528550513
0.005924373557949039,0.6404648609077599
0.005929411290566342,0.6404648609077599
0.005929411290566342,0.6407393850658858
0.005934449023183646,0.6407393850658858
0.005934449023183646,0.6410139092240117
0.0059394867558009495,0.6410139092240117
0.0059394867558009495,0.6411054172767203
0.00595459995365286,0.6411054172767203
0.00595459995365286,0.6413799414348462
0.005969713151504771,0.6413799414348462
0.005969713151504771,0.6417459736456809
0.005979788616739378,0.6417459736456809
0.005979788616739378,0.6418374816983895
0.005989864081973985,0.6418374816983895
0.005989864081973985,0.6420204978038068
0.005999939547208592,0.6420204978038068
0.005999939547208592,0.6423865300146413
0.006020090477677807,0.6423865300146413
0.006020090477677807,0.6424780380673499
0.006025128210295111,0.6424780380673499
0.006025128210295111,0.6428440702781845
0.006030165942912414,0.6428440702781845
0.006030165942912414,0.6431185944363104
0.0060352036755297175,0.6431185944363104
0.0060352036755297175,0.6433016105417276
0.006040241408147021,0.6433016105417276
0.006040241408147021,0.6433931185944363
0.006060392338616235,0.6433931185944363
0.006060392338616235,0.6435761346998536
0.006065430071233539,0.6435761346998536
0.006065430071233539,0.6437591508052709
0.006070467803850843,0.6437591508052709
0.006070467803850843,0.6438506588579795
0.00608054326908545,0.6438506588579795
0.00608054326908545,0.6441251830161054
0.006095656466937361,0.6441251830161054
0.006095656466937361,0.6442166910688141
0.006100694199554665,0.6442166910688141
0.006100694199554665,0.64449121522694
0.0061158073974065755,0.64449121522694
0.0061158073974065755,0.6448572474377745
0.006120845130023879,0.6448572474377745
0.006120845130023879,0.6451317715959004
0.0061258828626411825,0.6451317715959004
0.0061258828626411825,0.6453147877013177
0.006130920595258486,0.6453147877013177
0.006130920595258486,0.6454062957540263
0.006156109258345004,0.6454062957540263
0.006156109258345004,0.6456808199121523
0.006171222456196915,0.6456808199121523
0.006171222456196915,0.6458638360175696
0.006186335654048826,0.6458638360175696
0.006186335654048826,0.6460468521229868
0.006201448851900737,0.6460468521229868
0.006201448851900737,0.6461383601756955
0.0062064865845180405,0.6461383601756955
0.0062064865845180405,0.6463213762811127
0.006221599782369951,0.6463213762811127
0.006221599782369951,0.6464128843338214
0.006231675247604558,0.6464128843338214
0.006231675247604558,0.64650439238653
0.006266939375925683,0.64650439238653
0.006266939375925683,0.6465959004392386
0.006282052573777594,0.6465959004392386
0.006282052573777594,0.6466874084919473
0.006287090306394898,0.6466874084919473
0.006287090306394898,0.6467789165446559
0.0063022035042468085,0.6467789165446559
0.0063022035042468085,0.6470534407027818
0.006317316702098719,0.6470534407027818
0.006317316702098719,0.6471449487554904
0.006322354434716023,0.6471449487554904
0.006322354434716023,0.6472364568081991
0.00633242989995063,0.6472364568081991
0.00633242989995063,0.6474194729136163
0.006337467632567934,0.6474194729136163
0.006337467632567934,0.6476939970717424
0.006342505365185237,0.6476939970717424
0.006342505365185237,0.6478770131771596
0.006357618563037148,0.6478770131771596
0.006357618563037148,0.6479685212298683
0.006367694028271756,0.6479685212298683
0.006367694028271756,0.6480600292825769
0.006377769493506363,0.6480600292825769
0.006377769493506363,0.6484260614934114
0.0063828072261236666,0.6484260614934114
0.0063828072261236666,0.64851756954612
0.00638784495874097,0.64851756954612
0.00638784495874097,0.6486090775988287
0.006397920423975577,0.6486090775988287
0.006397920423975577,0.6489751098096632
0.006433184552296702,0.6489751098096632
0.006433184552296702,0.6491581259150805
0.006463410948000524,0.6491581259150805
0.006463410948000524,0.6494326500732065
0.0064734864132351315,0.6494326500732065
0.0064734864132351315,0.6496156661786238
0.0064785241458524346,0.6496156661786238
0.0064785241458524346,0.6498901903367497
0.006493637343704345,0.6498901903367497
0.006493637343704345,0.6501647144948756
0.006503712808938953,0.6501647144948756
0.006503712808938953,0.6503477306002928
0.00651378827417356,0.6503477306002928
0.00651378827417356,0.6505307467057101
0.006523863739408167,0.6505307467057101
0.006523863739408167,0.6506222547584187
0.006528901472025471,0.6506222547584187
0.006528901472025471,0.6507137628111274
0.006533939204642774,0.6507137628111274
0.006533939204642774,0.650805270863836
0.006544014669877382,0.650805270863836
0.006544014669877382,0.6509882869692533
0.006549052402494685,0.6509882869692533
0.006549052402494685,0.6511713030746705
0.006554090135111989,0.6511713030746705
0.006554090135111989,0.6512628111273792
0.006564165600346596,0.6512628111273792
0.006564165600346596,0.6514458272327965
0.0065792787981985065,0.6514458272327965
0.0065792787981985065,0.6517203513909224
0.006589354263433114,0.6517203513909224
0.006589354263433114,0.6518118594436311
0.006619580659136936,0.6518118594436311
0.006619580659136936,0.6519033674963397
0.006624618391754239,0.6519033674963397
0.006624618391754239,0.6522693997071742
0.006629656124371543,0.6522693997071742
0.006629656124371543,0.6525439238653001
0.006674995717927275,0.6525439238653001
0.006674995717927275,0.652818448023426
0.006680033450544579,0.652818448023426
0.006680033450544579,0.6530014641288433
0.006685071183161882,0.6530014641288433
0.006685071183161882,0.6530929721815519
0.006690108915779186,0.6530929721815519
0.006690108915779186,0.6531844802342606
0.006700184381013793,0.6531844802342606
0.006700184381013793,0.6533674963396779
0.006705222113631097,0.6533674963396779
0.006705222113631097,0.6534590043923866
0.006755599439804133,0.6534590043923866
0.006755599439804133,0.6538250366032211
0.006770712637656044,0.6538250366032211
0.006770712637656044,0.6540080527086384
0.006775750370273347,0.6540080527086384
0.006775750370273347,0.6542825768667643
0.006785825835507954,0.6542825768667643
0.006785825835507954,0.6543740849194729
0.006795901300742562,0.6543740849194729
0.006795901300742562,0.6545571010248902
0.006816052231211776,0.6545571010248902
0.006816052231211776,0.6547401171303074
0.006826127696446384,0.6547401171303074
0.006826127696446384,0.6548316251830161
0.0068362031616809905,0.6548316251830161
0.0068362031616809905,0.6549231332357247
0.0068462786269155975,0.6549231332357247
0.0068462786269155975,0.6551976573938506
0.006856354092150205,0.6551976573938506
0.006856354092150205,0.6552891654465594
0.006886580487854027,0.6552891654465594
0.006886580487854027,0.6555636896046853
0.00689161822047133,0.6555636896046853
0.00689161822047133,0.6557467057101025
0.006921844616175152,0.6557467057101025
0.006921844616175152,0.6558382137628112
0.0069268823487924555,0.6558382137628112
0.0069268823487924555,0.6559297218155198
0.0069369578140270624,0.6559297218155198
0.0069369578140270624,0.656112737920937
0.006941995546644366,0.656112737920937
0.006941995546644366,0.656387262079063
0.00694703327926167,0.656387262079063
0.00694703327926167,0.6566617862371888
0.006957108744496277,0.6566617862371888
0.006957108744496277,0.6567532942898975
0.006972221942348188,0.6567532942898975
0.006972221942348188,0.6572108345534406
0.006982297407582795,0.6572108345534406
0.006982297407582795,0.6573023426061494
0.006987335140200099,0.6573023426061494
0.006987335140200099,0.6575768667642753
0.006997410605434706,0.6575768667642753
0.006997410605434706,0.6576683748169839
0.00700244833805201,0.6576683748169839
0.00700244833805201,0.6577598828696926
0.0070074860706693136,0.6577598828696926
0.0070074860706693136,0.6579428989751098
0.007012523803286617,0.6579428989751098
0.007012523803286617,0.6581259150805271
0.0070175615359039205,0.6581259150805271
0.0070175615359039205,0.658400439238653
0.007022599268521224,0.658400439238653
0.007022599268521224,0.6586749633967789
0.007027637001138527,0.6586749633967789
0.007027637001138527,0.6587664714494875
0.007032674733755831,0.6587664714494875
0.007032674733755831,0.6588579795021962
0.007062901129459653,0.6588579795021962
0.007062901129459653,0.6590409956076134
0.007067938862076956,0.6590409956076134
0.007067938862076956,0.6591325036603221
0.00707297659469426,0.6591325036603221
0.00707297659469426,0.6592240117130308
0.007093127525163475,0.6592240117130308
0.007093127525163475,0.6593155197657394
0.0071032029903980816,0.6593155197657394
0.0071032029903980816,0.6594070278184481
0.0071082407230153855,0.6594070278184481
0.0071082407230153855,0.6595900439238653
0.007123353920867296,0.6595900439238653
0.007123353920867296,0.659681551976574
0.007128391653484599,0.659681551976574
0.007128391653484599,0.6597730600292826
0.00714350485133651,0.6597730600292826
0.00714350485133651,0.6599560761346999
0.007148542583953814,0.6599560761346999
0.007148542583953814,0.660413616398243
0.007163655781805725,0.660413616398243
0.007163655781805725,0.6606881405563689
0.007173731247040332,0.6606881405563689
0.007173731247040332,0.6609626647144948
0.007178768979657636,0.6609626647144948
0.007178768979657636,0.6610541727672035
0.00718380671227494,0.6610541727672035
0.00718380671227494,0.6612371888726208
0.007188844444892243,0.6612371888726208
0.007188844444892243,0.6615117130307467
0.007229146305830672,0.6615117130307467
0.007229146305830672,0.6616032210834554
0.007244259503682583,0.6616032210834554
0.007244259503682583,0.6618777452415813
0.007249297236299886,0.6618777452415813
0.007249297236299886,0.6622437774524158
0.007259372701534494,0.6622437774524158
0.007259372701534494,0.6624267935578331
0.007264410434151797,0.6624267935578331
0.007264410434151797,0.6626098096632503
0.007269448166769101,0.6626098096632503
0.007269448166769101,0.662701317715959
0.007274485899386405,0.662701317715959
0.007274485899386405,0.6627928257686676
0.007279523632003708,0.6627928257686676
0.007279523632003708,0.6628843338213762
0.007289599097238315,0.6628843338213762
0.007289599097238315,0.6630673499267935
0.007294636829855618,0.6630673499267935
0.007294636829855618,0.6635248901903368
0.007299674562472922,0.6635248901903368
0.007299674562472922,0.6636163982430454
0.007304712295090226,0.6636163982430454
0.007304712295090226,0.663707906295754
0.007309750027707529,0.663707906295754
0.007309750027707529,0.6637994143484627
0.007319825492942136,0.6637994143484627
0.007319825492942136,0.6638909224011713
0.00732486322555944,0.6638909224011713
0.00732486322555944,0.66398243045388
0.007355089621263262,0.66398243045388
0.007355089621263262,0.6640739385065886
0.00739539148220169,0.6640739385065886
0.00739539148220169,0.6641654465592972
0.007405466947436298,0.6641654465592972
0.007405466947436298,0.6642569546120058
0.007415542412670905,0.6642569546120058
0.007415542412670905,0.6643484626647145
0.007420580145288209,0.6643484626647145
0.007420580145288209,0.664714494875549
0.007425617877905512,0.664714494875549
0.007425617877905512,0.6648060029282576
0.007430655610522816,0.6648060029282576
0.007430655610522816,0.6648975109809663
0.00743569334314012,0.6648975109809663
0.00743569334314012,0.6649890190336749
0.007445768808374727,0.6649890190336749
0.007445768808374727,0.6650805270863837
0.007450806540992031,0.6650805270863837
0.007450806540992031,0.6651720351390923
0.0074709574714612445,0.6651720351390923
0.0074709574714612445,0.6654465592972182
0.007486070669313155,0.6654465592972182
0.007486070669313155,0.6655380673499268
0.007491108401930459,0.6655380673499268
0.007491108401930459,0.6657210834553441
0.007496146134547763,0.6657210834553441
0.007496146134547763,0.6658125915080527
0.00750622159978237,0.6658125915080527
0.00750622159978237,0.6659040995607614
0.007511259332399674,0.6659040995607614
0.007511259332399674,0.66599560761347
0.007526372530251585,0.66599560761347
0.007526372530251585,0.6660871156661786
0.007531410262868888,0.6660871156661786
0.007531410262868888,0.6661786237188873
0.007536447995486192,0.6661786237188873
0.007536447995486192,0.6663616398243045
0.007541485728103496,0.6663616398243045
0.007541485728103496,0.6664531478770132
0.0075515611933381025,0.6664531478770132
0.0075515611933381025,0.6665446559297218
0.007556598925955406,0.6665446559297218
0.007556598925955406,0.6666361639824304
0.0075616366585727094,0.6666361639824304
0.0075616366585727094,0.666727672035139
0.007566674391190013,0.666727672035139
0.007566674391190013,0.6670937042459737
0.007571712123807317,0.6670937042459737
0.007571712123807317,0.6671852122986823
0.00757674985642462,0.6671852122986823
0.00757674985642462,0.667276720351391
0.007586825321659227,0.667276720351391
0.007586825321659227,0.6673682284040996
0.007591863054276531,0.6673682284040996
0.007591863054276531,0.6675512445095169
0.007601938519511138,0.6675512445095169
0.007601938519511138,0.6677342606149341
0.00763216491521496,0.6677342606149341
0.00763216491521496,0.6678257686676428
0.007637202647832264,0.6678257686676428
0.007637202647832264,0.6679172767203514
0.0076472781130668705,0.6679172767203514
0.0076472781130668705,0.66800878477306
0.007657353578301478,0.66800878477306
0.007657353578301478,0.6681918008784773
0.0076875799740053,0.6681918008784773
0.0076875799740053,0.6682833089311859
0.007748032765412943,0.6682833089311859
0.007748032765412943,0.6683748169838946
0.007763145963264854,0.6683748169838946
0.007763145963264854,0.6685578330893118
0.007768183695882157,0.6685578330893118
0.007768183695882157,0.6687408491947291
0.007783296893734068,0.6687408491947291
0.007783296893734068,0.6691068814055637
0.007793372358968676,0.6691068814055637
0.007793372358968676,0.6691983894582724
0.007798410091585979,0.6691983894582724
0.007798410091585979,0.6693814055636896
0.007803447824203283,0.6693814055636896
0.007803447824203283,0.6694729136163983
0.00781352328943789,0.6694729136163983
0.00781352328943789,0.6695644216691069
0.007818561022055193,0.6695644216691069
0.007818561022055193,0.6696559297218155
0.007823598754672497,0.6696559297218155
0.007823598754672497,0.6698389458272328
0.0078286364872898,0.6698389458272328
0.0078286364872898,0.6700219619326501
0.007858862882993622,0.6700219619326501
0.007858862882993622,0.6702049780380673
0.007863900615610925,0.6702049780380673
0.007863900615610925,0.6704795021961932
0.00786893834822823,0.6704795021961932
0.00786893834822823,0.6705710102489019
0.007879013813462836,0.6705710102489019
0.007879013813462836,0.6706625183016105
0.00788405154608014,0.6706625183016105
0.00788405154608014,0.6707540263543191
0.007889089278697444,0.6707540263543191
0.007889089278697444,0.6708455344070278
0.007914277941783962,0.6708455344070278
0.007914277941783962,0.6709370424597365
0.007924353407018568,0.6709370424597365
0.007924353407018568,0.6711200585651538
0.007944504337487784,0.6711200585651538
0.007944504337487784,0.671303074670571
0.007974730733191606,0.671303074670571
0.007974730733191606,0.6714860907759883
0.007984806198426212,0.6714860907759883
0.007984806198426212,0.6715775988286969
0.008004957128895427,0.6715775988286969
0.008004957128895427,0.6717606149341142
0.00800999486151273,0.6717606149341142
0.00800999486151273,0.6719436310395315
0.008015032594130033,0.6719436310395315
0.008015032594130033,0.6721266471449487
0.008020070326747338,0.6721266471449487
0.008020070326747338,0.672309663250366
0.008025108059364641,0.672309663250366
0.008025108059364641,0.6724011713030746
0.008035183524599249,0.6724011713030746
0.008035183524599249,0.6724926793557833
0.008045258989833855,0.6724926793557833
0.008045258989833855,0.6728587115666179
0.00805029672245116,0.6728587115666179
0.00805029672245116,0.6729502196193266
0.008060372187685766,0.6729502196193266
0.008060372187685766,0.6730417276720352
0.008070447652920374,0.6730417276720352
0.008070447652920374,0.6731332357247438
0.008080523118154982,0.6731332357247438
0.008080523118154982,0.6733162518301611
0.008085560850772285,0.6733162518301611
0.008085560850772285,0.6734992679355783
0.008090598583389588,0.6734992679355783
0.008090598583389588,0.6736822840409956
0.008100674048624195,0.6736822840409956
0.008100674048624195,0.6737737920937042
0.008105711781241498,0.6737737920937042
0.008105711781241498,0.6738653001464129
0.008110749513858803,0.6738653001464129
0.008110749513858803,0.6739568081991215
0.008115787246476106,0.6739568081991215
0.008115787246476106,0.6740483162518301
0.008125862711710714,0.6740483162518301
0.008125862711710714,0.674322840409956
0.008151051374797231,0.674322840409956
0.008151051374797231,0.674597364568082
0.008161126840031839,0.674597364568082
0.008161126840031839,0.6746888726207906
0.008166164572649142,0.6746888726207906
0.008166164572649142,0.6747803806734992
0.008171202305266446,0.6747803806734992
0.008171202305266446,0.6751464128843339
0.00817624003788375,0.6751464128843339
0.00817624003788375,0.6753294289897511
0.008186315503118357,0.6753294289897511
0.008186315503118357,0.6755124450951684
0.008211504166204874,0.6755124450951684
0.008211504166204874,0.675603953147877
0.008221579631439482,0.675603953147877
0.008221579631439482,0.6757869692532943
0.008246768294525999,0.6757869692532943
0.008246768294525999,0.6758784773060029
0.00826188149237791,0.6758784773060029
0.00826188149237791,0.6759699853587116
0.008266919224995214,0.6759699853587116
0.008266919224995214,0.6762445095168375
0.008297145620699036,0.6762445095168375
0.008297145620699036,0.6765190336749634
0.00830218335331634,0.6765190336749634
0.00830218335331634,0.6769765739385066
0.008322334283785553,0.6769765739385066
0.008322334283785553,0.6770680819912153
0.008337447481637464,0.6770680819912153
0.008337447481637464,0.6771595900439239
0.008342485214254769,0.6771595900439239
0.008342485214254769,0.6773426061493412
0.008347522946872072,0.6773426061493412
0.008347522946872072,0.6774341142020498
0.00835759841210668,0.6774341142020498
0.00835759841210668,0.6777086383601757
0.008362636144723982,0.6777086383601757
0.008362636144723982,0.6778001464128843
0.008387824807810501,0.6778001464128843
0.008387824807810501,0.6780746705710102
0.008392862540427804,0.6780746705710102
0.008392862540427804,0.6781661786237189
0.008402938005662412,0.6781661786237189
0.008402938005662412,0.6782576866764275
0.008407975738279715,0.6782576866764275
0.008407975738279715,0.678623718887262
0.008428126668748929,0.678623718887262
0.008428126668748929,0.6788067349926794
0.008433164401366234,0.6788067349926794
0.008433164401366234,0.6789897510980967
0.008438202133983537,0.6789897510980967
0.008438202133983537,0.6790812591508053
0.00844323986660084,0.6790812591508053
0.00844323986660084,0.6791727672035139
0.008448277599218144,0.6791727672035139
0.008448277599218144,0.6793557833089312
0.008453315331835447,0.6793557833089312
0.008453315331835447,0.6794472913616398
0.008478503994921966,0.6794472913616398
0.008478503994921966,0.6798133235724744
0.008493617192773877,0.6798133235724744
0.008493617192773877,0.6800878477306003
0.00849865492539118,0.6800878477306003
0.00849865492539118,0.6801793557833089
0.008518805855860394,0.6801793557833089
0.008518805855860394,0.6802708638360175
0.00853895678632961,0.6802708638360175
0.00853895678632961,0.6804538799414348
0.008543994518946912,0.6804538799414348
0.008543994518946912,0.6806368960468521
0.008549032251564215,0.6806368960468521
0.008549032251564215,0.6807284040995608
0.008559107716798823,0.6807284040995608
0.008559107716798823,0.6808199121522694
0.008569183182033431,0.6808199121522694
0.008569183182033431,0.6809114202049781
0.008594371845119948,0.6809114202049781
0.008594371845119948,0.6810029282576867
0.008619560508206467,0.6810029282576867
0.008619560508206467,0.6812774524158126
0.00862459824082377,0.6812774524158126
0.00862459824082377,0.6814604685212299
0.008634673706058377,0.6814604685212299
0.008634673706058377,0.6816434846266471
0.00863971143867568,0.6816434846266471
0.00863971143867568,0.6818265007320644
0.008649786903910288,0.6818265007320644
0.008649786903910288,0.681918008784773
0.008654824636527591,0.681918008784773
0.008654824636527591,0.6820095168374817
0.008659862369144896,0.6820095168374817
0.008659862369144896,0.6823755490483162
0.008664900101762199,0.6823755490483162
0.008664900101762199,0.6825585651537335
0.008669937834379502,0.6825585651537335
0.008669937834379502,0.6826500732064422
0.00868001329961411,0.6826500732064422
0.00868001329961411,0.6827415812591509
0.008685051032231413,0.6827415812591509
0.008685051032231413,0.6829245973645681
0.008690088764848718,0.6829245973645681
0.008690088764848718,0.6830161054172768
0.00869512649746602,0.6830161054172768
0.00869512649746602,0.683199121522694
0.008725352893169842,0.683199121522694
0.008725352893169842,0.6834736456808199
0.00873542835840445,0.6834736456808199
0.00873542835840445,0.6835651537335286
0.008745503823639056,0.6835651537335286
0.008745503823639056,0.6836566617862372
0.008755579288873664,0.6836566617862372
0.008755579288873664,0.6837481698389458
0.008760617021490967,0.6837481698389458
0.008760617021490967,0.6838396778916545
0.008770692486725575,0.6838396778916545
0.008770692486725575,0.6840226939970717
0.008790843417194789,0.6840226939970717
0.008790843417194789,0.6841142020497804
0.008795881149812092,0.6841142020497804
0.008795881149812092,0.684205710102489
0.008810994347664003,0.684205710102489
0.008810994347664003,0.6842972181551976
0.00882106981289861,0.6842972181551976
0.00882106981289861,0.6846632503660323
0.008831145278133218,0.6846632503660323
0.008831145278133218,0.6847547584187409
0.008836183010750521,0.6847547584187409
0.008836183010750521,0.6849377745241582
0.008846258475985129,0.6849377745241582
0.008846258475985129,0.6850292825768668
0.008851296208602432,0.6850292825768668
0.008851296208602432,0.6851207906295754
0.008871447139071646,0.6851207906295754
0.008871447139071646,0.6852122986822841
0.00887648487168895,0.6852122986822841
0.00887648487168895,0.6853038067349927
0.008921824465244683,0.6853038067349927
0.008921824465244683,0.6853953147877013
0.008936937663096594,0.6853953147877013
0.008936937663096594,0.68548682284041
0.008952050860948505,0.68548682284041
0.008952050860948505,0.6855783308931186
0.00896212632618311,0.6855783308931186
0.00896212632618311,0.6859443631039531
0.008967164058800416,0.6859443631039531
0.008967164058800416,0.686218887262079
0.008972201791417719,0.686218887262079
0.008972201791417719,0.6863103953147877
0.008977239524035022,0.6863103953147877
0.008977239524035022,0.6864934114202049
0.008982277256652326,0.6864934114202049
0.008982277256652326,0.6865849194729137
0.00898731498926963,0.6865849194729137
0.00898731498926963,0.6866764275256223
0.008997390454504237,0.6866764275256223
0.008997390454504237,0.6867679355783309
0.009012503652356148,0.6867679355783309
0.009012503652356148,0.6868594436310396
0.009027616850208059,0.6868594436310396
0.009027616850208059,0.6869509516837482
0.009072956443763791,0.6869509516837482
0.009077994176381094,0.6870424597364568
0.009083031908998397,0.6870424597364568
0.009083031908998397,0.6871339677891655
0.00911325830470222,0.6871339677891655
0.00911325830470222,0.6872254758418741
0.009118296037319524,0.6872254758418741
0.009118296037319524,0.6874084919472914
0.009123333769936827,0.6874084919472914
0.009123333769936827,0.6875
0.009138446967788738,0.6875
0.009138446967788738,0.6876830161054173
0.00914348470040604,0.6876830161054173
0.00914348470040604,0.6878660322108345
0.009153560165640649,0.6878660322108345
0.009153560165640649,0.6879575402635432
0.009158597898257952,0.6879575402635432
0.009158597898257952,0.6880490483162518
0.009178748828727167,0.6880490483162518
0.009178748828727167,0.6881405563689604
0.00918378656134447,0.6881405563689604
0.00918378656134447,0.6882320644216691
0.009193862026579078,0.6882320644216691
0.009193862026579078,0.6883235724743777
0.009198899759196381,0.6883235724743777
0.009198899759196381,0.6884150805270863
0.009203937491813684,0.6884150805270863
0.009203937491813684,0.6885065885797951
0.0092240884222829,0.6885065885797951
0.0092240884222829,0.6885980966325037
0.009234163887517506,0.6885980966325037
0.009234163887517506,0.6886896046852123
0.009254314817986721,0.6886896046852123
0.009254314817986721,0.6888726207906296
0.009284541213690543,0.6888726207906296
0.009284541213690543,0.6890556368960469
0.009304692144159757,0.6890556368960469
0.009304692144159757,0.6891471449487555
0.009339956272480882,0.6891471449487555
0.009339956272480882,0.6892386530014641
0.00935003173771549,0.6892386530014641
0.00935003173771549,0.6893301610541728
0.009360107202950095,0.6893301610541728
0.009360107202950095,0.6894216691068814
0.009375220400802006,0.6894216691068814
0.009375220400802006,0.6896046852122987
0.009410484529123133,0.6896046852122987
0.009410484529123133,0.6898792093704246
0.009425597726975043,0.6898792093704246
0.009425597726975043,0.6899707174231332
0.009430635459592347,0.6899707174231332
0.009430635459592347,0.6901537335285505
0.00943567319220965,0.6901537335285505
0.00943567319220965,0.6902452415812591
0.009440710924826954,0.6902452415812591
0.009440710924826954,0.6903367496339677
0.009445748657444257,0.6903367496339677
0.009445748657444257,0.6905197657393851
0.00945078639006156,0.6905197657393851
0.00945078639006156,0.6906112737920937
0.009460861855296168,0.6906112737920937
0.009460861855296168,0.690794289897511
0.009465899587913471,0.690794289897511
0.009465899587913471,0.6911603221083455
0.009496125983617293,0.6911603221083455
0.009496125983617293,0.6912518301610542
0.0095062014488519,0.6912518301610542
0.0095062014488519,0.6913433382137628
0.009521314646703812,0.6913433382137628
0.009521314646703812,0.6914348462664714
0.00953139011193842,0.6914348462664714
0.00953139011193842,0.6916178623718887
0.009581767438111455,0.6916178623718887
0.009581767438111455,0.6917093704245973
0.009601918368580669,0.6917093704245973
0.009601918368580669,0.6918923865300146
0.00961703156643258,0.6918923865300146
0.00961703156643258,0.6919838945827232
0.009642220229519098,0.6919838945827232
0.009642220229519098,0.6921669106881405
0.009652295694753706,0.6921669106881405
0.009652295694753706,0.6922584187408491
0.009657333427371009,0.6922584187408491
0.009657333427371009,0.6923499267935578
0.009667408892605617,0.6923499267935578
0.009667408892605617,0.6925329428989752
0.00967244662522292,0.6925329428989752
0.00967244662522292,0.6926244509516838
0.009677484357840223,0.6926244509516838
0.009677484357840223,0.6927159590043924
0.00968755982307483,0.6927159590043924
0.00968755982307483,0.6928074670571011
0.009692597555692134,0.6928074670571011
0.009692597555692134,0.6928989751098097
0.009697635288309438,0.6928989751098097
0.009697635288309438,0.6929904831625183
0.009702673020926741,0.6929904831625183
0.009702673020926741,0.6931734992679356
0.009742974881865171,0.6931734992679356
0.009742974881865171,0.6934480234260615
0.009768163544951688,0.6934480234260615
0.009768163544951688,0.6935395314787701
0.00981350313850742,0.6935395314787701
0.00981350313850742,0.6937225475841874
0.009818540871124725,0.6937225475841874
0.009818540871124725,0.693814055636896
0.009833654068976634,0.693814055636896
0.009833654068976634,0.6939055636896047
0.009838691801593939,0.6939055636896047
0.009838691801593939,0.6940885797950219
0.009843729534211242,0.6940885797950219
0.009843729534211242,0.6941800878477306
0.009848767266828545,0.6941800878477306
0.009848767266828545,0.6942715959004392
0.00986891819729776,0.6942715959004392
0.00986891819729776,0.6943631039531479
0.009884031395149671,0.6943631039531479
0.009884031395149671,0.6944546120058566
0.009894106860384277,0.6944546120058566
0.009894106860384277,0.6945461200585652
0.009899144593001582,0.6945461200585652
0.009899144593001582,0.6947291361639825
0.009904182325618885,0.6947291361639825
0.009904182325618885,0.6948206442166911
0.009909220058236188,0.6948206442166911
0.009909220058236188,0.6949121522693997
0.00995455965179192,0.6949121522693997
0.00995455965179192,0.695095168374817
0.009959597384409226,0.695095168374817
0.009959597384409226,0.6951866764275256
0.009974710582261136,0.6951866764275256
0.009974710582261136,0.6952781844802343
0.00997974831487844,0.6952781844802343
0.00997974831487844,0.6953696925329429
0.010009974710582261,0.6953696925329429
0.010009974710582261,0.6954612005856515
0.01003516337366878,0.6954612005856515
0.01003516337366878,0.6956442166910688
0.010045238838903386,0.6956442166910688
0.010045238838903386,0.6957357247437774
0.01005027657152069,0.6957357247437774
0.01005027657152069,0.6958272327964861
0.010055314304137994,0.6958272327964861
0.010055314304137994,0.6959187408491947
0.010060352036755297,0.6959187408491947
0.010060352036755297,0.6960102489019033
0.010070427501989904,0.6960102489019033
0.010070427501989904,0.696101756954612
0.010095616165076423,0.696101756954612
0.010095616165076423,0.6962847730600292
0.010105691630311029,0.6962847730600292
0.010105691630311029,0.696376281112738
0.010110729362928334,0.696376281112738
0.010110729362928334,0.6964677891654466
0.01012080482816294,0.6964677891654466
0.01012080482816294,0.6965592972181552
0.010130880293397548,0.6965592972181552
0.010130880293397548,0.6966508052708639
0.01013591802601485,0.6966508052708639
0.01013591802601485,0.6968338213762811
0.01016110668910137,0.6968338213762811
0.01016110668910137,0.6970168374816984
0.010166144421718672,0.6970168374816984
0.010166144421718672,0.697108345534407
0.010181257619570583,0.697108345534407
0.010181257619570583,0.6971998535871157
0.010186295352187888,0.6971998535871157
0.010186295352187888,0.6973828696925329
0.010191333084805191,0.6973828696925329
0.010191333084805191,0.6975658857979502
0.010206446282657102,0.6975658857979502
0.010206446282657102,0.6976573938506588
0.01021652174789171,0.6976573938506588
0.01021652174789171,0.6977489019033675
0.010221559480509013,0.6977489019033675
0.010221559480509013,0.6979319180087847
0.01023163494574362,0.6979319180087847
0.01023163494574362,0.698114934114202
0.010241710410978227,0.698114934114202
0.010241710410978227,0.6982064421669106
0.010251785876212834,0.6982064421669106
0.010251785876212834,0.6982979502196194
0.010266899074064745,0.6982979502196194
0.010266899074064745,0.698389458272328
0.010271936806682048,0.698389458272328
0.010271936806682048,0.6984809663250366
0.010297125469768567,0.6984809663250366
0.010297125469768567,0.6989385065885798
0.010307200935003175,0.6989385065885798
0.010307200935003175,0.6990300146412884
0.010312238667620478,0.6990300146412884
0.010312238667620478,0.6991215226939971
0.010332389598089691,0.6991215226939971
0.010332389598089691,0.6992130307467057
0.0103424650633243,0.6992130307467057
0.0103424650633243,0.6994875549048316
0.010352540528558907,0.6994875549048316
0.010352540528558907,0.6995790629575402
0.010367653726410816,0.6995790629575402
0.010367653726410816,0.6998535871156661
0.010382766924262727,0.6998535871156661
0.010382766924262727,0.6999450951683748
0.010387804656880032,0.6999450951683748
0.010387804656880032,0.7000366032210834
0.010392842389497335,0.7000366032210834
0.010392842389497335,0.700128111273792
0.010397880122114638,0.700128111273792
0.010397880122114638,0.7003111273792094
0.010412993319966549,0.7003111273792094
0.010412993319966549,0.700402635431918
0.01042810651781846,0.700402635431918
0.01042810651781846,0.7004941434846267
0.010468408378756889,0.7004941434846267
0.010468408378756889,0.7005856515373353
0.010518785704929924,0.7005856515373353
0.010518785704929924,0.700677159590044
0.01052382343754723,0.700677159590044
0.01052382343754723,0.7010431918008785
0.010533898902781835,0.7010431918008785
0.010533898902781835,0.7011346998535871
0.01053893663539914,0.7011346998535871
0.01053893663539914,0.7012262079062958
0.01055404983325105,0.7012262079062958
0.01055404983325105,0.7013177159590044
0.010559087565868354,0.7013177159590044
0.010559087565868354,0.701409224011713
0.010564125298485657,0.701409224011713
0.010564125298485657,0.7015007320644217
0.010569163031102962,0.7015007320644217
0.010569163031102962,0.7017752562225475
0.010574200763720265,0.7017752562225475
0.010574200763720265,0.7020497803806734
0.010579238496337568,0.7020497803806734
0.010579238496337568,0.7021412884333821
0.010614502624658694,0.7021412884333821
0.010614502624658694,0.7023243045387995
0.0106245780898933,0.7023243045387995
0.0106245780898933,0.7025073206442167
0.010634653555127908,0.7025073206442167
0.010634653555127908,0.7025988286969254
0.010639691287745211,0.7025988286969254
0.010639691287745211,0.702690336749634
0.010649766752979819,0.702690336749634
0.010649766752979819,0.7027818448023426
0.010654804485597122,0.7027818448023426
0.010654804485597122,0.7028733528550513
0.010690068613918248,0.7028733528550513
0.010690068613918248,0.7029648609077599
0.010725332742239373,0.7029648609077599
0.010725332742239373,0.7030563689604685
0.010745483672708587,0.7030563689604685
0.010745483672708587,0.7031478770131772
0.010755559137943195,0.7031478770131772
0.010755559137943195,0.7032393850658858
0.010760596870560498,0.7032393850658858
0.010760596870560498,0.7033308931185944
0.010775710068412409,0.7033308931185944
0.010775710068412409,0.7034224011713031
0.010785785533647016,0.7034224011713031
0.010785785533647016,0.7035139092240117
0.01079082326626432,0.7035139092240117
0.01079082326626432,0.703696925329429
0.010816011929350838,0.703696925329429
0.010816011929350838,0.7037884333821376
0.010821049661968141,0.7037884333821376
0.010821049661968141,0.7038799414348462
0.010826087394585446,0.7038799414348462
0.010826087394585446,0.7039714494875549
0.010831125127202749,0.7039714494875549
0.010831125127202749,0.7041544655929722
0.010836162859820052,0.7041544655929722
0.010836162859820052,0.7042459736456809
0.01084623832505466,0.7042459736456809
0.01084623832505466,0.7045204978038068
0.01086135152290657,0.7045204978038068
0.01086135152290657,0.7046120058565154
0.010881502453375784,0.7046120058565154
0.010881502453375784,0.704703513909224
0.010891577918610392,0.704703513909224
0.010891577918610392,0.7047950219619327
0.010896615651227695,0.7047950219619327
0.010896615651227695,0.7049780380673499
0.010901653383844998,0.7049780380673499
0.010901653383844998,0.7051610541727672
0.010916766581696909,0.7051610541727672
0.010916766581696909,0.7053440702781845
0.010926842046931517,0.7053440702781845
0.010926842046931517,0.7056185944363104
0.01093187977954882,0.7056185944363104
0.01093187977954882,0.705710102489019
0.010936917512166125,0.705710102489019
0.010936917512166125,0.7058016105417276
0.010957068442635338,0.7058016105417276
0.010957068442635338,0.7058931185944363
0.010967143907869946,0.7058931185944363
0.010967143907869946,0.7059846266471449
0.010977219373104552,0.7059846266471449
0.010977219373104552,0.7064421669106882
0.01098729483833916,0.7064421669106882
0.01098729483833916,0.7065336749633968
0.011017521234042982,0.7065336749633968
0.011017521234042982,0.7066251830161054
0.01102759669927759,0.7066251830161054
0.01102759669927759,0.7068081991215227
0.011037672164512196,0.7068081991215227
0.011037672164512196,0.7068997071742313
0.011072936292833322,0.7068997071742313
0.011072936292833322,0.7070827232796486
0.011077974025450625,0.7070827232796486
0.011077974025450625,0.7071742313323572
0.011093087223302536,0.7071742313323572
0.011093087223302536,0.7074487554904831
0.011133389084240965,0.7074487554904831
0.011133389084240965,0.7075402635431918
0.011138426816858268,0.7075402635431918
0.011138426816858268,0.707723279648609
0.011163615479944787,0.707723279648609
0.011163615479944787,0.7078147877013177
0.01116865321256209,0.7078147877013177
0.01116865321256209,0.7079062957540263
0.011178728677796698,0.7079062957540263
0.011178728677796698,0.7080893118594437
0.011193841875648609,0.7080893118594437
0.011193841875648609,0.7085468521229868
0.01120895507350052,0.7085468521229868
0.01120895507350052,0.7086383601756955
0.011213992806117823,0.7086383601756955
0.011213992806117823,0.7087298682284041
0.011219030538735126,0.7087298682284041
0.011219030538735126,0.7089128843338214
0.011239181469204341,0.7089128843338214
0.011239181469204341,0.70900439238653
0.011244219201821644,0.70900439238653
0.011244219201821644,0.7091874084919473
0.011249256934438947,0.7091874084919473
0.011249256934438947,0.7092789165446559
0.011254294667056252,0.7092789165446559
0.011254294667056252,0.7093704245973645
0.011259332399673555,0.7093704245973645
0.011259332399673555,0.7094619326500732
0.011269407864908163,0.7094619326500732
0.011269407864908163,0.7095534407027818
0.011279483330142769,0.7095534407027818
0.011279483330142769,0.7096449487554904
0.011329860656315806,0.7096449487554904
0.011329860656315806,0.7097364568081991
0.01139031344772345,0.7097364568081991
0.01139031344772345,0.7100109809663251
0.011420539843427271,0.7100109809663251
0.011420539843427271,0.7101024890190337
0.011425577576044574,0.7101024890190337
0.011425577576044574,0.7101939970717424
0.011430615308661877,0.7101939970717424
0.011430615308661877,0.710285505124451
0.011460841704365699,0.710285505124451
0.011460841704365699,0.7103770131771596
0.011486030367452217,0.7103770131771596
0.011486030367452217,0.7104685212298683
0.011496105832686824,0.7104685212298683
0.011496105832686824,0.7106515373352855
0.011501143565304128,0.7106515373352855
0.011501143565304128,0.7107430453879942
0.011511219030538734,0.7107430453879942
0.011511219030538734,0.7111090775988287
0.011516256763156039,0.7111090775988287
0.011516256763156039,0.7112005856515373
0.011541445426242556,0.7112005856515373
0.011541445426242556,0.711292093704246
0.011571671821946378,0.711292093704246
0.011571671821946378,0.7113836017569546
0.011606935950267504,0.7113836017569546
0.011606935950267504,0.7114751098096632
0.01165731327644054,0.7114751098096632
0.01165731327644054,0.7116581259150805
0.011667388741675147,0.7116581259150805
0.011667388741675147,0.7117496339677891
0.011677464206909753,0.7117496339677891
0.011677464206909753,0.7119326500732065
0.011682501939527058,0.7119326500732065
0.011682501939527058,0.7120241581259151
0.011692577404761664,0.7120241581259151
0.011692577404761664,0.7121156661786238
0.01171272833523088,0.7121156661786238
0.01171272833523088,0.7122071742313324
0.01172784153308279,0.7122071742313324
0.01172784153308279,0.712298682284041
0.011753030196169308,0.712298682284041
0.011753030196169308,0.7123901903367497
0.011768143394021218,0.7123901903367497
0.011768143394021218,0.7126647144948756
0.011778218859255826,0.7126647144948756
0.011778218859255826,0.7129392386530015
0.011793332057107737,0.7129392386530015
0.011793332057107737,0.7130307467057101
0.01179836978972504,0.7130307467057101
0.01179836978972504,0.7131222547584187
0.011843709383280773,0.7131222547584187
0.011843709383280773,0.7132137628111274
0.011878973511601899,0.7132137628111274
0.011878973511601899,0.713305270863836
0.011884011244219202,0.713305270863836
0.011884011244219202,0.7133967789165446
0.011889048976836505,0.7133967789165446
0.011889048976836505,0.7135797950219619
0.01189408670945381,0.7135797950219619
0.01189408670945381,0.7138543191800878
0.011899124442071113,0.7138543191800878
0.011899124442071113,0.7142203513909224
0.011929350837774935,0.7142203513909224
0.011929350837774935,0.7143118594436311
0.011934388570392238,0.7143118594436311
0.011934388570392238,0.714586383601757
0.011939426303009542,0.714586383601757
0.011939426303009542,0.7148609077598829
0.01196461496609606,0.7148609077598829
0.01196461496609606,0.7149524158125915
0.011984765896565273,0.7149524158125915
0.011984765896565273,0.7150439238653001
0.011999879094417184,0.7150439238653001
0.011999879094417184,0.7151354319180088
0.012009954559651792,0.7151354319180088
0.012009954559651792,0.715318448023426
0.01203514322273831,0.715318448023426
0.01203514322273831,0.7154099560761347
0.012045218687972916,0.7154099560761347
0.012045218687972916,0.7155014641288433
0.012060331885824827,0.7155014641288433
0.012060331885824827,0.7155929721815519
0.012095596014145954,0.7155929721815519
0.012095596014145954,0.7156844802342606
0.012140935607701686,0.7156844802342606
0.012140935607701686,0.7157759882869692
0.012156048805553597,0.7157759882869692
0.012156048805553597,0.7158674963396779
0.012166124270788203,0.7158674963396779
0.012166124270788203,0.7160505124450952
0.012171162003405508,0.7160505124450952
0.012171162003405508,0.7161420204978038
0.01217619973602281,0.7161420204978038
0.01217619973602281,0.7162335285505125
0.012186275201257419,0.7162335285505125
0.012186275201257419,0.7164165446559297
0.012191312933874722,0.7164165446559297
0.01220138839910933,0.7164165446559297
0.01221650159696124,0.7164165446559297
0.01221650159696124,0.7165080527086384
0.012236652527430454,0.7165080527086384
0.012236652527430454,0.716599560761347
0.012256803457899668,0.716599560761347
0.012256803457899668,0.7167825768667643
0.012266878923134276,0.7167825768667643
0.012266878923134276,0.7168740849194729
0.012271916655751579,0.7168740849194729
0.012271916655751579,0.7170571010248902
0.012292067586220794,0.7170571010248902
0.012292067586220794,0.7172401171303074
0.012297105318838097,0.7172401171303074
0.012297105318838097,0.717606149341142
0.012307180784072705,0.717606149341142
0.012307180784072705,0.7176976573938506
0.01234244491239383,0.7176976573938506
0.01234244491239383,0.7177891654465594
0.01235755811024574,0.7177891654465594
0.01235755811024574,0.717880673499268
0.012387784505949562,0.717880673499268
0.012387784505949562,0.7179721815519766
0.012418010901653384,0.7179721815519766
0.012418010901653384,0.7180636896046853
0.012423048634270687,0.7180636896046853
0.012423048634270687,0.7181551976573939
0.012448237297357206,0.7181551976573939
0.012448237297357206,0.7182467057101025
0.01252380328661676,0.7182467057101025
0.01252380328661676,0.7184297218155198
0.012528841019234063,0.7184297218155198
0.012528841019234063,0.7187957540263543
0.012533878751851366,0.7187957540263543
0.012533878751851366,0.718887262079063
0.012589293810641706,0.718887262079063
0.012589293810641706,0.7189787701317716
0.012604407008493617,0.7189787701317716
0.012604407008493617,0.7192532942898975
0.012614482473728225,0.7192532942898975
0.012614482473728225,0.7193448023426061
0.012634633404197439,0.7193448023426061
0.012634633404197439,0.7194363103953147
0.012654784334666653,0.7194363103953147
0.012654784334666653,0.7197108345534406
0.012659822067283957,0.7197108345534406
0.012659822067283957,0.719893850658858
0.01266485979990126,0.719893850658858
0.01266485979990126,0.7201683748169839
0.012669897532518563,0.7201683748169839
0.012669897532518563,0.7202598828696926
0.012679972997753171,0.7202598828696926
0.012679972997753171,0.7203513909224012
0.012685010730370474,0.7203513909224012
0.012685010730370474,0.7206259150805271
0.012695086195605082,0.7206259150805271
0.012695086195605082,0.7207174231332357
0.012755538987012725,0.7207174231332357
0.012755538987012725,0.7208089311859444
0.01277568991748194,0.7208089311859444
0.01277568991748194,0.720900439238653
0.012795840847951155,0.720900439238653
0.012795840847951155,0.7209919472913616
0.012800878580568458,0.7209919472913616
0.012800878580568458,0.7210834553440703
0.012821029511037672,0.7210834553440703
0.012821029511037672,0.7211749633967789
0.01284621817412419,0.7211749633967789
0.01284621817412419,0.7214494875549048
0.012871406837210709,0.7214494875549048
0.012871406837210709,0.7215409956076134
0.01288652003506262,0.7215409956076134
0.01288652003506262,0.7216325036603221
0.01290163323291453,0.7216325036603221
0.01290163323291453,0.7217240117130308
0.012936897361235655,0.7217240117130308
0.012936897361235655,0.7219070278184481
0.012946972826470263,0.7219070278184481
0.012946972826470263,0.7219985358711567
0.012997350152643299,0.7219985358711567
0.012997350152643299,0.722181551976574
0.013017501083112512,0.722181551976574
0.013017501083112512,0.7222730600292826
0.013042689746199031,0.7222730600292826
0.013042689746199031,0.7223645680819912
0.013052765211433637,0.7223645680819912
0.013052765211433637,0.7225475841874085
0.013082991607137459,0.7225475841874085
0.013082991607137459,0.7226390922401171
0.013093067072372067,0.7226390922401171
0.013093067072372067,0.7227306002928258
0.013108180270223977,0.7227306002928258
0.013108180270223977,0.7228221083455344
0.013123293468075888,0.7228221083455344
0.013123293468075888,0.722913616398243
0.013138406665927799,0.722913616398243
0.013138406665927799,0.7230051244509517
0.013158557596397013,0.7230051244509517
0.013158557596397013,0.7232796486090776
0.013163595329014318,0.7232796486090776
0.013163595329014318,0.7233711566617862
0.01316863306163162,0.7233711566617862
0.01316863306163162,0.7234626647144948
0.013203897189952745,0.7234626647144948
0.013203897189952745,0.7236456808199122
0.013244199050891175,0.7236456808199122
0.013244199050891175,0.7237371888726208
0.013289538644446907,0.7237371888726208
0.013289538644446907,0.7238286969253295
0.013299614109681515,0.7238286969253295
0.013299614109681515,0.7241032210834554
0.013309689574916121,0.7241032210834554
0.013309689574916121,0.724194729136164
0.013319765040150729,0.724194729136164
0.013319765040150729,0.7242862371888726
0.01333487823800264,0.7242862371888726
0.01333487823800264,0.7243777452415813
0.013344953703237248,0.7243777452415813
0.013344953703237248,0.7244692532942899
0.01334999143585455,0.7244692532942899
0.01334999143585455,0.7245607613469985
0.01337518009894107,0.7245607613469985
0.01337518009894107,0.7247437774524158
0.01339029329679298,0.7247437774524158
0.01339029329679298,0.7249267935578331
0.013405406494644891,0.7249267935578331
0.013405406494644891,0.7250183016105417
0.013410444227262194,0.7250183016105417
0.013410444227262194,0.7251098096632503
0.013415481959879497,0.7251098096632503
0.013415481959879497,0.725201317715959
0.013425557425114105,0.725201317715959
0.013425557425114105,0.7252928257686676
0.013440670622966016,0.7252928257686676
0.013440670622966016,0.7253843338213762
0.01347593475128714,0.7253843338213762
0.01347593475128714,0.7254758418740849
0.013491047949139051,0.7254758418740849
0.013491047949139051,0.7255673499267935
0.013501123414373659,0.7255673499267935
0.013501123414373659,0.7256588579795022
0.013506161146990962,0.7256588579795022
0.013506161146990962,0.7257503660322109
0.013511198879608267,0.7257503660322109
0.013511198879608267,0.7258418740849195
0.013521274344842873,0.7258418740849195
0.013521274344842873,0.7259333821376281
0.013551500740546694,0.7259333821376281
0.013551500740546694,0.7260248901903368
0.013561576205781302,0.7260248901903368
0.013561576205781302,0.726207906295754
0.013576689403633213,0.726207906295754
0.013576689403633213,0.7262994143484627
0.01358676486886782,0.7262994143484627
0.01358676486886782,0.72648243045388
0.01360187806671973,0.72648243045388
0.01360187806671973,0.7266654465592972
0.013606915799337035,0.7266654465592972
0.013606915799337035,0.7267569546120058
0.013611953531954338,0.7267569546120058
0.013611953531954338,0.7268484626647145
0.013637142195040856,0.7268484626647145
0.013637142195040856,0.7269399707174231
0.01365729312551007,0.7269399707174231
0.01365729312551007,0.7270314787701317
0.013662330858127373,0.7270314787701317
0.013662330858127373,0.7273060029282576
0.013677444055979284,0.7273060029282576
0.013677444055979284,0.7273975109809663
0.013682481788596589,0.7273975109809663
0.013682481788596589,0.7274890190336749
0.013687519521213892,0.7274890190336749
0.013687519521213892,0.7276720351390923
0.0136975949864485,0.7276720351390923
0.0136975949864485,0.7277635431918009
0.013722783649535017,0.7277635431918009
0.013722783649535017,0.7279465592972182
0.013727821382152321,0.7279465592972182
0.013727821382152321,0.7280380673499268
0.013742934580004232,0.7280380673499268
0.013742934580004232,0.7281295754026355
0.013763085510473446,0.7281295754026355
0.013763085510473446,0.7283125915080527
0.013768123243090749,0.7283125915080527
0.013768123243090749,0.7284040995607614
0.013778198708325357,0.7284040995607614
0.013778198708325357,0.72849560761347
0.01378323644094266,0.72849560761347
0.01378323644094266,0.7285871156661786
0.013793311906177268,0.7285871156661786
0.013793311906177268,0.7286786237188873
0.013813462836646482,0.7286786237188873
0.013813462836646482,0.7288616398243045
0.013818500569263786,0.7288616398243045
0.013818500569263786,0.7290446559297218
0.01382353830188109,0.7290446559297218
0.01382353830188109,0.729227672035139
0.013833613767115697,0.729227672035139
0.013833613767115697,0.7293191800878477
0.013848726964967608,0.7293191800878477
0.013848726964967608,0.7294106881405563
0.01387895336067143,0.7294106881405563
0.01387895336067143,0.7295021961932651
0.013883991093288733,0.7295021961932651
0.013883991093288733,0.7295937042459737
0.013889028825906036,0.7295937042459737
0.013889028825906036,0.7296852122986823
0.01389406655852334,0.7296852122986823
0.01389406655852334,0.7298682284040996
0.013919255221609857,0.7298682284040996
0.013919255221609857,0.7299597364568082
0.013934368419461768,0.7299597364568082
0.013934368419461768,0.7300512445095169
0.013954519349930984,0.7300512445095169
0.013954519349930984,0.7301427525622255
0.013969632547782895,0.7301427525622255
0.013969632547782895,0.7302342606149341
0.013974670280400198,0.7302342606149341
0.013974670280400198,0.7303257686676428
0.014025047606573233,0.7303257686676428
0.014025047606573233,0.7304172767203514
0.014055274002277055,0.7304172767203514
0.014055274002277055,0.73050878477306
0.01406031173489436,0.73050878477306
0.01406031173489436,0.7306918008784773
0.014080462665363573,0.7306918008784773
0.014080462665363573,0.7308748169838946
0.014100613595832787,0.7308748169838946
0.014100613595832787,0.7310578330893118
0.014110689061067395,0.7310578330893118
0.014110689061067395,0.7311493411420205
0.01414595318938852,0.7311493411420205
0.01414595318938852,0.7312408491947291
0.014150990922005823,0.7312408491947291
0.014150990922005823,0.7313323572474377
0.01416106638724043,0.7313323572474377
0.01416106638724043,0.7316983894582724
0.014171141852475038,0.7316983894582724
0.014171141852475038,0.7319729136163983
0.014191292782944252,0.7319729136163983
0.014191292782944252,0.7320644216691069
0.014221519178648074,0.7320644216691069
0.014221519178648074,0.7322474377745242
0.01427189650482111,0.7322474377745242
0.01427189650482111,0.7323389458272328
0.01428700970267302,0.7323389458272328
0.01428700970267302,0.7324304538799414
0.014322273830994147,0.7324304538799414
0.014322273830994147,0.7325219619326501
0.014337387028846058,0.7325219619326501
0.014337387028846058,0.7326134699853587
0.01436761342454988,0.7326134699853587
0.01436761342454988,0.732796486090776
0.014392802087636396,0.732796486090776
0.014392802087636396,0.7329795021961932
0.014402877552871004,0.7329795021961932
0.014402877552871004,0.7330710102489019
0.014412953018105612,0.7330710102489019
0.014412953018105612,0.7332540263543191
0.014417990750722915,0.7332540263543191
0.014417990750722915,0.7333455344070278
0.014448217146426736,0.7333455344070278
0.014448217146426736,0.7334370424597365
0.01445325487904404,0.7334370424597365
0.01445325487904404,0.7335285505124451
0.014493556739982469,0.7335285505124451
0.014493556739982469,0.7336200585651538
0.014533858600920898,0.7336200585651538
0.014533858600920898,0.7337115666178624
0.014538896333538201,0.7337115666178624
0.014538896333538201,0.7339860907759883
0.014554009531390112,0.7339860907759883
0.014554009531390112,0.7340775988286969
0.014574160461859326,0.7340775988286969
0.014574160461859326,0.7341691068814056
0.014609424590180452,0.7341691068814056
0.014609424590180452,0.7343521229868228
0.014624537788032362,0.7343521229868228
0.014624537788032362,0.7344436310395315
0.014659801916353488,0.7344436310395315
0.014659801916353488,0.7345351390922401
0.01469002831205731,0.7345351390922401
0.01469002831205731,0.7346266471449487
0.014710179242526523,0.7346266471449487
0.014710179242526523,0.7347181551976574
0.014740405638230345,0.7347181551976574
0.014740405638230345,0.734809663250366
0.014745443370847648,0.734809663250366
0.014745443370847648,0.7349926793557833
0.014826047092724507,0.7349926793557833
0.014826047092724507,0.7350841874084919
0.01483108482534181,0.7350841874084919
0.01483108482534181,0.7351756954612005
0.014836122557959113,0.7351756954612005
0.014836122557959113,0.7354502196193266
0.014841160290576418,0.7354502196193266
0.014841160290576418,0.7355417276720352
0.014846198023193721,0.7355417276720352
0.014846198023193721,0.7356332357247438
0.014851235755811024,0.7356332357247438
0.014851235755811024,0.7357247437774525
0.014876424418897543,0.7357247437774525
0.014876424418897543,0.7358162518301611
0.014906650814601364,0.7358162518301611
0.014906650814601364,0.7359077598828697
0.014916726279835972,0.7359077598828697
0.014916726279835972,0.7359992679355783
0.014936877210305186,0.7359992679355783
0.014936877210305186,0.736090775988287
0.014941914942922489,0.736090775988287
0.014941914942922489,0.7361822840409956
0.014951990408157097,0.7361822840409956
0.014951990408157097,0.7362737920937042
0.015002367734330132,0.7362737920937042
0.015002367734330132,0.7363653001464129
0.015062820525737776,0.7363653001464129
0.015062820525737776,0.7365483162518301
0.015088009188824294,0.7365483162518301
