fpr,tpr
0.0,0.0
0.0,0.0006944444444444445
0.0,0.009027777777777777
1.6518004625041296e-05,0.009027777777777777
1.6518004625041296e-05,0.02638888888888889
3.303600925008259e-05,0.02638888888888889
3.303600925008259e-05,0.04652777777777778
4.955401387512388e-05,0.04652777777777778
4.955401387512388e-05,0.06180555555555556
6.607201850016519e-05,0.06180555555555556
6.607201850016519e-05,0.07777777777777778
8.259002312520647e-05,0.07777777777777778
8.259002312520647e-05,0.08263888888888889
9.910802775024777e-05,0.08263888888888889
9.910802775024777e-05,0.08402777777777778
9.910802775024777e-05,0.08541666666666667
9.910802775024777e-05,0.10208333333333333
0.00011562603237528906,0.10208333333333333
0.00011562603237528906,0.10486111111111111
0.00013214403700033037,0.10486111111111111
0.00013214403700033037,0.10833333333333334
0.00014866204162537167,0.10833333333333334
0.00016518004625041294,0.10902777777777778
0.00016518004625041294,0.11736111111111111
0.00018169805087545423,0.11736111111111111
0.00018169805087545423,0.11805555555555555
0.00019821605550049553,0.11805555555555555
0.00019821605550049553,0.12222222222222222
0.00021473406012553683,0.12222222222222222
0.00021473406012553683,0.13055555555555556
0.00023125206475057812,0.13055555555555556
0.00023125206475057812,0.13194444444444445
0.0002477700693756194,0.13194444444444445
0.0002477700693756194,0.14027777777777778
0.000280806078625702,0.14027777777777778
0.000280806078625702,0.14375
0.00029732408325074334,0.14375
0.00029732408325074334,0.15069444444444444
0.00029732408325074334,0.15208333333333332
0.0003138420878757846,0.15208333333333332
0.0003138420878757846,0.15833333333333333
0.0003303600925008259,0.15833333333333333
0.0003303600925008259,0.16319444444444445
0.0003303600925008259,0.16458333333333333
0.0003303600925008259,0.16527777777777777
0.0003468780971258672,0.16527777777777777
0.0003468780971258672,0.16805555555555557
0.00036339610175090847,0.16805555555555557
0.00036339610175090847,0.17777777777777778
0.00036339610175090847,0.17916666666666667
0.0003799141063759498,0.17916666666666667
0.0003799141063759498,0.1798611111111111
0.00039643211100099106,0.1798611111111111
0.00039643211100099106,0.18680555555555556
0.00039643211100099106,0.18819444444444444
0.00039643211100099106,0.1909722222222222
0.0004129501156260324,0.1909722222222222
0.0004129501156260324,0.2263888888888889
0.00042946812025107365,0.2263888888888889
0.00042946812025107365,0.2298611111111111
0.000445986124876115,0.2298611111111111
0.000445986124876115,0.23680555555555555
0.00046250412950115625,0.23680555555555555
0.00046250412950115625,0.24305555555555555
0.00047902213412619757,0.24305555555555555
0.00047902213412619757,0.24375
0.0004955401387512388,0.24375
0.0004955401387512388,0.24444444444444444
0.0004955401387512388,0.24583333333333332
0.0004955401387512388,0.2534722222222222
0.0005120581433762802,0.2534722222222222
0.0005120581433762802,0.26319444444444445
0.0005285761480013215,0.26319444444444445
0.0005285761480013215,0.2652777777777778
0.0005450941526263627,0.2652777777777778
0.0005450941526263627,0.2673611111111111
0.000561612157251404,0.2673611111111111
0.000561612157251404,0.30486111111111114
0.0005781301618764453,0.30486111111111114
0.0005781301618764453,0.3055555555555556
0.0005946481665014867,0.3055555555555556
0.0005946481665014867,0.30694444444444446
0.0006111661711265279,0.30694444444444446
0.0006111661711265279,0.3125
0.0006442021803766105,0.3125
0.0006442021803766105,0.3173611111111111
0.0006607201850016518,0.3173611111111111
0.0006607201850016518,0.31875
0.0006937561942517344,0.31875
0.0006937561942517344,0.32916666666666666
0.0007102741988767757,0.32916666666666666
0.0007102741988767757,0.33194444444444443
0.0007267922035018169,0.33194444444444443
0.0007267922035018169,0.33402777777777776
0.0007433102081268583,0.33402777777777776
0.0007433102081268583,0.33958333333333335
0.0007598282127518996,0.33958333333333335
0.0007598282127518996,0.3402777777777778
0.0007763462173769409,0.3402777777777778
0.0007763462173769409,0.3416666666666667
0.0007928642220019821,0.3416666666666667
0.0007928642220019821,0.34305555555555556
0.0008093822266270234,0.34305555555555556
0.0008093822266270234,0.34375
0.0008259002312520648,0.34375
0.0008259002312520648,0.35347222222222224
0.0008424182358771061,0.35347222222222224
0.0008424182358771061,0.35833333333333334
0.0008589362405021473,0.35833333333333334
0.0008589362405021473,0.3645833333333333
0.0008754542451271886,0.3645833333333333
0.0008754542451271886,0.36527777777777776
0.00089197224975223,0.36527777777777776
0.00089197224975223,0.36666666666666664
0.0009084902543772713,0.36666666666666664
0.0009084902543772713,0.36736111111111114
0.0009745622728774364,0.36736111111111114
0.0009745622728774364,0.37430555555555556
0.0009910802775024777,0.37430555555555556
0.0009910802775024777,0.3770833333333333
0.001007598282127519,0.3770833333333333
0.001007598282127519,0.37777777777777777
0.0010241162867525603,0.37777777777777777
0.0010241162867525603,0.38055555555555554
0.0010406342913776017,0.38055555555555554
0.0010406342913776017,0.3819444444444444
0.001073670300627684,0.3819444444444444
0.001073670300627684,0.3854166666666667
0.0010901883052527254,0.3854166666666667
0.0010901883052527254,0.3861111111111111
0.001123224314502808,0.3861111111111111
0.001123224314502808,0.38819444444444445
0.0011562603237528907,0.38819444444444445
0.0011562603237528907,0.3923611111111111
0.0011562603237528907,0.39375
0.0011562603237528907,0.39861111111111114
0.001172778328377932,0.39861111111111114
0.001172778328377932,0.4
0.0011892963330029733,0.4
0.0011892963330029733,0.40347222222222223
0.0012223323422530558,0.40347222222222223
0.0012223323422530558,0.4041666666666667
0.001238850346878097,0.4041666666666667
0.001238850346878097,0.4048611111111111
0.0012718863561281797,0.4048611111111111
0.0012718863561281797,0.40694444444444444
0.0013049223653782624,0.40694444444444444
0.0013214403700033035,0.4076388888888889
0.0013379583746283448,0.4076388888888889
0.0013379583746283448,0.41180555555555554
0.0013544763792533861,0.41180555555555554
0.0013544763792533861,0.4125
0.0013709943838784275,0.4125
0.0013709943838784275,0.4131944444444444
0.0013875123885034688,0.4131944444444444
0.0013875123885034688,0.4152777777777778
0.0014040303931285101,0.4152777777777778
0.0014040303931285101,0.41597222222222224
0.0014370664023785928,0.41597222222222224
0.0014370664023785928,0.41805555555555557
0.0014535844070036339,0.41805555555555557
0.0014535844070036339,0.4215277777777778
0.0014701024116286752,0.4215277777777778
0.0014701024116286752,0.4222222222222222
0.0014866204162537165,0.4222222222222222
0.0014866204162537165,0.4284722222222222
0.0015196564255037992,0.4284722222222222
0.0015196564255037992,0.43333333333333335
0.0015361744301288405,0.43333333333333335
0.0015361744301288405,0.43472222222222223
0.0015526924347538818,0.43472222222222223
0.0015526924347538818,0.4354166666666667
0.001569210439378923,0.4354166666666667
0.001569210439378923,0.4361111111111111
0.0015857284440039642,0.4361111111111111
0.0015857284440039642,0.43680555555555556
0.0016022464486290056,0.43680555555555556
0.0016022464486290056,0.4395833333333333
0.001618764453254047,0.4395833333333333
0.001618764453254047,0.4423611111111111
0.0016518004625041295,0.4423611111111111
0.0016518004625041295,0.44513888888888886
0.0016848364717542122,0.44513888888888886
0.0016848364717542122,0.4465277777777778
0.0017013544763792533,0.4465277777777778
0.0017013544763792533,0.45555555555555555
0.0017178724810042946,0.45555555555555555
0.0017178724810042946,0.45625
0.001734390485629336,0.45625
0.001734390485629336,0.4583333333333333
0.0017674264948794186,0.4583333333333333
0.0017674264948794186,0.4597222222222222
0.00178394449950446,0.4597222222222222
0.00178394449950446,0.46319444444444446
0.00178394449950446,0.46458333333333335
0.00178394449950446,0.4673611111111111
0.0018004625041295012,0.4673611111111111
0.0018004625041295012,0.4701388888888889
0.0018169805087545426,0.4701388888888889
0.0018169805087545426,0.47152777777777777
0.001850016518004625,0.47152777777777777
0.001850016518004625,0.4722222222222222
0.0018665345226296663,0.4722222222222222
0.0018665345226296663,0.47430555555555554
0.0019160885365047903,0.47430555555555554
0.0019160885365047903,0.4756944444444444
0.0019160885365047903,0.47847222222222224
0.0019326065411298316,0.47847222222222224
0.0019326065411298316,0.48055555555555557
0.001965642550379914,0.48055555555555557
0.001965642550379914,0.48194444444444445
0.0019986785596299967,0.48194444444444445
0.0019986785596299967,0.48333333333333334
0.0020317145688800793,0.48333333333333334
0.0020317145688800793,0.48541666666666666
0.0020482325735051207,0.48541666666666666
0.0020482325735051207,0.4888888888888889
0.002064750578130162,0.4888888888888889
0.002064750578130162,0.4895833333333333
0.0020812685827552033,0.4895833333333333
0.0020812685827552033,0.49027777777777776
0.002147340601255368,0.49027777777777776
0.002147340601255368,0.4909722222222222
0.002147340601255368,0.49236111111111114
0.002147340601255368,0.49722222222222223
0.0021638586058804095,0.49722222222222223
0.0021638586058804095,0.4986111111111111
0.002180376610505451,0.4986111111111111
0.002180376610505451,0.5013888888888889
0.002196894615130492,0.5013888888888889
0.002196894615130492,0.5027777777777778
0.0022134126197555335,0.5027777777777778
0.0022134126197555335,0.5041666666666667
0.002246448629005616,0.5041666666666667
0.002246448629005616,0.5048611111111111
0.0022629666336306574,0.5048611111111111
0.0022629666336306574,0.5104166666666666
0.0022629666336306574,0.5118055555555555
0.0022629666336306574,0.5125
0.0023125206475057814,0.5125
0.0023125206475057814,0.5131944444444444
0.0023290386521308227,0.5131944444444444
0.0023290386521308227,0.5152777777777777
0.002345556656755864,0.5152777777777777
0.002345556656755864,0.51875
0.0023620746613809054,0.51875
0.0023620746613809054,0.5194444444444445
0.0023951106706309876,0.5194444444444445
0.0023951106706309876,0.5208333333333334
0.0023951106706309876,0.5222222222222223
0.0023951106706309876,0.5229166666666667
0.0024446646845061116,0.5229166666666667
0.0024446646845061116,0.5236111111111111
0.002461182689131153,0.5236111111111111
0.002461182689131153,0.525
0.002477700693756194,0.525
0.002477700693756194,0.5263888888888889
0.0024942186983812355,0.5263888888888889
0.0024942186983812355,0.5284722222222222
0.002510736703006277,0.5284722222222222
0.002510736703006277,0.5298611111111111
0.002560290716881401,0.5298611111111111
0.002560290716881401,0.5319444444444444
0.0025933267261314835,0.5319444444444444
0.0025933267261314835,0.5340277777777778
0.002642880740006607,0.5340277777777778
0.002642880740006607,0.5347222222222222
0.002692434753881731,0.5347222222222222
0.002692434753881731,0.5361111111111111
0.0027089527585067723,0.5361111111111111
0.0027089527585067723,0.5375
0.0027254707631318136,0.5375
0.0027254707631318136,0.5388888888888889
0.002741988767756855,0.5388888888888889
0.002741988767756855,0.5416666666666666
0.0027585067723818963,0.5416666666666666
0.0027585067723818963,0.5423611111111111
0.002791542781631979,0.5423611111111111
0.002791542781631979,0.54375
0.0028080607862570202,0.54375
0.0028080607862570202,0.5451388888888888
0.0028245787908820616,0.5451388888888888
0.0028245787908820616,0.5486111111111112
0.0028741328047571855,0.5486111111111112
0.0028741328047571855,0.5506944444444445
0.0028906508093822264,0.5506944444444445
0.0028906508093822264,0.5513888888888889
0.0029567228278823917,0.5513888888888889
0.0029567228278823917,0.5520833333333334
0.002973240832507433,0.5520833333333334
0.002973240832507433,0.5569444444444445
0.0029897588371324744,0.5569444444444445
0.0029897588371324744,0.5583333333333333
0.003022794846382557,0.5583333333333333
0.003022794846382557,0.5590277777777778
0.0030393128510075983,0.5590277777777778
0.0030393128510075983,0.5597222222222222
0.0030888668648827223,0.5597222222222222
0.0030888668648827223,0.5611111111111111
0.0031053848695077636,0.5611111111111111
0.0031053848695077636,0.5625
0.003121902874132805,0.5625
0.003121902874132805,0.56875
0.003138420878757846,0.56875
0.003138420878757846,0.5694444444444444
0.003154938883382887,0.5694444444444444
0.003154938883382887,0.5701388888888889
0.0031714568880079285,0.5701388888888889
0.0031714568880079285,0.5708333333333333
0.00318797489263297,0.5708333333333333
0.00318797489263297,0.5715277777777777
0.0032210109018830525,0.5715277777777777
0.0032210109018830525,0.5736111111111111
0.003237528906508094,0.5736111111111111
0.003237528906508094,0.575
0.003254046911133135,0.575
0.003254046911133135,0.5770833333333333
0.0032705649157581764,0.5770833333333333
0.0032705649157581764,0.5798611111111112
0.003303600925008259,0.5798611111111112
0.003303600925008259,0.5819444444444445
0.003353154938883383,0.5819444444444445
0.003353154938883383,0.5833333333333334
0.0033861909481334653,0.5833333333333334
0.0033861909481334653,0.5847222222222223
0.003419226957383548,0.5847222222222223
0.003419226957383548,0.5868055555555556
0.0035018169805087545,0.5868055555555556
0.0035018169805087545,0.5875
0.003518334985133796,0.5875
0.003518334985133796,0.5881944444444445
0.003534852989758837,0.5881944444444445
0.003534852989758837,0.5888888888888889
0.0035513709943838785,0.5888888888888889
0.0035513709943838785,0.5895833333333333
0.003584407003633961,0.5895833333333333
0.003584407003633961,0.5902777777777778
0.003617443012884044,0.5902777777777778
0.003617443012884044,0.5909722222222222
0.0036835150313842087,0.5909722222222222
0.0036835150313842087,0.5916666666666667
0.00370003303600925,0.5916666666666667
0.00370003303600925,0.5923611111111111
0.0037165510406342913,0.5923611111111111
0.0037165510406342913,0.5944444444444444
0.003865213082259663,0.5944444444444444
0.003865213082259663,0.5958333333333333
0.0038982490915097454,0.5958333333333333
0.0038982490915097454,0.5965277777777778
0.004063429137760159,0.5965277777777778
0.004063429137760159,0.5972222222222222
0.004112983151635282,0.5972222222222222
0.004112983151635282,0.5979166666666667
0.004129501156260324,0.5979166666666667
0.004129501156260324,0.5993055555555555
0.004162537165510407,0.5993055555555555
0.004162537165510407,0.6
0.00421209117938553,0.6
0.00421209117938553,0.6020833333333333
0.004245127188635613,0.6020833333333333
0.004245127188635613,0.6041666666666666
0.004294681202510736,0.6041666666666666
0.004294681202510736,0.60625
0.004360753221010902,0.60625
0.004360753221010902,0.6069444444444444
0.004410307234886026,0.6069444444444444
0.004410307234886026,0.6090277777777777
0.004426825239511067,0.6090277777777777
0.004426825239511067,0.6104166666666667
0.004492897258011232,0.6104166666666667
0.004492897258011232,0.6111111111111112
0.004525933267261315,0.6111111111111112
0.004525933267261315,0.6118055555555556
0.004542451271886356,0.6118055555555556
0.004542451271886356,0.6125
0.004575487281136438,0.6125
0.004575487281136438,0.6131944444444445
0.004608523290386521,0.6131944444444445
0.004608523290386521,0.6138888888888889
0.004625041295011563,0.6138888888888889
0.004625041295011563,0.6145833333333334
0.004641559299636604,0.6145833333333334
0.004641559299636604,0.6152777777777778
0.004691113313511728,0.6152777777777778
0.004691113313511728,0.6166666666666667
0.004724149322761811,0.6166666666666667
0.004724149322761811,0.6173611111111111
0.004773703336636934,0.6173611111111111
0.004773703336636934,0.6180555555555556
0.004790221341261975,0.6180555555555556
0.004790221341261975,0.61875
0.0048397753551371,0.61875
0.0048397753551371,0.6201388888888889
0.004905847373637265,0.6201388888888889
0.004905847373637265,0.6208333333333333
0.00497191939213743,0.6208333333333333
0.00497191939213743,0.6222222222222222
0.004988437396762471,0.6222222222222222
0.004988437396762471,0.6229166666666667
0.005021473406012554,0.6229166666666667
0.005021473406012554,0.6236111111111111
0.005087545424512719,0.6236111111111111
0.005087545424512719,0.6243055555555556
0.00510406342913776,0.6243055555555556
0.00510406342913776,0.625
0.005120581433762802,0.625
0.005120581433762802,0.6270833333333333
0.005170135447637925,0.6270833333333333
0.005170135447637925,0.6277777777777778
0.00521968946151305,0.6277777777777778
0.00521968946151305,0.6284722222222222
0.005252725470763132,0.6284722222222222
0.005252725470763132,0.6305555555555555
0.005269243475388173,0.6305555555555555
0.005269243475388173,0.63125
0.005384869507763462,0.63125
0.005384869507763462,0.6333333333333333
0.005467459530888669,0.6333333333333333
0.005467459530888669,0.6347222222222222
0.00548397753551371,0.6347222222222222
0.00548397753551371,0.6354166666666666
0.005550049554013875,0.6354166666666666
0.005550049554013875,0.6361111111111111
0.005599603567888999,0.6361111111111111
0.005599603567888999,0.6368055555555555
0.0056161215725140405,0.6368055555555555
0.0056161215725140405,0.6388888888888888
0.005764783614139412,0.6388888888888888
0.005764783614139412,0.6395833333333333
0.005962999669639908,0.6395833333333333
0.005962999669639908,0.6402777777777777
0.005979517674264949,0.6402777777777777
0.005979517674264949,0.6409722222222223
0.0059960356788899905,0.6409722222222223
0.0059960356788899905,0.6423611111111112
0.006078625702015197,0.6423611111111112
0.006078625702015197,0.6430555555555556
0.0060951437066402376,0.6430555555555556
0.0060951437066402376,0.6451388888888889
0.006111661711265279,0.6451388888888889
0.006111661711265279,0.6479166666666667
0.00612817971589032,0.6479166666666667
0.00612817971589032,0.6486111111111111
0.006144697720515362,0.6486111111111111
0.006144697720515362,0.6493055555555556
0.006177733729765445,0.6493055555555556
0.006177733729765445,0.6506944444444445
0.006210769739015527,0.6506944444444445
0.006210769739015527,0.6513888888888889
0.006227287743640568,0.6513888888888889
0.006227287743640568,0.6534722222222222
0.006326395771390816,0.6534722222222222
0.006326395771390816,0.6541666666666667
0.00637594978526594,0.6541666666666667
0.00637594978526594,0.6548611111111111
0.006475057813016188,0.6548611111111111
0.006475057813016188,0.65625
0.006524611826891311,0.65625
0.006524611826891311,0.6569444444444444
0.0065741658407664355,0.6569444444444444
0.0065741658407664355,0.6576388888888889
0.006590683845391476,0.6576388888888889
0.006590683845391476,0.6583333333333333
0.006623719854641559,0.6583333333333333
0.006623719854641559,0.6597222222222222
0.006689791873141724,0.6597222222222222
0.006689791873141724,0.6604166666666667
0.006722827882391807,0.6604166666666667
0.00675586389164189,0.6604166666666667
0.006805417905517013,0.6604166666666667
0.006805417905517013,0.6618055555555555
0.006987115956392468,0.6618055555555555
0.006987115956392468,0.6625
0.007036669970267592,0.6625
0.007036669970267592,0.6638888888888889
0.007102741988767757,0.6638888888888889
0.007102741988767757,0.6652777777777777
0.0071522960026428805,0.6652777777777777
0.0071522960026428805,0.6659722222222222
0.007168814007267922,0.6659722222222222
0.007168814007267922,0.6666666666666666
0.007416584076643542,0.6666666666666666
0.007416584076643542,0.6673611111111111
0.007449620085893624,0.6673611111111111
0.007449620085893624,0.6701388888888888
0.007499174099768748,0.6701388888888888
0.007499174099768748,0.6715277777777777
0.007664354146019161,0.6715277777777777
0.007664354146019161,0.6722222222222223
0.007697390155269244,0.6722222222222223
0.007697390155269244,0.6729166666666667
0.007829534192269574,0.6729166666666667
0.007829534192269574,0.6736111111111112
0.00789560621076974,0.6736111111111112
0.00789560621076974,0.675
0.008027750247770069,0.675
0.008027750247770069,0.6756944444444445
0.00829203832177073,0.6756944444444445
0.00829203832177073,0.6770833333333334
0.008308556326395771,0.6770833333333334
0.008308556326395771,0.6777777777777778
0.008341592335645853,0.6777777777777778
0.008341592335645853,0.6784722222222223
0.008506772381896267,0.6784722222222223
0.008506772381896267,0.6798611111111111
0.008539808391146349,0.6798611111111111
0.008539808391146349,0.6805555555555556
0.008556326395771391,0.6805555555555556
0.008589362405021473,0.6805555555555556
0.008638916418896598,0.6805555555555556
0.008638916418896598,0.6819444444444445
0.008754542451271887,0.6819444444444445
0.008754542451271887,0.6826388888888889
0.008787578460521969,0.6826388888888889
0.008787578460521969,0.6840277777777778
0.008820614469772052,0.6840277777777778
0.008820614469772052,0.6847222222222222
0.008969276511397423,0.6847222222222222
0.008969276511397423,0.6881944444444444
0.009117938553022795,0.6881944444444444
0.009117938553022795,0.6888888888888889
0.009150974562272877,0.6888888888888889
0.009150974562272877,0.6895833333333333
0.009250082590023126,0.6895833333333333
0.009250082590023126,0.6909722222222222
0.009283118599273207,0.6909722222222222
0.009283118599273207,0.6916666666666667
0.009299636603898249,0.6916666666666667
0.009299636603898249,0.6923611111111111
0.009349190617773373,0.6923611111111111
0.009349190617773373,0.6930555555555555
0.009365708622398414,0.6930555555555555
0.009398744631648496,0.6930555555555555
0.009464816650148661,0.6930555555555555
0.009464816650148661,0.69375
0.009514370664023787,0.69375
0.009514370664023787,0.6958333333333333
0.009745622728774364,0.6958333333333333
0.009745622728774364,0.6965277777777777
0.009894284770399735,0.6965277777777777
0.009894284770399735,0.6979166666666666
0.009910802775024777,0.6979166666666666
0.009910802775024777,0.6986111111111111
0.010026428807400066,0.6986111111111111
0.010026428807400066,0.6993055555555555
0.010042946812025107,0.6993055555555555
0.010042946812025107,0.7
0.01019160885365048,0.7
0.01019160885365048,0.7006944444444444
0.010307234886025769,0.7006944444444444
0.010307234886025769,0.7020833333333333
0.010356788899900892,0.7020833333333333
0.010356788899900892,0.7027777777777777
0.010521968946151304,0.7027777777777777
0.010521968946151304,0.7034722222222223
0.010703666997026759,0.7034722222222223
0.010703666997026759,0.7041666666666667
0.010786257020151966,0.7041666666666667
0.010786257020151966,0.7048611111111112
0.010802775024777007,0.7048611111111112
0.010802775024777007,0.70625
0.010852329038652131,0.70625
0.010852329038652131,0.7076388888888889
0.010885365047902213,0.7076388888888889
0.010885365047902213,0.7083333333333334
0.010984473075652462,0.7083333333333334
0.010984473075652462,0.7090277777777778
0.011083581103402709,0.7090277777777778
0.011083581103402709,0.7097222222222223
0.011133135117277832,0.7097222222222223
0.011133135117277832,0.7111111111111111
0.011265279154278163,0.7111111111111111
0.011265279154278163,0.7118055555555556
0.011380905186653452,0.7118055555555556
0.011380905186653452,0.7131944444444445
0.011496531219028742,0.7131944444444445
0.011496531219028742,0.7138888888888889
0.011529567228278824,0.7138888888888889
0.011529567228278824,0.7145833333333333
0.011628675256029071,0.7145833333333333
0.011628675256029071,0.7152777777777778
0.011678229269904196,0.7152777777777778
0.011678229269904196,0.7159722222222222
0.011793855302279485,0.7159722222222222
0.011793855302279485,0.7173611111111111
0.012190287413280475,0.7173611111111111
0.012190287413280475,0.7180555555555556
0.012272877436405682,0.7180555555555556
0.012272877436405682,0.71875
0.012454575487281136,0.71875
0.012454575487281136,0.7194444444444444
0.01275189957053188,0.7194444444444444
0.01275189957053188,0.7201388888888889
0.012817971589032045,0.7201388888888889
0.012817971589032045,0.7208333333333333
0.012851007598282128,0.7208333333333333
0.012851007598282128,0.7229166666666667
0.012966633630657417,0.7229166666666667
0.012999669639907499,0.7229166666666667
0.013214403700033036,0.7229166666666667
0.013214403700033036,0.7236111111111111
0.013280475718533202,0.7236111111111111
0.013280475718533202,0.7243055555555555
0.013577799801783945,0.7243055555555555
0.013577799801783945,0.725
0.013594317806408986,0.725
0.013594317806408986,0.7256944444444444
0.013676907829534192,0.7256944444444444
0.013676907829534192,0.7263888888888889
0.013742979848034357,0.7263888888888889
0.013742979848034357,0.7270833333333333
0.01379253386190948,0.7270833333333333
0.01379253386190948,0.7284722222222222
0.013842087875784606,0.7284722222222222
0.013842087875784606,0.7291666666666666
0.013941195903534853,0.7291666666666666
0.013941195903534853,0.7298611111111111
0.014056821935910142,0.7298611111111111
0.014056821935910142,0.7305555555555555
0.014106375949785265,0.7305555555555555
0.014106375949785265,0.73125
0.01415592996366039,0.73125
0.01415592996366039,0.7319444444444444
0.014188965972910472,0.7319444444444444
0.014188965972910472,0.7326388888888888
0.014486290056161215,0.7326388888888888
0.014486290056161215,0.7340277777777777
0.01455236207466138,0.7340277777777777
0.014585398083911464,0.7340277777777777
0.014618434093161546,0.7340277777777777
0.014618434093161546,0.7347222222222223
0.01466798810703667,0.7347222222222223
0.01466798810703667,0.7354166666666667
0.014948794185662372,0.7354166666666667
0.014948794185662372,0.7361111111111112
0.015014866204162538,0.7361111111111112
0.015014866204162538,0.7368055555555556
0.015097456227287743,0.7368055555555556
0.015097456227287743,0.7375
0.015147010241162868,0.7375
0.015147010241162868,0.7381944444444445
0.01518004625041295,0.7381944444444445
0.01518004625041295,0.7388888888888889
0.015213082259663033,0.7388888888888889
0.015213082259663033,0.7395833333333334
0.015246118268913115,0.7395833333333334
0.015262636273538157,0.7402777777777778
0.015378262305913446,0.7402777777777778
0.015378262305913446,0.7409722222222223
0.015444334324413611,0.7409722222222223
0.015444334324413611,0.7416666666666667
0.015460852329038653,0.7416666666666667
0.015460852329038653,0.7423611111111111
0.015493888338288735,0.7423611111111111
0.015493888338288735,0.7430555555555556
0.015576478361413942,0.7430555555555556
0.015576478361413942,0.74375
0.015609514370664023,0.74375
0.015609514370664023,0.7444444444444445
0.015741658407664356,0.7444444444444445
0.015741658407664356,0.7451388888888889
0.015774694416914436,0.7451388888888889
0.015774694416914436,0.7458333333333333
0.015906838453914766,0.7458333333333333
0.015906838453914766,0.7465277777777778
0.016138090518665344,0.7465277777777778
0.016138090518665344,0.7472222222222222
0.016171126527915428,0.7472222222222222
0.016171126527915428,0.7479166666666667
0.01633630657416584,0.7479166666666667
0.01633630657416584,0.7486111111111111
0.01635282457879088,0.7486111111111111
0.01635282457879088,0.7493055555555556
0.016385860588040965,0.7493055555555556
0.016385860588040965,0.75
0.016402378592666005,0.75
0.016402378592666005,0.7506944444444444
0.01641889659729105,0.7506944444444444
0.01641889659729105,0.7520833333333333
0.01643541460191609,0.7520833333333333
0.01643541460191609,0.7527777777777778
0.01645193260654113,0.7527777777777778
0.01645193260654113,0.7541666666666667
0.016534522629666336,0.7541666666666667
0.016534522629666336,0.7548611111111111
0.017079616782292698,0.7548611111111111
0.017079616782292698,0.7555555555555555
0.017178724810042945,0.7555555555555555
0.017178724810042945,0.7569444444444444
0.017261314833168152,0.7569444444444444
0.017261314833168152,0.7576388888888889
0.017310868847043276,0.7576388888888889
0.017310868847043276,0.7583333333333333
0.01732738685166832,0.7583333333333333
0.01732738685166832,0.7590277777777777
0.017393458870168483,0.7590277777777777
0.017393458870168483,0.7604166666666666
0.01762471093491906,0.7604166666666666
0.01762471093491906,0.7611111111111111
0.017657746944169144,0.7611111111111111
0.017657746944169144,0.7618055555555555
0.017707300958044268,0.7618055555555555
0.017707300958044268,0.7625
0.01774033696729435,0.7625
0.01774033696729435,0.7631944444444444
0.01775685497191939,0.7631944444444444
0.017789890981169475,0.7631944444444444
0.017855962999669638,0.7631944444444444
0.017855962999669638,0.7638888888888888
0.017888999008919722,0.7638888888888888
0.017888999008919722,0.7645833333333333
0.01808721506442022,0.7645833333333333
0.01808721506442022,0.7659722222222223
0.018169805087545423,0.7659722222222223
0.018169805087545423,0.7666666666666667
0.01823587710604559,0.7666666666666667
0.01823587710604559,0.7673611111111112
0.018351503138420877,0.7673611111111112
0.018351503138420877,0.7680555555555556
0.018467129170796168,0.7680555555555556
0.018467129170796168,0.76875
0.01850016518004625,0.76875
0.01850016518004625,0.7701388888888889
0.018549719193921375,0.7701388888888889
0.018549719193921375,0.7708333333333334
0.018582755203171458,0.7708333333333334
0.018582755203171458,0.7715277777777778
0.018896597291047243,0.7715277777777778
0.018896597291047243,0.7722222222222223
0.018946151304922366,0.7722222222222223
0.018946151304922366,0.7729166666666667
0.01901222332342253,0.7729166666666667
0.01901222332342253,0.7736111111111111
0.019408655434423522,0.7736111111111111
0.019408655434423522,0.7743055555555556
0.019425173439048562,0.7743055555555556
0.019425173439048562,0.7756944444444445
0.019458209448298645,0.7756944444444445
0.019458209448298645,0.7770833333333333
0.019606871489924016,0.7770833333333333
0.019606871489924016,0.7777777777777778
0.019821605550049554,0.7777777777777778
0.019821605550049554,0.7784722222222222
0.019986785596299968,0.7784722222222222
0.019986785596299968,0.7791666666666667
0.02026759167492567,0.7791666666666667
0.02026759167492567,0.7798611111111111
0.020498843739676247,0.7798611111111111
0.020498843739676247,0.7805555555555556
0.0206805417905517,0.7805555555555556
0.0206805417905517,0.78125
0.02089527585067724,0.78125
0.02089527585067724,0.7819444444444444
0.020928311859927322,0.7819444444444444
0.020928311859927322,0.7826388888888889
0.021093491906177732,0.7826388888888889
0.021093491906177732,0.7833333333333333
0.021242153947803107,0.7833333333333333
0.021242153947803107,0.7840277777777778
0.02129170796167823,0.7840277777777778
0.02129170796167823,0.7847222222222222
0.021341261975553354,0.7847222222222222
0.021341261975553354,0.7854166666666667
0.021704658077304262,0.7854166666666667
0.021704658077304262,0.7861111111111111
0.0219193921374298,0.7861111111111111
0.0219193921374298,0.7868055555555555
0.02208457218368021,0.7868055555555555
0.02208457218368021,0.7875
0.02256359431780641,0.7875
0.02256359431780641,0.7881944444444444
0.023042616451932608,0.7881944444444444
0.023042616451932608,0.7888888888888889
0.02320779649818302,0.7888888888888889
0.02320779649818302,0.7895833333333333
0.023290386521308225,0.7895833333333333
0.023290386521308225,0.7902777777777777
0.023505120581433763,0.7902777777777777
0.023505120581433763,0.7909722222222222
0.02375289065080938,0.7909722222222222
0.02375289065080938,0.7916666666666666
0.023818962669309548,0.7916666666666666
0.023818962669309548,0.7923611111111111
0.024066732738685166,0.7923611111111111
0.024066732738685166,0.7930555555555555
0.024165840766435416,0.7930555555555555
0.024165840766435416,0.79375
0.0244796828543112,0.79375
0.0244796828543112,0.7944444444444444
0.024909150974562273,0.7944444444444444
0.024909150974562273,0.7951388888888888
0.025057813016187643,0.7951388888888888
0.025057813016187643,0.7958333333333333
0.025074331020812687,0.7958333333333333
0.025074331020812687,0.7965277777777777
0.025107367030062767,0.7965277777777777
0.025553353154938882,0.7965277777777777
0.025553353154938882,0.7972222222222223
0.025685497191939213,0.7972222222222223
0.025685497191939213,0.7979166666666667
0.025966303270564917,0.7979166666666667
0.025966303270564917,0.7986111111111112
0.025982821275189957,0.7986111111111112
0.025982821275189957,0.7993055555555556
0.026214073339940535,0.7993055555555556
0.026214073339940535,0.8
0.026346217376940866,0.8
0.026346217376940866,0.8013888888888889
0.02651139742319128,0.8013888888888889
0.02651139742319128,0.8020833333333334
0.02652791542781632,0.8020833333333334
0.02652791542781632,0.8027777777777778
0.027205153617443013,0.8027777777777778
0.027238189626693096,0.8027777777777778
0.027403369672943507,0.8027777777777778
0.027403369672943507,0.8034722222222223
0.027601585728444004,0.8034722222222223
0.027601585728444004,0.8041666666666667
0.02770069375619425,0.8041666666666667
0.02770069375619425,0.8048611111111111
0.027964981830194913,0.8048611111111111
0.027964981830194913,0.8069444444444445
0.02804757185332012,0.8069444444444445
0.02804757185332012,0.8076388888888889
0.028080607862570203,0.8076388888888889
0.028080607862570203,0.8083333333333333
0.02821275189957053,0.8083333333333333
0.02821275189957053,0.8090277777777778
0.028262305913445657,0.8090277777777778
0.028262305913445657,0.8097222222222222
0.028609184010571522,0.8097222222222222
0.028609184010571522,0.8104166666666667
0.028625702015196566,0.8104166666666667
0.028625702015196566,0.8111111111111111
0.02869177403369673,0.8111111111111111
0.02869177403369673,0.8118055555555556
0.028873472084572183,0.8118055555555556
0.028873472084572183,0.8125
0.02895606210769739,0.8125
0.02895606210769739,0.8131944444444444
0.02958374628344896,0.8131944444444444
0.02958374628344896,0.8138888888888889
0.03022794846382557,0.8138888888888889
0.03022794846382557,0.8145833333333333
0.030327056491575816,0.8145833333333333
0.030327056491575816,0.8166666666666667
0.0306408985794516,0.8166666666666667
0.0306408985794516,0.8173611111111111
0.030806078625702015,0.8173611111111111
0.030806078625702015,0.8180555555555555
0.03113643871820284,0.8180555555555555
0.03113643871820284,0.81875
0.031301618764453254,0.81875
0.031301618764453254,0.8194444444444444
0.031450280806078625,0.8194444444444444
0.031450280806078625,0.8201388888888889
0.03161546085232904,0.8201388888888889
0.03161546085232904,0.8208333333333333
0.031797158903204496,0.8208333333333333
0.031797158903204496,0.8215277777777777
0.03191278493557978,0.8215277777777777
0.03194582094482987,0.8215277777777777
0.03240832507433102,0.8215277777777777
0.03240832507433102,0.8222222222222222
0.03255698711595639,0.8222222222222222
0.03255698711595639,0.8229166666666666
0.033002973240832505,0.8229166666666666
0.033002973240832505,0.8236111111111111
0.033201189296333006,0.8236111111111111
0.033234225305583086,0.8236111111111111
0.03381235546745953,0.8236111111111111
0.03381235546745953,0.8243055555555555
0.033894945490584735,0.8243055555555555
0.033894945490584735,0.825
0.034043607532210106,0.825
0.034043607532210106,0.8256944444444444
0.03430789560621077,0.8256944444444444
0.034340931615460854,0.8256944444444444
0.03439048562933598,0.8256944444444444
0.03439048562933598,0.8263888888888888
0.03442352163858606,0.8263888888888888
0.03442352163858606,0.8270833333333333
0.03468780971258672,0.8270833333333333
0.03468780971258672,0.8277777777777777
0.03477039973571193,0.8277777777777777
0.03477039973571193,0.8284722222222223
0.034968615791212423,0.8284722222222223
0.034968615791212423,0.8291666666666667
0.03516683184671292,0.8291666666666667
0.03516683184671292,0.8298611111111112
0.03518334985133796,0.8298611111111112
0.03518334985133796,0.8305555555555556
0.03528245787908821,0.8305555555555556
0.03528245787908821,0.83125
0.03531549388833829,0.83125
0.03562933597621407,0.83125
0.03562933597621407,0.8319444444444445
0.03572844400396432,0.8319444444444445
0.03572844400396432,0.8326388888888889
0.03599273207796498,0.8326388888888889
0.03599273207796498,0.8333333333333334
0.03605880409646515,0.8333333333333334
0.03605880409646515,0.8340277777777778
0.03609184010571523,0.8340277777777778
0.03609184010571523,0.8347222222222223
0.036157912124215395,0.8347222222222223
0.036157912124215395,0.8354166666666667
0.03622398414271556,0.8354166666666667
0.03622398414271556,0.8361111111111111
0.036703006276841754,0.8361111111111111
0.036703006276841754,0.8368055555555556
0.037082920383217706,0.8368055555555556
0.037082920383217706,0.8375
0.03764453254046911,0.8375
0.03764453254046911,0.8388888888888889
0.038074000660720184,0.8388888888888889
0.038074000660720184,0.8395833333333333
0.03942847703997357,0.8395833333333333
0.03942847703997357,0.8402777777777778
0.03969276511397423,0.8402777777777778
0.03969276511397423,0.8409722222222222
0.04013875123885035,0.8409722222222222
0.04013875123885035,0.8416666666666667
0.04041955731747605,0.8416666666666667
0.04041955731747605,0.8430555555555556
0.04053518334985134,0.8430555555555556
0.04053518334985134,0.84375
0.040898579451602246,0.84375
0.040931615460852326,0.84375
0.041559299636603896,0.84375
0.041559299636603896,0.8444444444444444
0.04165840766435414,0.8444444444444444
0.04165840766435414,0.8458333333333333
0.04180706970597952,0.8458333333333333
0.04180706970597952,0.8465277777777778
0.042005285761480014,0.8465277777777778
0.042005285761480014,0.8472222222222222
0.04223653782623059,0.8472222222222222
0.04223653782623059,0.8479166666666667
0.04256689791873142,0.8479166666666667
0.0425999339279815,0.8479166666666667
0.04294681202510737,0.8479166666666667
0.04294681202510737,0.8486111111111111
0.04306243805748266,0.8486111111111111
0.04306243805748266,0.8493055555555555
0.04311199207135778,0.8493055555555555
0.04314502808060786,0.8493055555555555
0.04327717211760819,0.8493055555555555
0.04327717211760819,0.85
0.04329369012223323,0.85
0.04332672613148332,0.85
0.04369012223323423,0.85
0.04369012223323423,0.8506944444444444
0.043706640237859265,0.8506944444444444
0.04373967624710935,0.8506944444444444
0.04390485629335976,0.8506944444444444
0.04390485629335976,0.8513888888888889
0.04400396432111001,0.8513888888888889
0.04400396432111001,0.8520833333333333
0.044218698381235544,0.8520833333333333
0.044218698381235544,0.8527777777777777
0.04436736042286092,0.8527777777777777
0.04436736042286092,0.8534722222222222
0.04473075652461183,0.8534722222222222
0.04476379253386191,0.8534722222222222
0.04484638255698711,0.8534722222222222
0.04484638255698711,0.8541666666666666
0.04489593657086224,0.8541666666666666
0.04489593657086224,0.8548611111111111
0.045820944829864554,0.8548611111111111
0.045820944829864554,0.8555555555555555
0.045887016848364715,0.8555555555555555
0.045887016848364715,0.8569444444444444
0.046085232903865216,0.8569444444444444
0.046118268913115296,0.8569444444444444
0.04625041295011562,0.8569444444444444
0.04625041295011562,0.8576388888888888
0.046266930954740666,0.8576388888888888
0.046266930954740666,0.8583333333333333
0.046630327056491575,0.8583333333333333
0.046630327056491575,0.8590277777777777
0.04669639907499174,0.8590277777777777
0.04669639907499174,0.8597222222222223
0.046778989098116945,0.8597222222222223
0.046778989098116945,0.8604166666666667
0.04727452923686819,0.8604166666666667
0.04727452923686819,0.8611111111111112
0.047753551370994386,0.8611111111111112
0.047753551370994386,0.8618055555555556
0.04783614139411959,0.8618055555555556
0.04783614139411959,0.8625
0.04793524942186984,0.8625
0.04793524942186984,0.8631944444444445
0.048034357449620084,0.8631944444444445
0.04806739345887017,0.8631944444444445
0.04806739345887017,0.8638888888888889
0.04836471754212091,0.8638888888888889
0.04836471754212091,0.8645833333333334
0.048777667657746944,0.8645833333333334
0.048777667657746944,0.8652777777777778
0.048810703666997024,0.8652777777777778
0.048810703666997024,0.8659722222222223
0.04887677568549719,0.8659722222222223
0.04887677568549719,0.8666666666666667
0.049339279814998346,0.8666666666666667
0.049339279814998346,0.8673611111111111
0.04935579781962339,0.8673611111111111
0.04935579781962339,0.8680555555555556
0.04937231582424843,0.86875
0.05034687809712587,0.86875
0.05034687809712587,0.8694444444444445
0.05042946812025107,0.8694444444444445
0.05042946812025107,0.8701388888888889
0.05054509415262636,0.8701388888888889
0.05057813016187645,0.8701388888888889
0.05092500825900231,0.8701388888888889
0.05092500825900231,0.8708333333333333
0.05120581433762801,0.8708333333333333
0.05120581433762801,0.8715277777777778
0.051370994383878425,0.8715277777777778
0.051370994383878425,0.8722222222222222
0.05147010241162867,0.8722222222222222
0.05147010241162867,0.8729166666666667
0.05150313842087876,0.8729166666666667
0.05150313842087876,0.8736111111111111
0.0517178724810043,0.8736111111111111
0.0517178724810043,0.8743055555555556
0.05176742649487942,0.8743055555555556
0.05176742649487942,0.875
0.05186653452262967,0.875
0.05186653452262967,0.8756944444444444
0.05204823257350512,0.8756944444444444
0.052081268582755205,0.8756944444444444
0.05298975883713247,0.8756944444444444
0.05302279484638256,0.8756944444444444
0.05353485298975884,0.8756944444444444
0.05353485298975884,0.8763888888888889
0.05373306904525933,0.8763888888888889
0.05373306904525933,0.8770833333333333
0.05412950115626032,0.8770833333333333
0.05412950115626032,0.8777777777777778
0.05545094152626363,0.8777777777777778
0.05545094152626363,0.8784722222222222
0.05621076973901553,0.8784722222222222
0.05621076973901553,0.8791666666666667
0.05654112983151635,0.8791666666666667
0.05654112983151635,0.8798611111111111
0.05697059795176743,0.8798611111111111
0.05697059795176743,0.8805555555555555
0.05779649818301949,0.8805555555555555
0.05782953419226958,0.8805555555555555
0.057846052196894614,0.8805555555555555
0.0578790882061447,0.8805555555555555
0.05806078625702015,0.8805555555555555
0.05806078625702015,0.88125
0.05809382226627023,0.88125
0.05809382226627023,0.8819444444444444
0.058110340270895275,0.8819444444444444
0.058110340270895275,0.8826388888888889
0.058259002312520645,0.8826388888888889
0.058259002312520645,0.8833333333333333
0.05827552031714569,0.8833333333333333
0.058341592335645856,0.8833333333333333
0.05835811034027089,0.8833333333333333
0.05835811034027089,0.8840277777777777
0.058374628344895936,0.8840277777777777
0.058374628344895936,0.8847222222222222
0.058556326395771394,0.8847222222222222
0.058556326395771394,0.8854166666666666
0.058738024446646844,0.8854166666666666
0.058738024446646844,0.8861111111111111
0.058853650479022135,0.8861111111111111
0.058853650479022135,0.8868055555555555
0.05946481665014866,0.8868055555555555
0.05946481665014866,0.8875
0.05958044268252395,0.8875
0.05958044268252395,0.8881944444444444
0.05961347869177403,0.8881944444444444
0.05972910472414932,0.8881944444444444
0.05972910472414932,0.8888888888888888
0.05997687479352494,0.8888888888888888
0.05999339279814998,0.8895833333333333
0.06019160885365048,0.8895833333333333
0.06019160885365048,0.8902777777777777
0.06172778328377932,0.8902777777777777
0.06172778328377932,0.8909722222222223
0.061892963330029735,0.8909722222222223
0.061892963330029735,0.8916666666666667
0.062223323422530556,0.8916666666666667
0.062223323422530556,0.8923611111111112
0.0625206475057813,0.8923611111111112
0.0625206475057813,0.8930555555555556
0.06298315163528245,0.8930555555555556
0.06301618764453254,0.8930555555555556
0.06301618764453254,0.89375
0.06316484968615792,0.89375
0.06316484968615792,0.8944444444444445
0.06324743970928312,0.8944444444444445
0.06324743970928312,0.8951388888888889
0.06339610175090848,0.8951388888888889
0.06342913776015857,0.8951388888888889
0.06346217376940866,0.8951388888888889
0.06349520977865873,0.8951388888888889
0.06400726792203502,0.8951388888888889
0.0640403039312851,0.8951388888888889
0.06448629005616122,0.8951388888888889
0.06448629005616122,0.8958333333333334
0.06450280806078626,0.8958333333333334
0.06453584407003633,0.8958333333333334
0.06455236207466138,0.8958333333333334
0.06455236207466138,0.8965277777777778
0.06541129831516353,0.8965277777777778
0.06544433432441361,0.8965277777777778
0.06557647836141395,0.8965277777777778
0.06557647836141395,0.8972222222222223
0.06570862239841427,0.8972222222222223
0.06570862239841427,0.8979166666666667
0.06579121242153947,0.8979166666666667
0.06579121242153947,0.8986111111111111
0.06602246448629005,0.8986111111111111
0.06602246448629005,0.8993055555555556
0.0661215725140403,0.8993055555555556
0.0661215725140403,0.9
0.06645193260654113,0.9
0.06645193260654113,0.9006944444444445
0.06689791873141725,0.9006944444444445
0.06689791873141725,0.9013888888888889
0.0671622068054179,0.9013888888888889
0.06719524281466799,0.9013888888888889
0.0675586389164189,0.9013888888888889
0.0675586389164189,0.9020833333333333
0.06782292699041956,0.9020833333333333
0.06782292699041956,0.9027777777777778
0.06927651139742319,0.9027777777777778
0.06927651139742319,0.9034722222222222
0.06965642550379914,0.9034722222222222
0.06965642550379914,0.9041666666666667
0.0702015196564255,0.9041666666666667
0.0702015196564255,0.9048611111111111
0.07046580773042617,0.9048611111111111
0.07046580773042617,0.9055555555555556
0.07059795176742649,0.9055555555555556
0.07063098777667658,0.9055555555555556
0.07073009580442682,0.9055555555555556
0.07076313181367691,0.9055555555555556
0.07134126197555335,0.9055555555555556
0.07134126197555335,0.90625
0.0722001982160555,0.90625
0.07223323422530559,0.90625
0.0722827882391807,0.90625
0.07231582424843079,0.90625
0.07251404030393128,0.90625
0.07251404030393128,0.9069444444444444
0.07253055830855633,0.9069444444444444
0.07253055830855633,0.9076388888888889
0.07353815659068384,0.9076388888888889
0.07353815659068384,0.9083333333333333
0.07365378262305913,0.9083333333333333
0.07365378262305913,0.9090277777777778
0.07376940865543442,0.9090277777777778
0.07380244466468451,0.9090277777777778
0.07449620085893624,0.9090277777777778
0.07449620085893624,0.9097222222222222
0.07471093491906178,0.9097222222222222
0.07471093491906178,0.9104166666666667
0.07530558308556326,0.9104166666666667
0.07530558308556326,0.9111111111111111
0.07575156921043938,0.9111111111111111
0.07578460521968947,0.9111111111111111
0.0773207796498183,0.9111111111111111
0.0773207796498183,0.9118055555555555
0.07791542781631978,0.9118055555555555
0.07794846382556987,0.9118055555555555
0.07796498183019492,0.9118055555555555
0.07799801783944499,0.9118055555555555
0.07813016187644532,0.9118055555555555
0.07813016187644532,0.9125
0.07839444995044599,0.9125
0.07839444995044599,0.9131944444444444
0.07895606210769739,0.9131944444444444
0.07895606210769739,0.9145833333333333
0.07898909811694747,0.9145833333333333
0.07898909811694747,0.9152777777777777
0.07907168814007268,0.9152777777777777
0.07907168814007268,0.9166666666666666
0.07912124215394781,0.9166666666666666
0.07912124215394781,0.9173611111111111
0.07918731417244797,0.9173611111111111
0.07918731417244797,0.9180555555555555
0.07945160224644864,0.9180555555555555
0.07948463825569871,0.9180555555555555
0.07958374628344896,0.9180555555555555
0.07958374628344896,0.91875
0.079600264288074,0.91875
0.079600264288074,0.9194444444444444
0.07963330029732409,0.9194444444444444
0.07963330029732409,0.9208333333333333
0.07964981830194913,0.9208333333333333
0.0796828543111992,0.9208333333333333
0.07973240832507433,0.9208333333333333
0.07973240832507433,0.9215277777777777
0.07993062438057483,0.9215277777777777
0.07996366038982491,0.9215277777777777
0.08002973240832507,0.9215277777777777
0.08006276841757516,0.9215277777777777
0.08065741658407664,0.9215277777777777
0.08069045259332673,0.9215277777777777
0.0813181367690783,0.9215277777777777
0.0813181367690783,0.9222222222222223
0.0815163528245788,0.9222222222222223
0.0815163528245788,0.9229166666666667
0.08153287082920384,0.9229166666666667
0.08156590683845391,0.9229166666666667
0.08178064089857945,0.9229166666666667
0.08178064089857945,0.9236111111111112
0.08229269904195573,0.9236111111111112
0.08229269904195573,0.9243055555555556
0.08240832507433102,0.9243055555555556
0.08240832507433102,0.925
0.08381235546745953,0.925
0.08381235546745953,0.9256944444444445
0.08386190948133465,0.9256944444444445
0.08386190948133465,0.9263888888888889
0.08427485959696068,0.9263888888888889
0.08427485959696068,0.9270833333333334
0.084803435744962,0.9270833333333334
0.084803435744962,0.9277777777777778
0.08562933597621407,0.9277777777777778
0.08562933597621407,0.9284722222222223
0.08673604228609184,0.9284722222222223
0.08676907829534192,0.9284722222222223
0.08709943838784275,0.9284722222222223
0.08709943838784275,0.9291666666666667
0.0874793524942187,0.9291666666666667
0.08751238850346878,0.9291666666666667
0.08762801453584407,0.9291666666666667
0.08762801453584407,0.9298611111111111
0.08815659068384539,0.9298611111111111
0.08815659068384539,0.9305555555555556
0.08822266270234555,0.9305555555555556
0.08822266270234555,0.93125
0.08909811694747274,0.93125
0.08909811694747274,0.9319444444444445
0.08911463495209779,0.9319444444444445
0.08911463495209779,0.9326388888888889
0.08914767096134787,0.9326388888888889
0.08947803105384869,0.9326388888888889
0.08951106706309878,0.9326388888888889
0.08987446316484969,0.9326388888888889
0.08990749917409976,0.9326388888888889
0.09030393128510077,0.9326388888888889
0.09030393128510077,0.9333333333333333
0.09122893954410308,0.9333333333333333
0.09122893954410308,0.9340277777777778
0.09139411959035348,0.9340277777777778
0.09139411959035348,0.9347222222222222
0.09152626362735382,0.9347222222222222
0.09155929963660389,0.9347222222222222
0.09193921374297985,0.9347222222222222
0.09197224975222994,0.9347222222222222
0.09202180376610505,0.9347222222222222
0.09205483977535514,0.9347222222222222
0.09218698381235546,0.9347222222222222
0.09222001982160555,0.9347222222222222
0.09255037991410638,0.9347222222222222
0.09255037991410638,0.9354166666666667
0.0934423521638586,0.9354166666666667
0.09347538817310869,0.9354166666666667
0.09377271225635943,0.9354166666666667
0.09377271225635943,0.9361111111111111
0.0940370003303601,0.9361111111111111
0.0940370003303601,0.9368055555555556
0.09525933267261315,0.9368055555555556
0.09525933267261315,0.9375
0.09534192269573835,0.9375
0.09537495870498844,0.9375
0.09664684506111662,0.9375
0.09664684506111662,0.9381944444444444
0.09699372315824248,0.9381944444444444
0.09699372315824248,0.9388888888888889
0.09727452923686819,0.9388888888888889
0.09727452923686819,0.9395833333333333
0.09857945160224645,0.9395833333333333
0.09859596960687149,0.9402777777777778
0.09882722167162207,0.9402777777777778
0.09886025768087216,0.9402777777777778
0.09907499174099768,0.9402777777777778
0.09907499174099768,0.9409722222222222
0.09909150974562272,0.9409722222222222
0.09909150974562272,0.9416666666666667
0.09985133795837463,0.9416666666666667
0.09988437396762471,0.9416666666666667
0.10059464816650149,0.9416666666666667
0.10062768417575157,0.9416666666666667
0.10077634621737694,0.9416666666666667
0.10077634621737694,0.9423611111111111
0.10120581433762801,0.9423611111111111
0.10120581433762801,0.9430555555555555
0.10181698050875454,0.9430555555555555
0.10181698050875454,0.94375
0.10249421869838124,0.94375
0.10249421869838124,0.9451388888888889
0.10389824909150974,0.9451388888888889
0.10389824909150974,0.9458333333333333
0.10406342913776016,0.9458333333333333
0.10409646514701024,0.9458333333333333
0.1043607532210109,0.9458333333333333
0.1043607532210109,0.9465277777777777
0.1045589692765114,0.9465277777777777
0.1045589692765114,0.9472222222222222
0.10457548728113644,0.9472222222222222
0.10457548728113644,0.9479166666666666
0.10490584737363727,0.9479166666666666
0.10490584737363727,0.9486111111111111
0.10505450941526263,0.9486111111111111
0.10508754542451272,0.9486111111111111
0.10576478361413941,0.9486111111111111
0.10578130161876445,0.9493055555555555
0.10606210769739016,0.9493055555555555
0.10607862570201519,0.95
0.10616121572514041,0.95
0.10619425173439048,0.95
0.10668979187314172,0.95
0.1067228278823918,0.95
0.10690452593326726,0.95
0.10690452593326726,0.9506944444444444
0.10697059795176743,0.9506944444444444
0.10697059795176743,0.9513888888888888
0.10703666997026759,0.9513888888888888
0.10703666997026759,0.9520833333333333
0.10868847043277172,0.9520833333333333
0.1087215064420218,0.9520833333333333
0.10977865873802445,0.9520833333333333
0.10981169474727454,0.9520833333333333
0.11007598282127519,0.9520833333333333
0.11010901883052528,0.9520833333333333
0.11012553683515032,0.9520833333333333
0.11012553683515032,0.9527777777777777
0.11200858936240503,0.9527777777777777
0.11200858936240503,0.9534722222222223
0.11270234555665676,0.9534722222222223
0.11270234555665676,0.9541666666666667
0.11285100759828212,0.9541666666666667
0.11288404360753221,0.9541666666666667
0.11314833168153288,0.9541666666666667
0.11314833168153288,0.9548611111111112
0.11329699372315824,0.9548611111111112
0.11329699372315824,0.9555555555555556
0.11377601585728445,0.9555555555555556
0.11380905186653452,0.9555555555555556
0.11422200198216055,0.9555555555555556
0.11425503799141064,0.9555555555555556
0.11539478031053849,0.9555555555555556
0.11542781631978857,0.9555555555555556
0.11665014866204163,0.9555555555555556
0.11668318467129171,0.9555555555555556
0.12132474397092831,0.9555555555555556
0.1213577799801784,0.9555555555555556
0.12259663032705649,0.9555555555555556
0.12259663032705649,0.95625
0.12357119259993393,0.95625
0.12357119259993393,0.9569444444444445
0.12396762471093492,0.9569444444444445
0.12396762471093492,0.9576388888888889
0.12484307895606211,0.9576388888888889
0.12484307895606211,0.9583333333333334
0.12500825900231252,0.9583333333333334
0.1250412950115626,0.9583333333333334
0.1258011232243145,0.9583333333333334
0.12583415923356459,0.9583333333333334
0.1268747935249422,0.9583333333333334
0.1268747935249422,0.9590277777777778
0.128394449950446,0.9590277777777778
0.128394449950446,0.9597222222222223
0.12865873802444663,0.9597222222222223
0.12869177403369672,0.9597222222222223
0.12898909811694748,0.9597222222222223
0.12902213412619756,0.9597222222222223
0.1294350842418236,0.9597222222222223
0.1294350842418236,0.9604166666666667
0.12946812025107368,0.9604166666666667
0.12950115626032374,0.9604166666666667
0.12950115626032374,0.9611111111111111
0.1308391146349521,0.9611111111111111
0.1308391146349521,0.9625
0.13121902874132804,0.9625
0.13121902874132804,0.9631944444444445
0.13161546085232903,0.9631944444444445
0.13161546085232903,0.9638888888888889
0.13242484307895605,0.9638888888888889
0.13245787908820614,0.9638888888888889
0.13254046911133135,0.9638888888888889
0.13254046911133135,0.9645833333333333
0.13321770730095805,0.9645833333333333
0.13325074331020811,0.9645833333333333
0.13351503138420878,0.9645833333333333
0.13354806739345887,0.9645833333333333
0.1336802114304592,0.9645833333333333
0.13371324743970928,0.9645833333333333
0.13404360753221012,0.9645833333333333
0.1340766435414602,0.9645833333333333
0.1344730756524612,0.9645833333333333
0.1344730756524612,0.9652777777777778
0.13645523620746614,0.9652777777777778
0.13648827221671622,0.9652777777777778
0.13726461843409316,0.9652777777777778
0.13729765444334324,0.9652777777777778
0.13802444664684507,0.9652777777777778
0.13805748265609513,0.9652777777777778
0.1383548067393459,0.9652777777777778
0.1383548067393459,0.9659722222222222
0.13837132474397093,0.9659722222222222
0.13840436075322102,0.9659722222222222
0.13866864882722166,0.9659722222222222
0.13870168483647174,0.9659722222222222
0.1440370003303601,0.9659722222222222
0.1440370003303601,0.9666666666666667
0.14501156260323753,0.9666666666666667
0.14501156260323753,0.9673611111111111
0.14529236868186324,0.9673611111111111
0.14532540469111332,0.9673611111111111
0.14582094482986455,0.9673611111111111
0.14582094482986455,0.9680555555555556
0.14790221341261975,0.9680555555555556
0.14790221341261975,0.96875
0.14829864552362074,0.96875
0.14833168153287082,0.96875
0.14890981169474726,0.96875
0.14894284770399735,0.96875
0.14925668979187315,0.96875
0.14928972580112324,0.96875
0.14990089197224976,0.96875
0.14990089197224976,0.9694444444444444
0.15023125206475058,0.9694444444444444
0.15026428807400066,0.9694444444444444
0.15127188635612818,0.9694444444444444
0.15130492236537826,0.9694444444444444
0.15262636273538158,0.9694444444444444
0.15264288074000662,0.9701388888888889
0.1527585067723819,0.9701388888888889
0.15279154278163198,0.9701388888888889
0.15341922695738355,0.9701388888888889
0.15341922695738355,0.9708333333333333
0.15404691113313512,0.9708333333333333
0.1540799471423852,0.9708333333333333
0.15417905517013544,0.9708333333333333
0.15417905517013544,0.9715277777777778
0.15479022134126197,0.9715277777777778
0.15482325735051206,0.9715277777777778
0.15550049554013876,0.9715277777777778
0.15550049554013876,0.9722222222222222
0.1602081268582755,0.9722222222222222
0.1602411628675256,0.9722222222222222
0.1607201850016518,0.9722222222222222
0.1607532210109019,0.9722222222222222
0.16113313511727784,0.9722222222222222
0.16113313511727784,0.9729166666666667
0.1626858275520317,0.9729166666666667
0.1627188635612818,0.9729166666666667
0.16351172778328377,0.9729166666666667
0.16354476379253385,0.9729166666666667
0.16377601585728443,0.9729166666666667
0.16380905186653452,0.9729166666666667
0.1642385199867856,0.9729166666666667
0.16427155599603568,0.9729166666666667
0.16446977205153618,0.9729166666666667
0.16446977205153618,0.9736111111111111
0.16448629005616122,0.9736111111111111
0.1645193260654113,0.9736111111111111
0.1649157581764123,0.9736111111111111
0.16494879418566238,0.9736111111111111
0.16522960026428807,0.9736111111111111
0.16526263627353815,0.9736111111111111
0.16620416253716552,0.9736111111111111
0.16623719854641558,0.9736111111111111
0.16711265279154278,0.9736111111111111
0.16714568880079286,0.9736111111111111
0.1676742649487942,0.9736111111111111
0.1676742649487942,0.9743055555555555
0.16978856954079946,0.9743055555555555
0.16982160555004955,0.9743055555555555
0.16997026759167494,0.9743055555555555
0.16997026759167494,0.975
0.1727618103733069,0.975
0.172794846382557,0.975
0.17358771060455896,0.975
0.17362074661380905,0.975
0.17733729765444334,0.975
0.17737033366369342,0.975
0.18021143045920052,0.975
0.1802444664684506,0.975
0.18080607862570203,0.975
0.1808391146349521,0.975
0.1809217046580773,0.975
0.1809217046580773,0.9756944444444444
0.18110340270895275,0.9756944444444444
0.18113643871820284,0.9756944444444444
0.1824413610835811,0.9756944444444444
0.1824743970928312,0.9756944444444444
0.18270564915758175,0.9756944444444444
0.18273868516683184,0.9756944444444444
0.18277172117608192,0.9756944444444444
0.182804757185332,0.9756944444444444
0.1839610175090849,0.9756944444444444
0.1839610175090849,0.9763888888888889
0.18420878757846051,0.9763888888888889
0.18420878757846051,0.9770833333333333
0.18478691774033698,0.9770833333333333
0.18481995374958704,0.9770833333333333
0.1852824578790882,0.9770833333333333
0.1853154938883383,0.9770833333333333
0.18835480673934588,0.9770833333333333
0.18835480673934588,0.9777777777777777
0.18903204492897258,0.9777777777777777
0.18906508093822266,0.9777777777777777
0.18969276511397423,0.9777777777777777
0.18969276511397423,0.9784722222222222
0.19073339940535183,0.9784722222222222
0.19076643541460192,0.9784722222222222
0.19246778989098118,0.9784722222222222
0.19250082590023126,0.9784722222222222
0.19326065411298315,0.9784722222222222
0.19329369012223324,0.9784722222222222
0.19436736042286093,0.9784722222222222
0.194400396432111,0.9784722222222222
0.19482986455236206,0.9784722222222222
0.19486290056161215,0.9784722222222222
0.1962008589362405,0.9784722222222222
0.1962008589362405,0.9791666666666666
0.19644862900561613,0.9791666666666666
0.1964816650148662,0.9791666666666666
0.19697720515361744,0.9791666666666666
0.19701024116286753,0.9791666666666666
0.19729104724149324,0.9791666666666666
0.1973240832507433,0.9791666666666666
0.19801783944499504,0.9791666666666666
0.19801783944499504,0.9798611111111111
0.20102411628675257,0.9798611111111111
0.20105715229600266,0.9798611111111111
0.20218037661050545,0.9798611111111111
0.20221341261975553,0.9798611111111111
0.20373306904525934,0.9798611111111111
0.20376610505450943,0.9798611111111111
0.20510406342913776,0.9798611111111111
0.20513709943838784,0.9798611111111111
0.20688800792864223,0.9798611111111111
0.2069210439378923,0.9798611111111111
0.2076808721506442,0.9798611111111111
0.2077139081598943,0.9798611111111111
0.21329699372315825,0.9798611111111111
0.21333002973240833,0.9798611111111111
0.21635282457879088,0.9798611111111111
0.21635282457879088,0.9805555555555555
0.21906177733729765,0.9805555555555555
0.21906177733729765,0.98125
0.21959035348529898,0.98125
0.21962338949454907,0.98125
0.2198381235546746,0.98125
0.21987115956392467,0.98125
0.22038321770730096,0.98125
0.22038321770730096,0.9819444444444444
0.22082920383217708,0.9819444444444444
0.22086223984142717,0.9819444444444444
0.22234886025768089,0.9819444444444444
0.22238189626693095,0.9819444444444444
0.2242484307895606,0.9819444444444444
0.2242814667988107,0.9819444444444444
0.22555335315493888,0.9819444444444444
0.22555335315493888,0.9826388888888888
0.22783283779319458,0.9826388888888888
0.22786587380244466,0.9826388888888888
0.22971589032044928,0.9826388888888888
0.22974892632969937,0.9826388888888888
0.22981499834819955,0.9826388888888888
0.22984803435744963,0.9826388888888888
0.2330029732408325,0.9826388888888888
0.23303600925008258,0.9826388888888888
0.23516683184671291,0.9826388888888888
0.235199867855963,0.9826388888888888
0.23533201189296332,0.9826388888888888
0.2353650479022134,0.9826388888888888
0.23769408655434424,0.9826388888888888
0.23772712256359432,0.9826388888888888
0.24045259332672614,0.9826388888888888
0.24048562933597623,0.9826388888888888
0.24068384539147672,0.9826388888888888
0.24071688140072678,0.9826388888888888
0.24142715559960357,0.9826388888888888
0.24146019160885365,0.9826388888888888
0.24155929963660389,0.9826388888888888
0.24159233564585397,0.9826388888888888
0.24190617773372977,0.9826388888888888
0.24193921374297986,0.9826388888888888
0.24269904195573175,0.9826388888888888
0.24273207796498183,0.9826388888888888
0.2447637925338619,0.9826388888888888
0.244796828543112,0.9826388888888888
0.24489593657086223,0.9826388888888888
0.24489593657086223,0.9833333333333333
0.247208457218368,0.9833333333333333
0.2472414932276181,0.9833333333333333
0.2500660720185002,0.9833333333333333
0.2500660720185002,0.9840277777777777
0.2501982160555005,0.9840277777777777
0.25023125206475055,0.9840277777777777
0.2509084902543773,0.9840277777777777
0.2509084902543773,0.9847222222222223
0.25100759828212754,0.9847222222222223
0.25104063429137763,0.9847222222222223
0.2538321770730096,0.9847222222222223
0.2538652130822597,0.9847222222222223
0.2548397753551371,0.9847222222222223
0.25487281136438716,0.9847222222222223
0.2553683515031384,0.9847222222222223
0.2554013875123885,0.9847222222222223
0.25852329038652133,0.9847222222222223
0.25855632639577136,0.9847222222222223
0.25893624050214736,0.9847222222222223
0.25896927651139745,0.9847222222222223
0.2599273207796498,0.9847222222222223
0.2599273207796498,0.9854166666666667
0.26012553683515033,0.9854166666666667
0.2601585728444004,0.9854166666666667
0.2612817971589032,0.9854166666666667
0.2612817971589032,0.9861111111111112
0.26138090518665347,0.9861111111111112
0.26141394119590355,0.9861111111111112
0.2645193260654113,0.9861111111111112
0.2645193260654113,0.9868055555555556
0.2675256029071688,0.9868055555555556
0.2675586389164189,0.9868055555555556
0.2681202510736703,0.9868055555555556
0.2681532870829204,0.9868055555555556
0.2682523951106706,0.9868055555555556
0.2682523951106706,0.9875
0.26826891311529566,0.9875
0.26830194912454575,0.9875
0.27195242814667986,0.9875
0.27198546415592995,0.9875
0.27398414271556,0.9875
0.27401717872481,0.9875
0.2743145028080608,0.9875
0.2743475388173109,0.9875
0.277998017839445,0.9875
0.2780310538486951,0.9875
0.2786917740336967,0.9875
0.2787248100429468,0.9875
0.2832837793194582,0.9875
0.2833168153287083,0.9875
0.28447307565246116,0.9875
0.28450611166171125,0.9875
0.28531549388833827,0.9875
0.28534852989758835,0.9875
0.28577799801783943,0.9875
0.2858110340270895,0.9875
0.28645523620746616,0.9875
0.28648827221671624,0.9875
0.28866864882722165,0.9875
0.28870168483647174,0.9875
0.2890981169474727,0.9875
0.2891311529567228,0.9875
0.29297984803435745,0.9875
0.29301288404360754,0.9875
0.29349190617773374,0.9875
0.29352494218698383,0.9875
0.29362405021473403,0.9875
0.2936570862239841,0.9875
0.30061116617112654,0.9875
0.30064420218037663,0.9875
0.30085893624050214,0.9875
0.3008919722497522,0.9875
0.30118929633300295,0.9875
0.30122233234225304,0.9875
0.3013544763792534,0.9875
0.3013544763792534,0.9881944444444445
0.3015692104393789,0.9881944444444445
0.301602246448629,0.9881944444444445
0.3032540469111331,0.9881944444444445
0.3032870829203832,0.9881944444444445
0.3034027089527585,0.9881944444444445
0.3034357449620086,0.9881944444444445
0.3036835150313842,0.9881944444444445
0.3037165510406343,0.9881944444444445
0.3040799471423852,0.9881944444444445
0.30411298315163526,0.9881944444444445
0.3045589692765114,0.9881944444444445
0.30459200528576147,0.9881944444444445
0.30505450941526263,0.9881944444444445
0.3050875454245127,0.9881944444444445
0.3054344235216386,0.9881944444444445
0.30546745953088866,0.9881944444444445
0.306788899900892,0.9881944444444445
0.306788899900892,0.9888888888888889
0.306805417905517,0.9888888888888889
0.3068714899240172,0.9888888888888889
0.3069210439378923,0.9888888888888889
0.3069540799471424,0.9888888888888889
0.3071192599933928,0.9888888888888889
0.3071522960026429,0.9888888888888889
0.30733399405351836,0.9888888888888889
0.30736703006276844,0.9888888888888889
0.3076313181367691,0.9888888888888889
0.30766435414601917,0.9888888888888889
0.3092335645853981,0.9888888888888889
0.30926660059464817,0.9888888888888889
0.310009910802775,0.9888888888888889
0.3100429468120251,0.9888888888888889
0.3134786917740337,0.9888888888888889
0.3135117277832838,0.9888888888888889
0.3156425503799141,0.9888888888888889
0.3156755863891642,0.9888888888888889
0.31572514040303934,0.9888888888888889
0.31575817641228937,0.9888888888888889
0.31641889659729105,0.9888888888888889
0.31645193260654114,0.9888888888888889
0.3164684506111662,0.9888888888888889
0.3164684506111662,0.9895833333333334
0.31998678559629995,0.9895833333333334
0.32001982160555004,0.9895833333333334
0.32494218698381233,0.9895833333333334
0.3249752229930624,0.9895833333333334
0.325206475057813,0.9895833333333334
0.3252395110670631,0.9895833333333334
0.3255533531549389,0.9895833333333334
0.32558638916418897,0.9895833333333334
0.326395771390816,0.9895833333333334
0.3264288074000661,0.9895833333333334
0.3306078625702015,0.9895833333333334
0.3306408985794516,0.9895833333333334
0.333201189296333,0.9895833333333334
0.3332342253055831,0.9895833333333334
0.33481995374958706,0.9895833333333334
0.33485298975883715,0.9895833333333334
0.3362900561612157,0.9895833333333334
0.3363230921704658,0.9895833333333334
0.33653782623059136,0.9895833333333334
0.33657086223984145,0.9895833333333334
0.3373141724479683,0.9895833333333334
0.3373472084572184,0.9895833333333334
0.3382391807069706,0.9895833333333334
0.33827221671622065,0.9895833333333334
0.3389659729104724,0.9895833333333334
0.3389659729104724,0.9902777777777778
0.33914767096134785,0.9902777777777778
0.33918070697059793,0.9902777777777778
0.339197224975223,0.9902777777777778
0.339197224975223,0.9909722222222223
0.33980839114634953,0.9909722222222223
0.3398414271555996,0.9909722222222223
0.3407499174099769,0.9909722222222223
0.34078295341922693,0.9909722222222223
0.34160885365047905,0.9909722222222223
0.3416418896597291,0.9909722222222223
0.34236868186323094,0.9909722222222223
0.342401717872481,0.9909722222222223
0.34408655434423524,0.9909722222222223
0.34411959035348527,0.9909722222222223
0.348414271555996,0.9909722222222223
0.348414271555996,0.9916666666666667
0.3485629335976214,0.9916666666666667
0.3485959696068715,0.9916666666666667
0.34861248761149655,0.9916666666666667
0.34864552362074663,0.9916666666666667
0.35181698050875454,0.9916666666666667
0.3518500165180046,0.9916666666666667
0.3520317145688801,0.9916666666666667
0.35206475057813014,0.9916666666666667
0.3530062768417575,0.9916666666666667
0.3530393128510076,0.9916666666666667
0.35322101090188307,0.9916666666666667
0.35322101090188307,0.9923611111111111
0.35368351503138423,0.9923611111111111
0.35371655104063426,0.9923611111111111
0.3561942517343905,0.9923611111111111
0.35622728774364054,0.9923611111111111
0.3563263957713908,0.9923611111111111
0.3563594317806409,0.9923611111111111
0.3568880079286422,0.9923611111111111
0.3568880079286422,0.9930555555555556
0.35715229600264287,0.9930555555555556
0.35718533201189295,0.9930555555555556
0.3577139081598943,0.9930555555555556
0.3577139081598943,0.99375
0.3579616782292699,0.99375
0.35799471423852,0.99375
0.35820944829864554,0.99375
0.3582424843078956,0.99375
0.35853980839114635,0.99375
0.35857284440039644,0.99375
0.35878757846052195,0.99375
0.3588536504790221,0.99375
0.3595804426825239,0.99375
0.359613478691774,0.99375
0.3598282127518996,0.99375
0.35986124876114967,0.99375
0.3605550049554014,0.99375
0.36058804096465147,0.99375
0.3609679550710274,0.99375
0.3610009910802775,0.99375
0.3615460852329039,0.99375
0.36157912124215397,0.99375
0.36199207135778,0.99375
0.3620251073670301,0.99375
0.3631648496861579,0.99375
0.363197885695408,0.99375
0.36754212091179383,0.99375
0.3675751569210439,0.99375
0.36774033696729436,0.99375
0.36777337297654444,0.99375
0.368004625041295,0.99375
0.3680376610505451,0.99375
0.3682358771060456,0.99375
0.3682689131152957,0.99375
0.36889659729104723,0.99375
0.3689296333002973,0.99375
0.37167162206805415,0.99375
0.37170465807730424,0.99375
0.3737033366369343,0.99375
0.37373637264618437,0.99375
0.3787413280475719,0.99375
0.3787743640568219,0.99375
0.3789560621076974,0.99375
0.3789890981169475,0.99375
0.3794681202510737,0.99375
0.37950115626032377,0.99375
0.37969937231582424,0.99375
0.3797324083250743,0.99375
0.3800132144037,0.99375
0.3800462504129501,0.99375
0.381598942847704,0.99375
0.3816319788569541,0.99375
0.3826726131483317,0.99375
0.38270564915758176,0.99375
0.3828377931945821,0.99375
0.3828708292038322,0.99375
0.38295341922695736,0.99375
0.38298645523620745,0.99375
0.3841096795507103,0.99375
0.3841427155599604,0.99375
0.38698381235546747,0.99375
0.38701684836471756,0.99375
0.38749587049884376,0.99375
0.3875289065080938,0.99375
0.3877106045589693,0.99375
0.38774364056821936,0.99375
0.3886686488272217,0.99375
0.3887016848364718,0.99375
0.3905351833498513,0.99375
0.3905351833498513,0.9944444444444445
0.39106375949785266,0.9944444444444445
0.39109679550710275,0.9944444444444445
0.3916418896597291,0.9944444444444445
0.3916749256689792,0.9944444444444445
0.39185662371985464,0.9944444444444445
0.3918896597291047,0.9944444444444445
0.3919557317476049,0.9944444444444445
0.391988767756855,0.9944444444444445
0.39284770399735713,0.9944444444444445
0.3928807400066072,0.9944444444444445
0.39818301949124546,0.9944444444444445
0.39821605550049555,0.9944444444444445
0.39905847373637265,0.9944444444444445
0.39909150974562274,0.9944444444444445
0.39942186983812356,0.9944444444444445
0.39945490584737364,0.9944444444444445
0.3995209778658738,0.9944444444444445
0.3995540138751239,0.9944444444444445
0.4000330360092501,0.9944444444444445
0.40006607201850014,0.9944444444444445
0.40113974231912786,0.9944444444444445
0.40117277832837794,0.9944444444444445
0.40198216055500496,0.9944444444444445
0.40201519656425505,0.9944444444444445
0.40302279484638254,0.9944444444444445
0.4030558308556326,0.9944444444444445
0.40328708292038323,0.9944444444444445
0.4033201189296333,0.9944444444444445
0.4040303931285101,0.9944444444444445
0.40406342913776017,0.9944444444444445
0.4041460191608854,0.9944444444444445
0.40417905517013547,0.9944444444444445
0.40561612157251403,0.9944444444444445
0.4056491575817641,0.9944444444444445
0.40675586389164187,0.9944444444444445
0.40678889990089195,0.9944444444444445
0.4074331020812686,0.9944444444444445
0.4074661380905187,0.9944444444444445
0.41098447307565245,0.9944444444444445
0.41101750908490253,0.9944444444444445
0.41131483316815326,0.9944444444444445
0.41134786917740335,0.9944444444444445
0.4117773372976544,0.9944444444444445
0.4118103733069045,0.9944444444444445
0.41261975553353153,0.9944444444444445
0.4126527915427816,0.9944444444444445
0.4141063759497853,0.9944444444444445
0.41413941195903536,0.9944444444444445
0.41433762801453583,0.9944444444444445
0.4143706640237859,0.9944444444444445
0.4147670961347869,0.9944444444444445
0.414800132144037,0.9944444444444445
0.4148496861579121,0.9944444444444445
0.4148827221671622,0.9944444444444445
0.4179220350181698,0.9944444444444445
0.4179550710274199,0.9944444444444445
0.4223653782623059,0.9944444444444445
0.422398414271556,0.9944444444444445
0.422794846382557,0.9944444444444445
0.4228278823918071,0.9944444444444445
0.42305913445655763,0.9944444444444445
0.4231252064750578,0.9944444444444445
0.42383548067393456,0.9944444444444445
0.42386851668318465,0.9944444444444445
0.42525602907168814,0.9944444444444445
0.4252890650809382,0.9944444444444445
0.42632969937231585,0.9944444444444445
0.4263627353815659,0.9944444444444445
0.4269573835480674,0.9944444444444445
0.4269904195573175,0.9944444444444445
0.4271555996035679,0.9944444444444445
0.42718863561281795,0.9944444444444445
0.4277172117608193,0.9944444444444445
0.42775024777006937,0.9944444444444445
0.42793194582094485,0.9944444444444445
0.42796498183019493,0.9944444444444445
0.4281962338949455,0.9944444444444445
0.4282292699041956,0.9944444444444445
0.4282788239180707,0.9944444444444445
0.4283118599273208,0.9944444444444445
0.4293359762140733,0.9944444444444445
0.4293690122233234,0.9944444444444445
0.43158242484307896,0.9944444444444445
0.43161546085232905,0.9944444444444445
0.4322101090188305,0.9944444444444445
0.4322431450280806,0.9944444444444445
0.43300297324083253,0.9944444444444445
0.43303600925008257,0.9944444444444445
0.43336636934258344,0.9944444444444445
0.4333994053518335,0.9944444444444445
0.43541460191608855,0.9944444444444445
0.43544763792533864,0.9944444444444445
0.43642220019821604,0.9944444444444445
0.4364882722167162,0.9944444444444445
0.43719854641559297,0.9944444444444445
0.43726461843409314,0.9944444444444445
0.43802444664684503,0.9944444444444445
0.4380574826560951,0.9944444444444445
0.4383217707300958,0.9944444444444445
0.4383548067393459,0.9944444444444445
0.4388833828873472,0.9944444444444445
0.43891641889659727,0.9944444444444445
0.4417079616782293,0.9944444444444445
0.4417409976874794,0.9944444444444445
0.44306243805748263,0.9944444444444445
0.4430954740667327,0.9944444444444445
0.44458209448298647,0.9944444444444445
0.44461513049223655,0.9944444444444445
0.445209778658738,0.9944444444444445
0.4452428146679881,0.9944444444444445
0.44570531879748926,0.9944444444444445
0.44573835480673935,0.9944444444444445
0.4457879088206145,0.9944444444444445
0.44582094482986456,0.9944444444444445
0.4461513049223654,0.9944444444444445
0.44618434093161546,0.9944444444444445
0.4465972910472415,0.9944444444444445
0.4466303270564916,0.9944444444444445
0.44669639907499176,0.9944444444444445
0.44672943508424184,0.9944444444444445
0.4483151635282458,0.9944444444444445
0.4483481995374959,0.9944444444444445
0.4506772381896267,0.9944444444444445
0.45071027419887677,0.9944444444444445
0.4521968946151305,0.9944444444444445
0.45222993062438055,0.9944444444444445
0.4531549388833829,0.9944444444444445
0.45318797489263296,0.9944444444444445
0.4541460191608854,0.9944444444444445
0.45417905517013546,0.9944444444444445
0.4542616451932607,0.9944444444444445
0.45429468120251076,0.9944444444444445
0.4547076313181368,0.9944444444444445
0.4547406673273868,0.9944444444444445
0.4549554013875124,0.9944444444444445
0.4549884373967625,0.9944444444444445
0.45617773372976544,0.9944444444444445
0.45617773372976544,0.9951388888888889
0.45710274198876777,0.9951388888888889
0.45713577799801786,0.9951388888888889
0.4574000660720185,0.9951388888888889
0.4574331020812686,0.9951388888888889
0.4606375949785266,0.9951388888888889
0.46067063098777666,0.9951388888888889
0.4614469772051536,0.9951388888888889
0.4614800132144037,0.9951388888888889
0.46245457548728114,0.9951388888888889
0.4624876114965312,0.9951388888888889
0.46266930954740665,0.9951388888888889
0.46270234555665674,0.9951388888888889
0.4637594978526594,0.9951388888888889
0.4637925338619095,0.9951388888888889
0.4650313842087876,0.9951388888888889
0.4650644202180377,0.9951388888888889
0.4674430128840436,0.9951388888888889
0.4674760488932937,0.9951388888888889
0.46797158903204494,0.9951388888888889
0.46800462504129503,0.9951388888888889
0.4681367690782953,0.9951388888888889
0.4681698050875454,0.9951388888888889
0.4688635612817972,0.9951388888888889
0.46889659729104727,0.9951388888888889
0.46917740336967295,0.9951388888888889
0.46921043937892304,0.9951388888888889
0.470796167822927,0.9951388888888889
0.4708292038321771,0.9951388888888889
0.4709448298645524,0.9951388888888889
0.47097786587380247,0.9951388888888889
0.4715559960356789,0.9951388888888889
0.47158903204492897,0.9951388888888889
0.47168814007267923,0.9951388888888889
0.4717211760819293,0.9951388888888889
0.4730260984473076,0.9951388888888889
0.4730591344565577,0.9951388888888889
0.4750082590023125,0.9951388888888889
0.4750412950115626,0.9951388888888889
0.47641228939544106,0.9951388888888889
0.4764453254046911,0.9951388888888889
0.4777998017839445,0.9951388888888889
0.4778328377931946,0.9951388888888889
0.4795672282788239,0.9951388888888889
0.479600264288074,0.9951388888888889
0.4800792864222002,0.9951388888888889
0.4801123224314503,0.9951388888888889
0.4809217046580773,0.9951388888888889
0.4809547406673274,0.9951388888888889
0.4840766435414602,0.9951388888888889
0.48410967955071027,0.9951388888888889
0.48481995374958703,0.9951388888888889
0.4848529897588371,0.9951388888888889
0.4854311199207136,0.9951388888888889
0.4854311199207136,0.9958333333333333
0.485992732077965,0.9958333333333333
0.48602576808721504,0.9958333333333333
0.48738024446646844,0.9958333333333333
0.4874132804757185,0.9958333333333333
0.48805748265609517,0.9958333333333333
0.48809051866534525,0.9958333333333333
0.4893458870168484,0.9958333333333333
0.4893789230260984,0.9958333333333333
0.4916749256689792,0.9958333333333333
0.4917079616782293,0.9958333333333333
0.4921539478031054,0.9958333333333333
0.4921869838123555,0.9958333333333333
0.49458209448298646,0.9958333333333333
0.49461513049223654,0.9958333333333333
0.4964981830194912,0.9958333333333333
0.4965312190287413,0.9958333333333333
0.49973571192599936,0.9958333333333333
0.49976874793524945,0.9958333333333333
0.5018004625041295,0.9958333333333333
0.5018334985133796,0.9958333333333333
0.5061446977205154,0.9958333333333333
0.5061446977205154,0.9965277777777778
0.5067393458870169,0.9965277777777778
0.5067723818962669,0.9965277777777778
0.5070697059795177,0.9965277777777778
0.5071027419887677,0.9965277777777778
0.5077634621737694,0.9965277777777778
0.5077964981830195,0.9965277777777778
0.5081103402708953,0.9965277777777778
0.5081433762801454,0.9965277777777778
0.5096299966963991,0.9965277777777778
0.5096630327056492,0.9965277777777778
0.5108358110340271,0.9965277777777778
0.5108358110340271,0.9972222222222222
0.5109349190617773,0.9972222222222222
0.5109679550710274,0.9972222222222222
0.5119590353485299,0.9972222222222222
0.51199207135778,0.9972222222222222
0.5121242153947803,0.9972222222222222
0.5121572514040303,0.9972222222222222
0.5122893954410307,0.9972222222222222
0.5123224314502808,0.9972222222222222
0.5151470102411628,0.9972222222222222
0.5151800462504129,0.9972222222222222
0.5154773703336637,0.9972222222222222
0.5155104063429138,0.9972222222222222
0.5163363065741658,0.9972222222222222
0.5163693425834159,0.9972222222222222
0.5167162206805418,0.9972222222222222
0.5167492566897919,0.9972222222222222
0.5169805087545425,0.9972222222222222
0.5170135447637926,0.9972222222222222
0.5180872150644202,0.9972222222222222
0.5181202510736703,0.9972222222222222
0.5189626693095474,0.9972222222222222
0.5189957053187975,0.9972222222222222
0.522811364387182,0.9972222222222222
0.522811364387182,0.9979166666666667
0.5257350512058143,0.9979166666666667
0.5257680872150644,0.9979166666666667
0.5265609514370664,0.9979166666666667
0.5265939874463165,0.9979166666666667
0.5271555996035678,0.9979166666666667
0.5271886356128179,0.9979166666666667
0.5280806078625702,0.9979166666666667
0.5281136438718202,0.9979166666666667
0.5281797158903204,0.9979166666666667
0.5282127518995705,0.9979166666666667
0.5304922365378262,0.9979166666666667
0.5305252725470763,0.9979166666666667
0.5312685827552032,0.9979166666666667
0.5313016187644533,0.9979166666666667
0.5321440370003303,0.9979166666666667
0.5321770730095804,0.9979166666666667
0.5338453914767096,0.9979166666666667
0.5338949454905847,0.9979166666666667
0.53397753551371,0.9979166666666667
0.53401057152296,0.9979166666666667
0.5371159563924678,0.9979166666666667
0.5371489924017179,0.9979166666666667
0.5385365047902213,0.9979166666666667
0.5385695407994714,0.9979166666666667
0.5423026098447308,0.9979166666666667
0.5423356458539809,0.9979166666666667
0.5439378923026098,0.9979166666666667
0.5439709283118599,0.9979166666666667
0.5451767426494879,0.9979166666666667
0.545209778658738,0.9979166666666667
0.5454740667327387,0.9979166666666667
0.5455071027419888,0.9979166666666667
0.5497852659398744,0.9979166666666667
0.5498183019491245,0.9979166666666667
0.5500991080277502,0.9979166666666667
0.5501321440370003,0.9979166666666667
0.5517674264948794,0.9979166666666667
0.5518004625041295,0.9979166666666667
0.5527585067723819,0.9979166666666667
0.552791542781632,0.9979166666666667
0.5535678889990089,0.9979166666666667
0.553600925008259,0.9979166666666667
0.5565411298315164,0.9979166666666667
0.5565741658407665,0.9979166666666667
0.5590518665345227,0.9979166666666667
0.5590849025437727,0.9979166666666667
0.5598447307565246,0.9979166666666667
0.5598777667657747,0.9979166666666667
0.5599108027750248,0.9979166666666667
0.5599438387842749,0.9979166666666667
0.5602411628675256,0.9979166666666667
0.5602741988767757,0.9979166666666667
0.5608688470432772,0.9979166666666667
0.5609018830525273,0.9979166666666667
0.5613313511727783,0.9979166666666667
0.5613643871820284,0.9979166666666667
0.5623224314502808,0.9979166666666667
0.5623554674595309,0.9979166666666667
0.565180046250413,0.9979166666666667
0.565213082259663,0.9979166666666667
0.5662371985464156,0.9979166666666667
0.5662702345556657,0.9979166666666667
0.5663363065741659,0.9979166666666667
0.5663693425834159,0.9979166666666667
0.5670465807730426,0.9979166666666667
0.5670796167822927,0.9979166666666667
0.5682854311199207,0.9979166666666667
0.5683184671291708,0.9979166666666667
0.5690948133465478,0.9979166666666667
0.5691278493557979,0.9979166666666667
0.5721341261975553,0.9979166666666667
0.5722001982160555,0.9979166666666667
0.5722497522299306,0.9979166666666667
0.5722827882391807,0.9979166666666667
0.5776346217376941,0.9979166666666667
0.5776676577469442,0.9979166666666667
0.5795672282788239,0.9979166666666667
0.579600264288074,0.9979166666666667
0.5810042946812025,0.9979166666666667
0.5810373306904526,0.9979166666666667
0.5822101090188305,0.9979166666666667
0.5822431450280806,0.9979166666666667
0.5834654773703337,0.9979166666666667
0.5834985133795837,0.9979166666666667
0.5840766435414602,0.9979166666666667
0.5841096795507102,0.9979166666666667
0.5845887016848365,0.9979166666666667
0.5846217376940865,0.9979166666666667
0.5866534522629666,0.9979166666666667
0.5866864882722167,0.9979166666666667
0.5869672943508424,0.9979166666666667
0.5870003303600925,0.9979166666666667
0.5874463164849686,0.9979166666666667
0.5874793524942187,0.9979166666666667
0.5902708952758506,0.9979166666666667
0.5903039312851007,0.9979166666666667
0.5904691113313512,0.9979166666666667
0.5905021473406012,0.9979166666666667
0.5937396762471093,0.9979166666666667
0.5937727122563594,0.9979166666666667
0.594433432441361,0.9979166666666667
0.5944664684506111,0.9979166666666667
0.5951106706309878,0.9979166666666667
0.5951437066402379,0.9979166666666667
0.5959200528576148,0.9979166666666667
0.5959530888668649,0.9979166666666667
0.5969772051536174,0.9979166666666667
0.5970102411628675,0.9979166666666667
0.6030062768417576,0.9979166666666667
0.6030393128510076,0.9979166666666667
0.6038156590683845,0.9979166666666667
0.6038486950776346,0.9979166666666667
0.6047737033366369,0.9979166666666667
0.604806739345887,0.9979166666666667
0.6050710274198877,0.9979166666666667
0.6051040634291378,0.9979166666666667
0.6068219359101421,0.9979166666666667
0.6068549719193921,0.9979166666666667
0.6068880079286422,0.9979166666666667
0.6069210439378923,0.9979166666666667
0.6070862239841427,0.9979166666666667
0.6071192599933928,0.9979166666666667
0.6075487281136439,0.9979166666666667
0.6075487281136439,0.9986111111111111
0.6075652461182689,0.9986111111111111
0.607598282127519,0.9986111111111111
0.6145193260654113,0.9986111111111111
0.6145523620746614,0.9986111111111111
0.6177568549719193,0.9986111111111111
0.6177898909811694,0.9986111111111111
0.6180376610505451,0.9986111111111111
0.6180706970597952,0.9986111111111111
0.6198216055500495,0.9986111111111111
0.6198546415592996,0.9986111111111111
0.6204658077304261,0.9986111111111111
0.6204988437396762,0.9986111111111111
0.6214899240171787,0.9986111111111111
0.6215229600264288,0.9986111111111111
0.6222497522299306,0.9986111111111111
0.6222827882391807,0.9986111111111111
0.6235546745953089,0.9986111111111111
0.623587710604559,0.9986111111111111
0.6247439709283119,0.9986111111111111
0.624777006937562,0.9986111111111111
0.628823918070697,0.9986111111111111
0.6288569540799471,0.9986111111111111
0.6300627684175751,0.9986111111111111
0.6300958044268252,0.9986111111111111
0.6315163528245787,0.9986111111111111
0.6315493888338288,0.9986111111111111
0.6336636934258342,0.9986111111111111
0.6336967294350843,0.9986111111111111
0.63600925008259,0.9986111111111111
0.6360422860918401,0.9986111111111111
0.6377931945820945,0.9986111111111111
0.6378262305913446,0.9986111111111111
0.6394119590353485,0.9986111111111111
0.6394449950445986,0.9986111111111111
0.6429633300297324,0.9986111111111111
0.6429963660389825,0.9986111111111111
0.6445820944829864,0.9986111111111111
0.6446151304922365,0.9986111111111111
0.6459365708622399,0.9986111111111111
0.64596960687149,0.9986111111111111
0.6460356788899901,0.9986111111111111
0.6460687148992402,0.9986111111111111
0.6495374958704988,0.9986111111111111
0.6495705318797489,0.9986111111111111
0.650016518004625,0.9986111111111111
0.6500495540138751,0.9986111111111111
0.6503468780971259,0.9986111111111111
0.6503468780971259,0.9993055555555556
0.653584407003634,0.9993055555555556
0.653617443012884,0.9993055555555556
0.6545589692765114,0.9993055555555556
0.6545920052857614,0.9993055555555556
0.6551370994383878,0.9993055555555556
0.6551701354476379,0.9993055555555556
0.6592666005946481,0.9993055555555556
0.6592996366038982,0.9993055555555556
0.6599603567888999,0.9993055555555556
0.65999339279815,0.9993055555555556
0.6611000991080278,0.9993055555555556
0.6611331351172778,0.9993055555555556
0.6613313511727783,0.9993055555555556
0.6613643871820284,0.9993055555555556
0.661612157251404,0.9993055555555556
0.6616451932606541,0.9993055555555556
0.6638255698711596,0.9993055555555556
0.6638586058804097,0.9993055555555556
0.664370664023786,0.9993055555555556
0.6644037000330361,0.9993055555555556
0.6656590683845391,0.9993055555555556
0.6656921043937892,0.9993055555555556
0.6658242484307896,0.9993055555555556
0.6658572844400397,0.9993055555555556
0.6664849686157912,0.9993055555555556
0.6665180046250413,0.9993055555555556
0.667591674925669,0.9993055555555556
0.667624710934919,0.9993055555555556
0.6691608853650479,0.9993055555555556
0.669193921374298,0.9993055555555556
0.6709448298645524,0.9993055555555556
0.6709778658738025,0.9993055555555556
0.6717211760819293,0.9993055555555556
0.6717211760819293,1.0
0.6729104724149323,1.0
0.6729435084241824,1.0
0.675189957053188,1.0
0.675222993062438,1.0
0.6753386190948133,1.0
0.6753716551040634,1.0
0.6762471093491906,1.0
0.6762801453584407,1.0
0.6777667657746944,1.0
0.6777998017839445,1.0
0.6782457879088206,1.0
0.6782788239180707,1.0
0.6792699041955732,1.0
0.6793029402048233,1.0
0.6809877766765775,1.0
0.6810208126858276,1.0
0.6825735051205815,1.0
0.6826065411298315,1.0
0.6829038652130822,1.0
0.6829369012223323,1.0
0.6843078956062107,1.0
0.6843409316154608,1.0
0.685199867855963,1.0
0.6852329038652131,1.0
0.6854641559299637,1.0
0.6854971919392138,1.0
0.6873802444664685,1.0
0.6874132804757185,1.0
0.6887016848364718,1.0
0.6887347208457218,1.0
0.6896927651139743,1.0
0.6897258011232243,1.0
0.6907333994053518,1.0
0.6907664354146019,1.0
0.6923521638586059,1.0
0.692385199867856,1.0
0.694416914436736,1.0
0.6944499504459861,1.0
0.6945325404691113,1.0
0.6945655764783614,1.0
0.694780310538487,1.0
0.6948133465477371,1.0
0.695606210769739,1.0
0.6956392467789891,1.0
0.7014205483977536,1.0
0.7014535844070037,1.0
0.7025602907168814,1.0
0.7025933267261315,1.0
0.7032375289065081,1.0
0.7032705649157581,1.0
0.7042616451932606,1.0
0.7042946812025107,1.0
0.7045094152626362,1.0
0.7045424512718863,1.0
0.7065246118268913,1.0
0.7065576478361414,1.0
0.7078295341922696,1.0
0.7078625702015197,1.0
0.7109844730756525,1.0
0.7110175090849026,1.0
0.7114634952097787,1.0
0.7115295672282789,1.0
0.7162041625371655,1.0
0.7162371985464155,1.0
0.7178724810042947,1.0
0.7179055170135448,1.0
0.7209448298645523,1.0
0.7209778658738024,1.0
0.7225305583085563,1.0
0.7225635943178064,1.0
0.72398414271556,1.0
0.7240171787248101,1.0
0.7249091509745623,1.0
0.7249421869838124,1.0
0.7255368351503139,1.0
0.725569871159564,1.0
0.7262801453584407,1.0
0.7263131813676907,1.0
0.7267261314833168,1.0
0.7267591674925669,1.0
0.7297654443343244,1.0
0.7297984803435745,1.0
0.7312025107367031,1.0
0.731235546745953,1.0
0.7338288734720846,1.0
0.7338619094813347,1.0
0.7345556656755864,1.0
0.7345887016848365,1.0
0.7346052196894615,1.0
0.7346382556987116,1.0
0.734786917740337,1.0
0.7348199537495871,1.0
0.7367525602907169,1.0
0.736785596299967,1.0
0.7377436405682194,1.0
0.7377766765774695,1.0
0.7399240171787248,1.0
0.7399570531879749,1.0
0.7409481334654774,1.0
0.7409811694747275,1.0
0.7412950115626032,1.0
0.7413280475718533,1.0
0.7422695738354806,1.0
0.7423026098447307,1.0
0.7431285100759828,1.0
0.7431615460852329,1.0
0.744813346547737,1.0
0.7448463825569871,1.0
0.7454575487281137,1.0
0.7454905847373637,1.0
0.7458209448298646,1.0
0.7458539808391146,1.0
0.7488272216716221,1.0
0.7488602576808722,1.0
0.7509084902543772,1.0
0.7509415262636273,1.0
0.7518004625041295,1.0
0.7518334985133796,1.0
0.7539478031053849,1.0
0.753980839114635,1.0
0.7547241493227618,1.0
0.7547571853320119,1.0
0.754790221341262,1.0
0.754823257350512,1.0
0.7553022794846382,1.0
0.7553353154938883,1.0
0.7554839775355137,1.0
0.7555170135447637,1.0
0.7582094482986456,1.0
0.7582424843078956,1.0
0.7605054509415262,1.0
0.7605384869507763,1.0
0.7607367030062768,1.0
0.7607697390155269,1.0
0.7614469772051536,1.0
0.7614800132144037,1.0
0.76199207135778,1.0
0.7620251073670301,1.0
0.7636108358110341,1.0
0.7636438718202841,1.0
0.7644697720515362,1.0
0.7645028080607863,1.0
0.7683184671291708,1.0
0.7683515031384209,1.0
0.7719028741328048,1.0
0.7719359101420549,1.0
0.7730426164519326,1.0
0.7730756524611827,1.0
0.7738189626693095,1.0
0.7738519986785596,1.0
0.7744962008589362,1.0
0.7745292368681863,1.0
0.7763296993723158,1.0
0.7763627353815659,1.0
0.776395771390816,1.0
0.776428807400066,1.0
0.7764453254046911,1.0
0.7764783614139412,1.0
0.7781962338949455,1.0
0.7782292699041956,1.0
0.778807400066072,1.0
0.778840436075322,1.0
0.7801783944499504,1.0
0.7802114304592005,1.0
0.7809382226627023,1.0
0.7809712586719524,1.0
0.7810373306904526,1.0
0.7810703666997026,1.0
0.7812685827552032,1.0
0.7813016187644533,1.0
0.7823587710604559,1.0
0.782391807069706,1.0
0.782821275189957,1.0
0.7828543111992071,1.0
0.7843244136108358,1.0
0.7843574496200859,1.0
0.785199867855963,1.0
0.785232903865213,1.0
0.7853650479022134,1.0
0.7853980839114635,1.0
0.7881235546745953,1.0
0.7881565906838454,1.0
0.7883217707300958,1.0
0.7883548067393459,1.0
0.7912454575487281,1.0
0.7912784935579782,1.0
0.7914106375949785,1.0
0.7914436736042286,1.0
0.7925338619094814,1.0
0.7925668979187315,1.0
0.7938057482656096,1.0
0.7938387842748595,1.0
0.7964651470102412,1.0
0.7965312190287414,1.0
0.7967459530888669,1.0
0.796778989098117,1.0
0.7978361413941196,1.0
0.7978691774033697,1.0
0.7984638255698712,1.0
0.7984968615791213,1.0
0.7987446316484969,1.0
0.7987776676577469,1.0
0.7994053518334985,1.0
0.7994383878427486,1.0
0.8003138420878758,1.0
0.8003468780971259,1.0
0.803584407003634,1.0
0.8036174430128841,1.0
0.8038156590683846,1.0
0.8038486950776346,1.0
0.8050710274198877,1.0
0.8051040634291378,1.0
0.8052527254707631,1.0
0.8052857614800132,1.0
0.8073505120581433,1.0
0.8073835480673934,1.0
0.807565246118269,1.0
0.8075982821275189,1.0
0.8083746283448959,1.0
0.808407664354146,1.0
0.8088536504790221,1.0
0.8088866864882722,1.0
0.8140568219359101,1.0
0.8140898579451602,1.0
0.814800132144037,1.0
0.8148331681532871,1.0
0.8180872150644202,1.0
0.8181202510736703,1.0
0.8219524281466799,1.0
0.82198546415593,1.0
0.8226131483316815,1.0
0.8226461843409316,1.0
0.8274859596960688,1.0
0.8275189957053188,1.0
0.827601585728444,1.0
0.8276346217376941,1.0
0.8278658738024447,1.0
0.8278989098116948,1.0
0.8285761480013214,1.0
0.8286091840105715,1.0
0.8315328708292038,1.0
0.8315659068384539,1.0
0.8333333333333334,1.0
0.8333663693425835,1.0
0.833614139411959,1.0
0.8336471754212091,1.0
0.8341261975553353,1.0
0.8341592335645854,1.0
0.835612817971589,1.0
0.8356458539808391,1.0
0.836785596299967,1.0
0.836818632309217,1.0
0.8376445325404691,1.0
0.8376775685497192,1.0
0.8388833828873472,1.0
0.8389164188965973,1.0
0.8393128510075983,1.0
0.8393458870168483,1.0
0.8395606210769739,1.0
0.839593657086224,1.0
0.8400396432111001,1.0
0.8400726792203502,1.0
0.8412619755533531,1.0
0.8412950115626032,1.0
0.8420548397753551,1.0
0.8420878757846052,1.0
0.8438057482656095,1.0
0.8438387842748596,1.0
0.846019160885365,1.0
0.8460521968946151,1.0
0.8491080277502477,1.0
0.8491410637594978,1.0
0.8497687479352494,1.0
0.8498017839444995,1.0
0.85,1.0
0.8500330360092501,1.0
0.8502312520647506,1.0
0.8502642880740007,1.0
0.8518995705318797,1.0
0.8519326065411298,1.0
0.8539478031053849,1.0
0.853980839114635,1.0
0.8576808721506441,1.0
0.8577139081598942,1.0
0.859200528576148,1.0
0.8592335645853981,1.0
0.8637099438387843,1.0
0.8637429798480344,1.0
0.8671291707961678,1.0
0.8671622068054179,1.0
0.8713082259663033,1.0
0.8713412619755534,1.0
0.8716881400726793,1.0
0.8717211760819293,1.0
0.8726131483316816,1.0
0.8726461843409317,1.0
0.8734060125536836,1.0
0.8734390485629336,1.0
0.8739511067063099,1.0
0.8739841427155599,1.0
0.8769243475388173,1.0
0.8769573835480674,1.0
0.879187314172448,1.0
0.8792203501816981,1.0
0.8799636603898249,1.0
0.879996696399075,1.0
0.8850512058143376,1.0
0.8850842418235877,1.0
0.8887347208457218,1.0
0.8887677568549719,1.0
0.8892632969937232,1.0
0.8892963330029733,1.0
0.8897753551370995,1.0
0.8898083911463496,1.0
0.8921704658077304,1.0
0.8922035018169805,1.0
0.8997687479352494,1.0
0.8998017839444995,1.0
0.9000660720185002,1.0
0.9000991080277503,1.0
0.9009415262636273,1.0
0.9009745622728774,1.0
0.9012553683515031,1.0
0.9012884043607532,1.0
0.9032540469111331,1.0
0.9032870829203832,1.0
0.9041790551701354,1.0
0.9042120911793855,1.0
0.910802775024777,1.0
0.9108358110340271,1.0
0.9127849355797819,1.0
0.912817971589032,1.0
0.9144697720515361,1.0
0.9145028080607862,1.0
0.9153287082920383,1.0
0.9153617443012884,1.0
0.9161546085232903,1.0
0.9161876445325404,1.0
0.919573835480674,1.0
0.919606871489924,1.0
0.9238024446646845,1.0
0.9238354806739346,1.0
0.9255037991410637,1.0
0.9255368351503138,1.0
0.927188635612818,1.0
0.927221671622068,1.0
0.931995374958705,1.0
0.9320284109679551,1.0
0.9357614800132144,1.0
0.9357945160224644,1.0
0.9370168483647175,1.0
0.9370498843739676,1.0
0.9523455566567559,1.0
0.952378592666006,1.0
0.9578790882061446,1.0
0.9579121242153947,1.0
0.9595474066732739,1.0
0.959580442682524,1.0
0.9639577139081599,1.0
0.96399074991741,1.0
0.9670135447637925,1.0
0.9670465807730426,1.0
0.9775024777006938,1.0
0.9775355137099438,1.0
0.9797654443343244,1.0
0.9797984803435745,1.0
0.9839114634952097,1.0
0.9839444995044598,1.0
0.9873967624710935,1.0
0.9874297984803436,1.0
0.9879583746283449,1.0
0.987991410637595,1.0
0.9979187314172447,1.0
0.9979517674264948,1.0
1.0,1.0
