,fpr,tpr
0,0.0,0.0
1,0.0,0.00031969309462915604
2,0.0,0.010869565217391304
3,1.6965830816735095e-05,0.010869565217391304
4,1.6965830816735095e-05,0.03132992327365729
5,3.393166163347019e-05,0.03132992327365729
6,3.393166163347019e-05,0.03580562659846547
7,5.0897492450205286e-05,0.03580562659846547
8,5.0897492450205286e-05,0.04315856777493606
9,6.786332326694038e-05,0.04315856777493606
10,6.786332326694038e-05,0.046675191815856776
11,6.786332326694038e-05,0.04731457800511509
12,6.786332326694038e-05,0.09111253196930946
13,8.482915408367548e-05,0.09111253196930946
14,8.482915408367548e-05,0.1090153452685422
15,0.00010179498490041057,0.1090153452685422
16,0.00010179498490041057,0.11349104859335038
17,0.00011876081571714567,0.11349104859335038
18,0.00011876081571714567,0.11445012787723785
19,0.00013572664653388076,0.11445012787723785
20,0.00013572664653388076,0.11796675191815857
21,0.00015269247735061586,0.11796675191815857
22,0.00015269247735061586,0.11860613810741688
23,0.00016965830816735095,0.11860613810741688
24,0.00016965830816735095,0.12116368286445013
25,0.00018662413898408605,0.12116368286445013
26,0.00018662413898408605,0.12404092071611253
27,0.00020358996980082114,0.12404092071611253
28,0.00020358996980082114,0.1272378516624041
29,0.00022055580061755624,0.1272378516624041
30,0.00022055580061755624,0.135230179028133
31,0.00023752163143429133,0.135230179028133
32,0.00023752163143429133,0.13682864450127877
33,0.00025448746225102643,0.13682864450127877
34,0.00025448746225102643,0.14002557544757033
35,0.0002714532930677615,0.14002557544757033
36,0.0002714532930677615,0.14130434782608695
37,0.0003053849547012317,0.14130434782608695
38,0.0003053849547012317,0.14546035805626598
39,0.0003223507855179668,0.14546035805626598
40,0.0003223507855179668,0.14673913043478262
41,0.0003393166163347019,0.14673913043478262
42,0.0003393166163347019,0.1483375959079284
43,0.000356282447151437,0.1483375959079284
44,0.000356282447151437,0.1518542199488491
45,0.0003732482779681721,0.1518542199488491
46,0.0003732482779681721,0.15441176470588236
47,0.0003902141087849072,0.15441176470588236
48,0.0003902141087849072,0.16176470588235295
49,0.0004071799396016423,0.16176470588235295
50,0.0004071799396016423,0.16240409207161124
51,0.0004241457704183774,0.16240409207161124
52,0.0004241457704183774,0.1636828644501279
53,0.0004411116012351125,0.1636828644501279
54,0.0004411116012351125,0.16432225063938619
55,0.00045807743205184757,0.16432225063938619
56,0.00045807743205184757,0.170076726342711
57,0.00047504326286858267,0.170076726342711
58,0.00047504326286858267,0.17263427109974425
59,0.0004920090936853178,0.17263427109974425
60,0.0004920090936853178,0.17359335038363172
61,0.0005089749245020529,0.17359335038363172
62,0.0005089749245020529,0.17742966751918157
63,0.000525940755318788,0.17742966751918157
64,0.000525940755318788,0.17870843989769822
65,0.0005598724169522582,0.17870843989769822
66,0.0005598724169522582,0.18190537084398978
67,0.0005768382477689932,0.18190537084398978
68,0.0005768382477689932,0.18222506393861893
69,0.0005938040785857284,0.18222506393861893
70,0.0005938040785857284,0.18638107416879796
71,0.0006107699094024634,0.18638107416879796
72,0.0006107699094024634,0.18702046035805628
73,0.0006277357402191986,0.18702046035805628
74,0.0006277357402191986,0.1882992327365729
75,0.0006447015710359336,0.1882992327365729
76,0.0006447015710359336,0.1889386189258312
77,0.0006786332326694038,0.1889386189258312
78,0.0006786332326694038,0.18957800511508952
79,0.000695599063486139,0.18957800511508952
80,0.000695599063486139,0.19373401534526855
81,0.0007295307251196091,0.19373401534526855
82,0.0007295307251196091,0.19725063938618925
83,0.0007464965559363442,0.19725063938618925
84,0.0007464965559363442,0.1991687979539642
85,0.0007464965559363442,0.19980818414322252
86,0.0007464965559363442,0.20076726342711
87,0.0007634623867530793,0.20076726342711
88,0.0007634623867530793,0.204923273657289
89,0.0007804282175698144,0.204923273657289
90,0.0007804282175698144,0.20620204603580564
91,0.0007973940483865495,0.20620204603580564
92,0.0007973940483865495,0.20684143222506393
93,0.0008143598792032846,0.20684143222506393
94,0.0008143598792032846,0.20971867007672634
95,0.0008313257100200197,0.20971867007672634
96,0.0008313257100200197,0.21195652173913043
97,0.0008482915408367548,0.21195652173913043
98,0.0008482915408367548,0.21323529411764705
99,0.0008652573716534899,0.21323529411764705
100,0.0008652573716534899,0.21611253196930946
101,0.000882223202470225,0.21611253196930946
102,0.000882223202470225,0.21739130434782608
103,0.0008991890332869601,0.21739130434782608
104,0.0008991890332869601,0.21835038363171355
105,0.0009161548641036951,0.21835038363171355
106,0.0009161548641036951,0.21898976982097187
107,0.0009500865257371653,0.21898976982097187
108,0.0009500865257371653,0.21930946291560102
109,0.0009670523565539005,0.21930946291560102
110,0.0009670523565539005,0.22186700767263426
111,0.0009840181873706356,0.22186700767263426
112,0.0009840181873706356,0.2231457800511509
113,0.0010009840181873706,0.2231457800511509
114,0.0010009840181873706,0.225383631713555
115,0.0010179498490041057,0.225383631713555
116,0.0010179498490041057,0.2260230179028133
117,0.0010349156798208409,0.2260230179028133
118,0.0010349156798208409,0.22794117647058823
119,0.001068847341454311,0.22794117647058823
120,0.001068847341454311,0.22985933503836317
121,0.001085813172271046,0.22985933503836317
122,0.001085813172271046,0.2304987212276215
123,0.0011027790030877812,0.2304987212276215
124,0.0011027790030877812,0.23369565217391305
125,0.0011197448339045164,0.23369565217391305
126,0.0011197448339045164,0.2340153452685422
127,0.0011367106647212513,0.2340153452685422
128,0.0011367106647212513,0.23689258312020461
129,0.0011536764955379865,0.23689258312020461
130,0.0011536764955379865,0.24232736572890026
131,0.0011706423263547216,0.24232736572890026
132,0.0011706423263547216,0.24456521739130435
133,0.0011876081571714568,0.24456521739130435
134,0.0011876081571714568,0.24680306905370844
135,0.0012045739879881917,0.24680306905370844
136,0.0012045739879881917,0.24744245524296676
137,0.0012215398188049269,0.24744245524296676
138,0.0012215398188049269,0.2477621483375959
139,0.001238505649621662,0.2477621483375959
140,0.001238505649621662,0.2484015345268542
141,0.0012554714804383972,0.2484015345268542
142,0.0012554714804383972,0.24968030690537085
143,0.001272437311255132,0.24968030690537085
144,0.001272437311255132,0.25
145,0.0012894031420718672,0.25
146,0.0012894031420718672,0.2506393861892583
147,0.0013063689728886024,0.2506393861892583
148,0.0013063689728886024,0.25095907928388744
149,0.0013403006345220725,0.25095907928388744
150,0.0013403006345220725,0.2531969309462916
151,0.0013572664653388076,0.2531969309462916
152,0.0013572664653388076,0.25415601023017903
153,0.0013742322961555428,0.25415601023017903
154,0.0013742322961555428,0.2595907928388747
155,0.001391198126972278,0.2595907928388747
156,0.001391198126972278,0.2631074168797954
157,0.0014081639577890129,0.2631074168797954
158,0.0014081639577890129,0.2647058823529412
159,0.001425129788605748,0.2647058823529412
160,0.001425129788605748,0.2679028132992327
161,0.0014420956194224831,0.2679028132992327
162,0.0014420956194224831,0.2695012787723785
163,0.0014590614502392183,0.2695012787723785
164,0.0014590614502392183,0.27014066496163686
165,0.0014760272810559532,0.27014066496163686
166,0.0014760272810559532,0.2710997442455243
167,0.0014929931118726884,0.2710997442455243
168,0.0014929931118726884,0.2717391304347826
169,0.0015269247735061587,0.2717391304347826
170,0.0015269247735061587,0.27205882352941174
171,0.0015438906043228936,0.27205882352941174
172,0.0015438906043228936,0.27461636828644503
173,0.0015608564351396288,0.27461636828644503
174,0.0015608564351396288,0.27525575447570333
175,0.001577822265956364,0.27525575447570333
176,0.001577822265956364,0.27781329923273657
177,0.001594788096773099,0.27781329923273657
178,0.001594788096773099,0.28228900255754474
179,0.0016287197584065691,0.28228900255754474
180,0.0016287197584065691,0.28324808184143224
181,0.0016626514200400394,0.28324808184143224
182,0.0016626514200400394,0.28388746803069054
183,0.0016796172508567744,0.28388746803069054
184,0.0016796172508567744,0.2851662404092072
185,0.0016965830816735095,0.2851662404092072
186,0.0016965830816735095,0.2858056265984655
187,0.0017135489124902447,0.2858056265984655
188,0.0017135489124902447,0.2870843989769821
189,0.0017305147433069798,0.2870843989769821
190,0.0017305147433069798,0.2874040920716113
191,0.0017474805741237148,0.2874040920716113
192,0.0017474805741237148,0.28868286445012786
193,0.001781412235757185,0.28868286445012786
194,0.001781412235757185,0.289002557544757
195,0.0017983780665739202,0.289002557544757
196,0.0017983780665739202,0.28964194373401536
197,0.0018492755590241254,0.28964194373401536
198,0.0018492755590241254,0.2899616368286445
199,0.0018662413898408606,0.2899616368286445
200,0.0018662413898408606,0.2906010230179028
201,0.0018832072206575955,0.2906010230179028
202,0.0018832072206575955,0.29251918158567775
203,0.0019001730514743307,0.29251918158567775
204,0.0019001730514743307,0.2928388746803069
205,0.0019171388822910658,0.2928388746803069
206,0.0019171388822910658,0.2944373401534527
207,0.001934104713107801,0.2944373401534527
208,0.001934104713107801,0.29539641943734013
209,0.001951070543924536,0.29539641943734013
210,0.001951070543924536,0.2969948849104859
211,0.0019680363747412713,0.2969948849104859
212,0.0019680363747412713,0.29827365728900257
213,0.0020189338671914763,0.29827365728900257
214,0.0020189338671914763,0.29955242966751916
215,0.0020528655288249466,0.29955242966751916
216,0.0020528655288249466,0.3008312020460358
217,0.0020698313596416817,0.3008312020460358
218,0.0020698313596416817,0.30210997442455245
219,0.002086797190458417,0.30210997442455245
220,0.002086797190458417,0.30338874680306904
221,0.002103763021275152,0.30338874680306904
222,0.002103763021275152,0.3037084398976982
223,0.0021207288520918867,0.3037084398976982
224,0.0021207288520918867,0.30434782608695654
225,0.002137694682908622,0.30434782608695654
226,0.002137694682908622,0.3101023017902813
227,0.002154660513725357,0.3101023017902813
228,0.002154660513725357,0.3110613810741688
229,0.002171626344542092,0.3110613810741688
230,0.002171626344542092,0.31138107416879796
231,0.0021885921753588273,0.31138107416879796
232,0.0021885921753588273,0.31202046035805625
233,0.0022055580061755625,0.31202046035805625
234,0.0022055580061755625,0.3126598465473146
235,0.002239489667809033,0.3126598465473146
236,0.002239489667809033,0.3139386189258312
237,0.0022564554986257675,0.3139386189258312
238,0.0022564554986257675,0.3148976982097187
239,0.002290387160259238,0.3148976982097187
240,0.002290387160259238,0.3177749360613811
241,0.002307352991075973,0.3177749360613811
242,0.002307352991075973,0.3180946291560102
243,0.002324318821892708,0.3180946291560102
244,0.002324318821892708,0.31841432225063937
245,0.0023921821451596483,0.31841432225063937
246,0.0023921821451596483,0.31937340153452687
247,0.0024091479759763834,0.31937340153452687
248,0.0024091479759763834,0.3203324808184143
249,0.002477011299243324,0.3203324808184143
250,0.002477011299243324,0.32065217391304346
251,0.002493977130060059,0.32065217391304346
252,0.002493977130060059,0.3219309462915601
253,0.002527908791693529,0.3219309462915601
254,0.002527908791693529,0.32289002557544755
255,0.002544874622510264,0.32289002557544755
256,0.002544874622510264,0.32384910485933505
257,0.0025618404533269993,0.32384910485933505
258,0.0025618404533269993,0.3241687979539642
259,0.0025788062841437345,0.3241687979539642
260,0.0025788062841437345,0.3248081841432225
261,0.0026127379457772048,0.3248081841432225
262,0.0026127379457772048,0.32576726342711
263,0.00262970377659394,0.32576726342711
264,0.00262970377659394,0.3264066496163683
265,0.002646669607410675,0.3264066496163683
266,0.002646669607410675,0.3270460358056266
267,0.00266363543822741,0.3270460358056266
268,0.00266363543822741,0.3283248081841432
269,0.00269756709986088,0.3283248081841432
270,0.00269756709986088,0.33024296675191817
271,0.0027145329306776152,0.33024296675191817
272,0.0027145329306776152,0.3312020460358056
273,0.0027314987614943504,0.3312020460358056
274,0.0027314987614943504,0.33152173913043476
275,0.0027484645923110855,0.33152173913043476
276,0.0027484645923110855,0.33184143222506396
277,0.0027654304231278207,0.33184143222506396
278,0.0027654304231278207,0.3328005115089514
279,0.002782396253944556,0.3328005115089514
280,0.002782396253944556,0.33312020460358055
281,0.002833293746394761,0.33312020460358055
282,0.002833293746394761,0.3334398976982097
283,0.002850259577211496,0.3334398976982097
284,0.002850259577211496,0.33407928388746805
285,0.002867225408028231,0.33407928388746805
286,0.002867225408028231,0.33471867007672634
287,0.0028841912388449663,0.33471867007672634
288,0.0028841912388449663,0.3350383631713555
289,0.0029011570696617014,0.3350383631713555
290,0.0029011570696617014,0.3382352941176471
291,0.0029350887312951713,0.3382352941176471
292,0.0029350887312951713,0.3388746803069054
293,0.0029520545621119065,0.3388746803069054
294,0.0029520545621119065,0.33951406649616367
295,0.003002952054562112,0.33951406649616367
296,0.003002952054562112,0.3414322250639386
297,0.0030538495470123174,0.3414322250639386
298,0.0030538495470123174,0.34175191815856776
299,0.0030877812086457872,0.34175191815856776
300,0.0030877812086457872,0.34271099744245526
301,0.0031047470394625224,0.34271099744245526
302,0.0031047470394625224,0.3436700767263427
303,0.0031217128702792575,0.3436700767263427
304,0.0031217128702792575,0.34398976982097185
305,0.0031386787010959927,0.34398976982097185
306,0.0031386787010959927,0.34494884910485935
307,0.003155644531912728,0.34494884910485935
308,0.003155644531912728,0.3459079283887468
309,0.003172610362729463,0.3459079283887468
310,0.003172610362729463,0.3510230179028133
311,0.003206542024362933,0.3510230179028133
312,0.003206542024362933,0.3516624040920716
313,0.003240473685996403,0.3516624040920716
314,0.003240473685996403,0.35358056265984655
315,0.0032574395168131383,0.35358056265984655
316,0.0032574395168131383,0.35421994884910485
317,0.0032744053476298734,0.35421994884910485
318,0.0032744053476298734,0.3561381074168798
319,0.0032913711784466086,0.3561381074168798
320,0.0032913711784466086,0.3577365728900256
321,0.003325302840080079,0.3577365728900256
322,0.003325302840080079,0.358695652173913
323,0.003342268670896814,0.358695652173913
324,0.003342268670896814,0.3590153452685422
325,0.0033592345017135487,0.3590153452685422
326,0.0033592345017135487,0.3596547314578005
327,0.003376200332530284,0.3596547314578005
328,0.003376200332530284,0.3599744245524297
329,0.003393166163347019,0.3599744245524297
330,0.003393166163347019,0.3612531969309463
331,0.003410131994163754,0.3612531969309463
332,0.003410131994163754,0.3631713554987212
333,0.0034270978249804893,0.3631713554987212
334,0.0034270978249804893,0.36445012787723785
335,0.0034440636557972245,0.36445012787723785
336,0.0034440636557972245,0.364769820971867
337,0.0034949611482474295,0.364769820971867
338,0.0034949611482474295,0.3654092071611253
339,0.00356282447151437,0.3654092071611253
340,0.00356282447151437,0.3657289002557545
341,0.0035797903023311053,0.3657289002557545
342,0.0035797903023311053,0.3663682864450128
343,0.0036137219639645756,0.3663682864450128
344,0.0036137219639645756,0.3670076726342711
345,0.0036306877947813103,0.3670076726342711
346,0.0036306877947813103,0.36732736572890023
347,0.0036476536255980454,0.36732736572890023
348,0.0036476536255980454,0.3698849104859335
349,0.0036646194564147806,0.3698849104859335
350,0.0036646194564147806,0.3705242966751918
351,0.003715516948864986,0.3705242966751918
352,0.003715516948864986,0.37084398976982097
353,0.0037494486104984563,0.37084398976982097
354,0.0037494486104984563,0.3711636828644501
355,0.003783380272131926,0.3711636828644501
356,0.003783380272131926,0.3718030690537084
357,0.0038003461029486613,0.3718030690537084
358,0.0038003461029486613,0.37372122762148335
359,0.0038173119337653965,0.37372122762148335
360,0.0038173119337653965,0.3743606138107417
361,0.0038512435953988668,0.3743606138107417
362,0.0038512435953988668,0.37468030690537085
363,0.003868209426215602,0.37468030690537085
364,0.003868209426215602,0.37627877237851665
365,0.003868209426215602,0.37691815856777494
366,0.003868209426215602,0.3772378516624041
367,0.003885175257032337,0.3772378516624041
368,0.003885175257032337,0.3781969309462916
369,0.003902141087849072,0.3781969309462916
370,0.003902141087849072,0.3788363171355499
371,0.003919106918665807,0.3788363171355499
372,0.003919106918665807,0.3804347826086957
373,0.0039360727494825425,0.3804347826086957
374,0.0039360727494825425,0.38107416879795397
375,0.003953038580299277,0.38107416879795397
376,0.003953038580299277,0.3813938618925831
377,0.003970004411116012,0.3813938618925831
378,0.003970004411116012,0.38235294117647056
379,0.0039869702419327475,0.38235294117647056
380,0.0039869702419327475,0.38267263427109977
381,0.004003936072749482,0.38267263427109977
382,0.004003936072749482,0.38331202046035806
383,0.004020901903566218,0.38331202046035806
384,0.004020901903566218,0.3836317135549872
385,0.0040378677343829526,0.3836317135549872
386,0.0040378677343829526,0.38395140664961636
387,0.004071799396016423,0.38395140664961636
388,0.004071799396016423,0.385230179028133
389,0.004122696888466628,0.385230179028133
390,0.004122696888466628,0.38554987212276215
391,0.0041396627192833635,0.38554987212276215
392,0.0041396627192833635,0.3858695652173913
393,0.004156628550100098,0.3858695652173913
394,0.004156628550100098,0.3865089514066496
395,0.004173594380916834,0.3865089514066496
396,0.004173594380916834,0.3874680306905371
397,0.004207526042550304,0.3874680306905371
398,0.004207526042550304,0.38778772378516624
399,0.004224491873367039,0.38778772378516624
400,0.004224491873367039,0.3887468030690537
401,0.0042414577041837735,0.3887468030690537
402,0.0042414577041837735,0.3903452685421995
403,0.004258423535000509,0.3903452685421995
404,0.004258423535000509,0.3906649616368286
405,0.004292355196633979,0.3906649616368286
406,0.004292355196633979,0.3909846547314578
407,0.00432628685826745,0.3909846547314578
408,0.00432628685826745,0.3916240409207161
409,0.004377184350717655,0.3916240409207161
410,0.004377184350717655,0.3922634271099744
411,0.004394150181534389,0.3922634271099744
412,0.004394150181534389,0.39258312020460356
413,0.004411116012351125,0.39258312020460356
414,0.004411116012351125,0.3929028132992327
415,0.00442808184316786,0.3929028132992327
416,0.00442808184316786,0.3938618925831202
417,0.004445047673984595,0.3938618925831202
418,0.004445047673984595,0.3945012787723785
419,0.004512910997251535,0.3945012787723785
420,0.004512910997251535,0.39482097186700765
421,0.004546842658885005,0.39482097186700765
422,0.004546842658885005,0.39578005115089515
423,0.004563808489701741,0.39578005115089515
424,0.004563808489701741,0.3960997442455243
425,0.004580774320518476,0.3960997442455243
426,0.004580774320518476,0.3967391304347826
427,0.004614705982151946,0.3967391304347826
428,0.004614705982151946,0.3976982097186701
429,0.004665603474602151,0.3976982097186701
430,0.004665603474602151,0.3983375959079284
431,0.0046825693054188865,0.3983375959079284
432,0.0046825693054188865,0.40025575447570333
433,0.004716500967052357,0.40025575447570333
434,0.004716500967052357,0.40153452685422
435,0.004750432628685827,0.40153452685422
436,0.004750432628685827,0.4024936061381074
437,0.004818295951952767,0.4024936061381074
438,0.004818295951952767,0.4031329923273657
439,0.004835261782769502,0.4031329923273657
440,0.004835261782769502,0.40345268542199486
441,0.004852227613586237,0.40345268542199486
442,0.004852227613586237,0.4040920716112532
443,0.004869193444402973,0.4040920716112532
444,0.004869193444402973,0.40601023017902815
445,0.004886159275219707,0.40601023017902815
446,0.004886159275219707,0.40728900255754474
447,0.004903125106036443,0.40728900255754474
448,0.004903125106036443,0.4079283887468031
449,0.004920090936853178,0.4079283887468031
450,0.004920090936853178,0.40824808184143224
451,0.004954022598486648,0.40824808184143224
452,0.004954022598486648,0.409846547314578
453,0.004970988429303383,0.409846547314578
454,0.004970988429303383,0.41048593350383633
455,0.005004920090936853,0.41048593350383633
456,0.005004920090936853,0.4108056265984655
457,0.005021885921753589,0.4108056265984655
458,0.005021885921753589,0.4120843989769821
459,0.005038851752570323,0.4120843989769821
460,0.005038851752570323,0.4124040920716113
461,0.005072783414203794,0.4124040920716113
462,0.005072783414203794,0.4127237851662404
463,0.005089749245020528,0.4127237851662404
464,0.005089749245020528,0.41304347826086957
465,0.005106715075837264,0.41304347826086957
466,0.005106715075837264,0.41368286445012786
467,0.005157612568287469,0.41368286445012786
468,0.005157612568287469,0.41464194373401536
469,0.0051745783991042045,0.41464194373401536
470,0.0051745783991042045,0.4149616368286445
471,0.005191544229920939,0.4149616368286445
472,0.005191544229920939,0.4162404092071611
473,0.0052254758915544096,0.4162404092071611
474,0.0052254758915544096,0.4171994884910486
475,0.005242441722371144,0.4171994884910486
476,0.005242441722371144,0.4178388746803069
477,0.0052763733840046146,0.4178388746803069
478,0.0052763733840046146,0.4187979539641944
479,0.005310305045638085,0.4187979539641944
480,0.005310305045638085,0.41911764705882354
481,0.005344236707271555,0.41911764705882354
482,0.005344236707271555,0.41975703324808183
483,0.00536120253808829,0.41975703324808183
484,0.00536120253808829,0.420076726342711
485,0.0053781683689050255,0.420076726342711
486,0.0053781683689050255,0.4210358056265985
487,0.00539513419972176,0.4210358056265985
488,0.00539513419972176,0.42231457800511507
489,0.005446031692171966,0.42231457800511507
490,0.005446031692171966,0.42455242966751916
491,0.005462997522988701,0.42455242966751916
492,0.005462997522988701,0.42487212276214836
493,0.005496929184622171,0.42487212276214836
494,0.005496929184622171,0.4251918158567775
495,0.005530860846255641,0.4251918158567775
496,0.005530860846255641,0.42551150895140666
497,0.005581758338705846,0.42551150895140666
498,0.005581758338705846,0.42615089514066495
499,0.005598724169522581,0.42615089514066495
500,0.005598724169522581,0.4274296675191816
501,0.005649621661972787,0.4274296675191816
502,0.005649621661972787,0.42774936061381075
503,0.005683553323606257,0.42774936061381075
504,0.005683553323606257,0.4280690537084399
505,0.005734450816056462,0.4280690537084399
506,0.005734450816056462,0.4287084398976982
507,0.005802314139323403,0.4287084398976982
508,0.005802314139323403,0.4296675191815857
509,0.005819279970140138,0.4296675191815857
510,0.005819279970140138,0.4309462915601023
511,0.005836245800956873,0.4309462915601023
512,0.005836245800956873,0.43158567774936063
513,0.005870177462590343,0.43158567774936063
514,0.005870177462590343,0.4325447570332481
515,0.005887143293407078,0.4325447570332481
516,0.005887143293407078,0.43318414322250637
517,0.005938040785857283,0.43318414322250637
518,0.005938040785857283,0.4354219948849105
519,0.0059719724474907535,0.4354219948849105
520,0.0059719724474907535,0.4360613810741688
521,0.006039835770757694,0.4360613810741688
522,0.006039835770757694,0.4376598465473146
523,0.006056801601574429,0.4376598465473146
524,0.006056801601574429,0.43797953964194375
525,0.006073767432391164,0.43797953964194375
526,0.006073767432391164,0.43861892583120204
527,0.006107699094024635,0.43861892583120204
528,0.006107699094024635,0.440537084398977
529,0.0061246649248413694,0.440537084398977
530,0.0061246649248413694,0.44085677749360613
531,0.00615859658647484,0.44085677749360613
532,0.00615859658647484,0.4411764705882353
533,0.0061755624172915745,0.4411764705882353
534,0.0061755624172915745,0.44149616368286443
535,0.00619252824810831,0.44149616368286443
536,0.00619252824810831,0.44181585677749363
537,0.006277357402191985,0.44181585677749363
538,0.006277357402191985,0.4421355498721228
539,0.00629432323300872,0.4421355498721228
540,0.00629432323300872,0.44341432225063937
541,0.006311289063825456,0.44341432225063937
542,0.006311289063825456,0.4440537084398977
543,0.00632825489464219,0.4440537084398977
544,0.00632825489464219,0.44437340153452687
545,0.006413084048725866,0.44437340153452687
546,0.006413084048725866,0.444693094629156
547,0.006480947371992806,0.444693094629156
548,0.006480947371992806,0.44501278772378516
549,0.006497913202809542,0.44501278772378516
550,0.006497913202809542,0.4459718670076726
551,0.006548810695259747,0.4459718670076726
552,0.006548810695259747,0.44789002557544755
553,0.006565776526076482,0.44789002557544755
554,0.006565776526076482,0.44820971867007675
555,0.006582742356893217,0.44820971867007675
556,0.006582742356893217,0.4485294117647059
557,0.006599708187709952,0.4485294117647059
558,0.006599708187709952,0.44884910485933505
559,0.006650605680160158,0.44884910485933505
560,0.006650605680160158,0.4491687979539642
561,0.0066675715109768925,0.4491687979539642
562,0.0066675715109768925,0.44948849104859334
563,0.006701503172610363,0.44948849104859334
564,0.006701503172610363,0.4498081841432225
565,0.006769366495877303,0.4498081841432225
566,0.006769366495877303,0.45044757033248084
567,0.006769366495877303,0.45108695652173914
568,0.006820263988327508,0.45108695652173914
569,0.006820263988327508,0.4514066496163683
570,0.006837229819144243,0.4514066496163683
571,0.006837229819144243,0.4520460358056266
572,0.006854195649960979,0.4520460358056266
573,0.006854195649960979,0.4523657289002558
574,0.006905093142411184,0.4523657289002558
575,0.006905093142411184,0.4530051150895141
576,0.006922058973227919,0.4530051150895141
577,0.006922058973227919,0.45364450127877237
578,0.006922058973227919,0.4539641943734015
579,0.006939024804044654,0.4539641943734015
580,0.006939024804044654,0.4562020460358056
581,0.006972956465678124,0.4562020460358056
582,0.006972956465678124,0.4578005115089514
583,0.007006888127311595,0.4578005115089514
584,0.007006888127311595,0.45812020460358055
585,0.007023853958128329,0.45812020460358055
586,0.007023853958128329,0.4593989769820972
587,0.007040819788945065,0.4593989769820972
588,0.007040819788945065,0.45971867007672634
589,0.00712564894302874,0.45971867007672634
590,0.00712564894302874,0.4600383631713555
591,0.007142614773845475,0.4600383631713555
592,0.007142614773845475,0.460997442455243
593,0.007176546435478945,0.460997442455243
594,0.007176546435478945,0.46131713554987214
595,0.007193512266295681,0.46131713554987214
596,0.007193512266295681,0.4616368286445013
597,0.0072613755895626205,0.4616368286445013
598,0.0072613755895626205,0.46195652173913043
599,0.007278341420379356,0.46195652173913043
600,0.007278341420379356,0.4622762148337596
601,0.007295307251196091,0.4622762148337596
602,0.007295307251196091,0.4625959079283887
603,0.007312273082012826,0.4625959079283887
604,0.007312273082012826,0.4629156010230179
605,0.0073631705744630314,0.4629156010230179
606,0.0073631705744630314,0.4635549872122762
607,0.007380136405279766,0.4635549872122762
608,0.007380136405279766,0.46451406649616367
609,0.007397102236096502,0.46451406649616367
610,0.007397102236096502,0.465153452685422
611,0.007431033897729972,0.465153452685422
612,0.007431033897729972,0.46547314578005117
613,0.007481931390180177,0.46547314578005117
614,0.007481931390180177,0.46611253196930946
615,0.007515863051813647,0.46611253196930946
616,0.007515863051813647,0.4664322250639386
617,0.007583726375080588,0.4664322250639386
618,0.007583726375080588,0.46675191815856776
619,0.007600692205897323,0.46675191815856776
620,0.007600692205897323,0.4673913043478261
621,0.007651589698347528,0.4673913043478261
622,0.007651589698347528,0.46771099744245526
623,0.007736418852431204,0.46771099744245526
624,0.007736418852431204,0.4680306905370844
625,0.007753384683247939,0.4680306905370844
626,0.007753384683247939,0.4686700767263427
627,0.007770350514064674,0.4686700767263427
628,0.007770350514064674,0.46898976982097185
629,0.007787316344881409,0.46898976982097185
630,0.007787316344881409,0.46930946291560105
631,0.007804282175698144,0.46930946291560105
632,0.007804282175698144,0.4702685421994885
633,0.007821248006514878,0.4702685421994885
634,0.007821248006514878,0.4709079283887468
635,0.007889111329781819,0.4709079283887468
636,0.007889111329781819,0.4718670076726343
637,0.007940008822232024,0.4718670076726343
638,0.007940008822232024,0.47218670076726343
639,0.00795697465304876,0.47218670076726343
640,0.00795697465304876,0.47346547314578
641,0.007973940483865495,0.47346547314578
642,0.007973940483865495,0.47474424552429667
643,0.00799090631468223,0.47474424552429667
644,0.0080248379763157,0.47474424552429667
645,0.00805876963794917,0.47474424552429667
646,0.00805876963794917,0.4773017902813299
647,0.00812663296121611,0.4773017902813299
648,0.00812663296121611,0.4782608695652174
649,0.008143598792032846,0.4782608695652174
650,0.008143598792032846,0.47858056265984655
651,0.008177530453666317,0.47858056265984655
652,0.008177530453666317,0.479539641943734
653,0.008228427946116522,0.479539641943734
654,0.008228427946116522,0.48017902813299235
655,0.008313257100200196,0.48017902813299235
656,0.008313257100200196,0.4804987212276215
657,0.008330222931016932,0.4804987212276215
658,0.008330222931016932,0.4811381074168798
659,0.008347188761833668,0.4811381074168798
660,0.008347188761833668,0.48145780051150894
661,0.008364154592650401,0.48145780051150894
662,0.008364154592650401,0.4820971867007673
663,0.008465949577550813,0.4820971867007673
664,0.008465949577550813,0.48241687979539644
665,0.008482915408367547,0.48241687979539644
666,0.008482915408367547,0.4840153452685422
667,0.008550778731634488,0.4840153452685422
668,0.008550778731634488,0.4843350383631714
669,0.008584710393267959,0.4843350383631714
670,0.008584710393267959,0.4846547314578005
671,0.008601676224084693,0.4846547314578005
672,0.008601676224084693,0.48561381074168797
673,0.008703471208985104,0.48561381074168797
674,0.008703471208985104,0.4859335038363171
675,0.00875436870143531,0.4859335038363171
676,0.00875436870143531,0.4862531969309463
677,0.008788300363068779,0.4862531969309463
678,0.008788300363068779,0.48657289002557547
679,0.008805266193885514,0.48657289002557547
680,0.008805266193885514,0.48785166240409206
681,0.00882223202470225,0.48785166240409206
682,0.00882223202470225,0.4881713554987212
683,0.00885616368633572,0.4881713554987212
684,0.00885616368633572,0.4884910485933504
685,0.00889009534796919,0.4884910485933504
686,0.00889009534796919,0.48881074168797956
687,0.008957958671236131,0.48881074168797956
688,0.008957958671236131,0.48945012787723785
689,0.0089918903328696,0.48945012787723785
690,0.0089918903328696,0.4904092071611253
691,0.009059753656136541,0.4904092071611253
692,0.009059753656136541,0.4907289002557545
693,0.009076719486953277,0.4907289002557545
694,0.009076719486953277,0.4913682864450128
695,0.00909368531777001,0.4913682864450128
696,0.00909368531777001,0.49168797953964194
697,0.009127616979403482,0.49168797953964194
698,0.009127616979403482,0.4920076726342711
699,0.009144582810220216,0.4920076726342711
700,0.009144582810220216,0.4929667519181586
701,0.009161548641036951,0.4929667519181586
702,0.009161548641036951,0.49328644501278773
703,0.009195480302670422,0.49328644501278773
704,0.009195480302670422,0.4936061381074169
705,0.009246377795120627,0.4936061381074169
706,0.009246377795120627,0.49392583120204603
707,0.009263343625937363,0.49392583120204603
708,0.009263343625937363,0.4948849104859335
709,0.009314241118387568,0.4948849104859335
710,0.009314241118387568,0.49584398976982097
711,0.009331206949204302,0.49584398976982097
712,0.009331206949204302,0.4971227621483376
713,0.009348172780021037,0.4971227621483376
714,0.009348172780021037,0.49744245524296676
715,0.009365138610837773,0.49744245524296676
716,0.009365138610837773,0.4977621483375959
717,0.009382104441654509,0.4977621483375959
718,0.009382104441654509,0.4984015345268542
719,0.009399070272471242,0.4984015345268542
720,0.009399070272471242,0.4993606138107417
721,0.009416036103287978,0.4993606138107417
722,0.009416036103287978,0.5009590792838875
723,0.009433001934104714,0.5009590792838875
724,0.009433001934104714,0.5012787723785166
725,0.009483899426554919,0.5012787723785166
726,0.009483899426554919,0.5015984654731458
727,0.00955176274982186,0.5015984654731458
728,0.00955176274982186,0.5025575447570333
729,0.009585694411455329,0.5025575447570333
730,0.009585694411455329,0.5035166240409207
731,0.009602660242272064,0.5035166240409207
732,0.009602660242272064,0.5044757033248082
733,0.009670523565539005,0.5044757033248082
734,0.009670523565539005,0.506074168797954
735,0.009704455227172474,0.506074168797954
736,0.009704455227172474,0.5063938618925832
737,0.009738386888805945,0.5063938618925832
738,0.009738386888805945,0.5070332480818415
739,0.009772318550439415,0.5070332480818415
740,0.009772318550439415,0.5073529411764706
741,0.00978928438125615,0.5073529411764706
742,0.00978928438125615,0.5079923273657289
743,0.009806250212072886,0.5079923273657289
744,0.009806250212072886,0.5083120204603581
745,0.009874113535339825,0.5083120204603581
746,0.009874113535339825,0.5086317135549873
747,0.00989107936615656,0.5086317135549873
748,0.00989107936615656,0.5089514066496164
749,0.009908045196973296,0.5089514066496164
750,0.009908045196973296,0.5092710997442456
751,0.009925011027790032,0.5092710997442456
752,0.009925011027790032,0.5095907928388747
753,0.009941976858606765,0.5095907928388747
754,0.009941976858606765,0.5111892583120204
755,0.009975908520240237,0.5111892583120204
756,0.009975908520240237,0.5115089514066496
757,0.010026806012690442,0.5115089514066496
758,0.010026806012690442,0.5118286445012787
759,0.010043771843507177,0.5118286445012787
760,0.010043771843507177,0.5121483375959079
761,0.010077703505140647,0.5121483375959079
762,0.010077703505140647,0.512468030690537
763,0.010128600997590852,0.512468030690537
764,0.010128600997590852,0.5131074168797954
765,0.010179498490041057,0.5131074168797954
766,0.010179498490041057,0.5137468030690537
767,0.010213430151674528,0.5137468030690537
768,0.010213430151674528,0.5147058823529411
769,0.010264327644124733,0.5147058823529411
770,0.010264327644124733,0.5150255754475703
771,0.010264327644124733,0.5156649616368286
772,0.010264327644124733,0.5159846547314578
773,0.010281293474941468,0.5159846547314578
774,0.010281293474941468,0.5166240409207161
775,0.010332190967391673,0.5166240409207161
776,0.010332190967391673,0.5172634271099744
777,0.010349156798208409,0.5172634271099744
778,0.010349156798208409,0.5179028132992327
779,0.010383088459841879,0.5179028132992327
780,0.010383088459841879,0.5182225063938619
781,0.010400054290658614,0.5182225063938619
782,0.010400054290658614,0.5191815856777494
783,0.010433985952292084,0.5191815856777494
784,0.010433985952292084,0.5198209718670077
785,0.010450951783108819,0.5198209718670077
786,0.010450951783108819,0.520460358056266
787,0.010467917613925555,0.520460358056266
788,0.010467917613925555,0.5207800511508951
789,0.010501849275559024,0.5207800511508951
790,0.010501849275559024,0.5210997442455243
791,0.01051881510637576,0.5210997442455243
792,0.01051881510637576,0.5217391304347826
793,0.01051881510637576,0.5220588235294118
794,0.010569712598825965,0.5220588235294118
795,0.010569712598825965,0.5223785166240409
796,0.0105866784296427,0.5223785166240409
797,0.0105866784296427,0.5226982097186701
798,0.01062061009127617,0.5226982097186701
799,0.01062061009127617,0.5233375959079284
800,0.010637575922092905,0.5233375959079284
801,0.010637575922092905,0.5236572890025576
802,0.01065454175290964,0.5236572890025576
803,0.01065454175290964,0.5239769820971867
804,0.010671507583726375,0.5239769820971867
805,0.010671507583726375,0.524616368286445
806,0.010756336737810051,0.524616368286445
807,0.010756336737810051,0.5252557544757033
808,0.01079026839944352,0.5252557544757033
809,0.01079026839944352,0.5258951406649617
810,0.010824200061076992,0.5258951406649617
811,0.010824200061076992,0.5262148337595908
812,0.010909029215160666,0.5262148337595908
813,0.010909029215160666,0.5271739130434783
814,0.010959926707610871,0.5271739130434783
815,0.010959926707610871,0.5274936061381074
816,0.010976892538427607,0.5274936061381074
817,0.010976892538427607,0.5278132992327366
818,0.011044755861694547,0.5278132992327366
819,0.011044755861694547,0.5294117647058824
820,0.011061721692511283,0.5294117647058824
821,0.011061721692511283,0.5297314578005116
822,0.011078687523328017,0.5297314578005116
823,0.011078687523328017,0.5300511508951407
824,0.011095653354144752,0.5300511508951407
825,0.011095653354144752,0.5316496163682864
826,0.011180482508228428,0.5316496163682864
827,0.011180482508228428,0.5322890025575447
828,0.011214414169861898,0.5322890025575447
829,0.011214414169861898,0.532608695652174
830,0.011299243323945574,0.532608695652174
831,0.011299243323945574,0.532928388746803
832,0.01131620915476231,0.532928388746803
833,0.01131620915476231,0.5332480818414322
834,0.011367106647212515,0.5332480818414322
835,0.011367106647212515,0.5335677749360613
836,0.011401038308845984,0.5335677749360613
837,0.011401038308845984,0.5342071611253197
838,0.011434969970479455,0.5342071611253197
839,0.011434969970479455,0.534846547314578
840,0.011468901632112925,0.534846547314578
841,0.011468901632112925,0.5351662404092071
842,0.01148586746292966,0.5351662404092071
843,0.01148586746292966,0.5354859335038363
844,0.0115537307861966,0.5354859335038363
845,0.0115537307861966,0.5361253196930946
846,0.011570696617013335,0.5361253196930946
847,0.011570696617013335,0.5367647058823529
848,0.011604628278646806,0.5367647058823529
849,0.011604628278646806,0.5370843989769821
850,0.011638559940280275,0.5370843989769821
851,0.011638559940280275,0.5374040920716112
852,0.011672491601913746,0.5374040920716112
853,0.011672491601913746,0.5377237851662404
854,0.011706423263547216,0.5377237851662404
855,0.011706423263547216,0.5380434782608695
856,0.01175732075599742,0.5380434782608695
857,0.01175732075599742,0.5383631713554987
858,0.011774286586814156,0.5383631713554987
859,0.011774286586814156,0.5386828644501279
860,0.011808218248447626,0.5386828644501279
861,0.011808218248447626,0.5399616368286445
862,0.011842149910081097,0.5399616368286445
863,0.011842149910081097,0.5402813299232737
864,0.011910013233348038,0.5402813299232737
865,0.011910013233348038,0.5406010230179028
866,0.011926979064164771,0.5406010230179028
867,0.011926979064164771,0.5412404092071611
868,0.012062705710698653,0.5412404092071611
869,0.012062705710698653,0.5415601023017903
870,0.012079671541515388,0.5415601023017903
871,0.012079671541515388,0.5418797953964194
872,0.012096637372332124,0.5418797953964194
873,0.012096637372332124,0.5428388746803069
874,0.012113603203148858,0.5428388746803069
875,0.012113603203148858,0.5431585677749361
876,0.012130569033965593,0.5431585677749361
877,0.012130569033965593,0.5437979539641944
878,0.012164500695599063,0.5437979539641944
879,0.012164500695599063,0.5441176470588235
880,0.01221539818804927,0.5441176470588235
881,0.01221539818804927,0.5447570332480819
882,0.012232364018866003,0.5447570332480819
883,0.012232364018866003,0.545076726342711
884,0.012249329849682739,0.545076726342711
885,0.012249329849682739,0.5457161125319693
886,0.012351124834583149,0.5457161125319693
887,0.012351124834583149,0.5463554987212276
888,0.012368090665399884,0.5463554987212276
889,0.012368090665399884,0.5466751918158568
890,0.012402022327033356,0.5466751918158568
891,0.012402022327033356,0.546994884910486
892,0.01245291981948356,0.546994884910486
893,0.01245291981948356,0.5473145780051151
894,0.012469885650300295,0.5473145780051151
895,0.012469885650300295,0.5476342710997443
896,0.01248685148111703,0.5476342710997443
897,0.01248685148111703,0.5482736572890026
898,0.012520783142750501,0.5482736572890026
899,0.01255471480438397,0.5482736572890026
900,0.01255471480438397,0.5485933503836317
901,0.012571680635200706,0.5485933503836317
902,0.012571680635200706,0.5498721227621484
903,0.01265650978928438,0.5498721227621484
904,0.01265650978928438,0.5501918158567775
905,0.012775270605001526,0.5501918158567775
906,0.012775270605001526,0.5505115089514067
907,0.012792236435818262,0.5505115089514067
908,0.012792236435818262,0.5508312020460358
909,0.012877065589901938,0.5508312020460358
910,0.012877065589901938,0.5514705882352942
911,0.012927963082352143,0.5514705882352942
912,0.012927963082352143,0.5517902813299232
913,0.012944928913168879,0.5517902813299232
914,0.012944928913168879,0.5521099744245525
915,0.012978860574802348,0.5521099744245525
916,0.012978860574802348,0.553388746803069
917,0.012995826405619084,0.553388746803069
918,0.012995826405619084,0.5537084398976982
919,0.013046723898069289,0.5537084398976982
920,0.013046723898069289,0.5540281329923273
921,0.013063689728886024,0.5540281329923273
922,0.013063689728886024,0.5549872122762148
923,0.013080655559702758,0.5549872122762148
924,0.013080655559702758,0.555306905370844
925,0.013233348037053375,0.555306905370844
926,0.013233348037053375,0.5556265984654731
927,0.01328424552950358,0.5556265984654731
928,0.01328424552950358,0.5562659846547314
929,0.013369074683587256,0.5562659846547314
930,0.013369074683587256,0.5569053708439897
931,0.013419972176037461,0.5569053708439897
932,0.013419972176037461,0.5575447570332481
933,0.013487835499304402,0.5575447570332481
934,0.013487835499304402,0.5578644501278772
935,0.013504801330121136,0.5578644501278772
936,0.013504801330121136,0.5581841432225064
937,0.013572664653388076,0.5581841432225064
938,0.013572664653388076,0.559462915601023
939,0.013606596315021547,0.559462915601023
940,0.013606596315021547,0.5601023017902813
941,0.013691425469105222,0.5601023017902813
942,0.013691425469105222,0.5604219948849105
943,0.013708391299921957,0.5604219948849105
944,0.013708391299921957,0.5607416879795396
945,0.013878049608089308,0.5607416879795396
946,0.013878049608089308,0.5610613810741688
947,0.013895015438906044,0.5610613810741688
948,0.013895015438906044,0.5613810741687979
949,0.013979844592989718,0.5613810741687979
950,0.013979844592989718,0.5617007672634271
951,0.013996810423806454,0.5617007672634271
952,0.013996810423806454,0.5620204603580563
953,0.01401377625462319,0.5620204603580563
954,0.01401377625462319,0.5626598465473146
955,0.014064673747073394,0.5626598465473146
956,0.014064673747073394,0.5632992327365729
957,0.0141155712395236,0.5632992327365729
958,0.0141155712395236,0.5636189258312021
959,0.01425129788605748,0.5636189258312021
960,0.01425129788605748,0.5642583120204604
961,0.01435309287095789,0.5642583120204604
962,0.01435309287095789,0.5645780051150895
963,0.014370058701774626,0.5645780051150895
964,0.014370058701774626,0.5648976982097187
965,0.014403990363408095,0.5648976982097187
966,0.014403990363408095,0.5668158567774936
967,0.014471853686675036,0.5668158567774936
968,0.014471853686675036,0.5671355498721228
969,0.014505785348308507,0.5671355498721228
970,0.014505785348308507,0.5674552429667519
971,0.014539717009941977,0.5674552429667519
972,0.014539717009941977,0.5677749360613811
973,0.014573648671575448,0.5677749360613811
974,0.014573648671575448,0.5680946291560103
975,0.014624546164025653,0.5680946291560103
976,0.014624546164025653,0.5687340153452686
977,0.014709375318109327,0.5687340153452686
978,0.014709375318109327,0.5690537084398977
979,0.014726341148926063,0.5690537084398977
980,0.014726341148926063,0.569693094629156
981,0.014794204472193003,0.569693094629156
982,0.014794204472193003,0.5706521739130435
983,0.014811170303009739,0.5706521739130435
984,0.014811170303009739,0.5712915601023018
985,0.014929931118726885,0.5712915601023018
986,0.014929931118726885,0.571611253196931
987,0.015099589426894235,0.571611253196931
988,0.015099589426894235,0.5722506393861893
989,0.015133521088527705,0.5722506393861893
990,0.015133521088527705,0.5725703324808185
991,0.015167452750161176,0.5725703324808185
992,0.015167452750161176,0.5732097186700768
993,0.015235316073428117,0.5732097186700768
994,0.015235316073428117,0.573849104859335
995,0.01525228190424485,0.573849104859335
996,0.01525228190424485,0.5741687979539642
997,0.015371042719961996,0.5741687979539642
998,0.015371042719961996,0.5744884910485933
999,0.015388008550778732,0.5744884910485933
1000,0.015388008550778732,0.5748081841432225
1001,0.015404974381595467,0.5748081841432225
1002,0.015404974381595467,0.5751278772378516
1003,0.015438906043228937,0.5751278772378516
1004,0.015438906043228937,0.5754475703324808
1005,0.015472837704862408,0.5754475703324808
1006,0.015472837704862408,0.5757672634271099
1007,0.015574632689762818,0.5757672634271099
1008,0.015574632689762818,0.5760869565217391
1009,0.015625530182213025,0.5760869565217391
1010,0.015625530182213025,0.5764066496163683
1011,0.015642496013029757,0.5764066496163683
1012,0.015642496013029757,0.5767263427109974
1013,0.015727325167113435,0.5767263427109974
1014,0.015727325167113435,0.5770460358056266
1015,0.01581215432119711,0.5770460358056266
1016,0.01581215432119711,0.5776854219948849
1017,0.01584608598283058,0.5776854219948849
1018,0.01584608598283058,0.578005115089514
1019,0.015880017644464048,0.578005115089514
1020,0.015880017644464048,0.5783248081841432
1021,0.015896983475280783,0.5783248081841432
1022,0.015896983475280783,0.5786445012787724
1023,0.016032710121814665,0.5786445012787724
1024,0.016032710121814665,0.5789641943734015
1025,0.01611753927589834,0.5789641943734015
1026,0.01611753927589834,0.5796035805626598
1027,0.016270231753248956,0.5796035805626598
1028,0.016270231753248956,0.5802429667519181
1029,0.016304163414882427,0.5802429667519181
1030,0.016304163414882427,0.5805626598465473
1031,0.016321129245699163,0.5805626598465473
1032,0.016321129245699163,0.5808823529411765
1033,0.016355060907332634,0.5808823529411765
1034,0.016355060907332634,0.5812020460358056
1035,0.016439890061416308,0.5812020460358056
1036,0.016439890061416308,0.5818414322250639
1037,0.01647382172304978,0.5818414322250639
1038,0.01647382172304978,0.5824808184143222
1039,0.016507753384683247,0.5824808184143222
1040,0.016507753384683247,0.5828005115089514
1041,0.016541685046316718,0.5828005115089514
1042,0.016541685046316718,0.5834398976982097
1043,0.016592582538766925,0.5834398976982097
1044,0.016592582538766925,0.5837595907928389
1045,0.016660445862033864,0.5837595907928389
1046,0.016660445862033864,0.584079283887468
1047,0.0166774116928506,0.584079283887468
1048,0.0166774116928506,0.5843989769820972
1049,0.01671134335448407,0.5843989769820972
1050,0.01671134335448407,0.5847186700767263
1051,0.016762240846934274,0.5847186700767263
1052,0.016762240846934274,0.5850383631713555
1053,0.016796172508567745,0.5850383631713555
1054,0.016796172508567745,0.5856777493606138
1055,0.016830104170201216,0.5856777493606138
1056,0.016830104170201216,0.585997442455243
1057,0.01684707000101795,0.585997442455243
1058,0.01684707000101795,0.5866368286445013
1059,0.016897967493468155,0.5866368286445013
1060,0.016897967493468155,0.5869565217391305
1061,0.016931899155101626,0.5869565217391305
1062,0.016931899155101626,0.5875959079283888
1063,0.016948864985918362,0.5875959079283888
1064,0.016948864985918362,0.5879156010230179
1065,0.0170167283091853,0.5879156010230179
1066,0.0170167283091853,0.5888746803069054
1067,0.017067625801635507,0.5888746803069054
1068,0.017067625801635507,0.5891943734015346
1069,0.017101557463268975,0.5891943734015346
1070,0.017101557463268975,0.5898337595907929
1071,0.01711852329408571,0.5898337595907929
1072,0.01711852329408571,0.590153452685422
1073,0.017203352448169385,0.590153452685422
1074,0.017203352448169385,0.5907928388746803
1075,0.017254249940619592,0.5907928388746803
1076,0.017254249940619592,0.5911125319693095
1077,0.017288181602253063,0.5911125319693095
1078,0.017288181602253063,0.5927109974424553
1079,0.017373010756336738,0.5927109974424553
1080,0.017373010756336738,0.5930306905370843
1081,0.017389976587153473,0.5930306905370843
1082,0.017389976587153473,0.5933503836317136
1083,0.01740694241797021,0.5933503836317136
1084,0.01740694241797021,0.5936700767263428
1085,0.017474805741237148,0.5936700767263428
1086,0.017474805741237148,0.5939897698209718
1087,0.01750873740287062,0.5939897698209718
1088,0.01750873740287062,0.5946291560102301
1089,0.017661429880221235,0.5946291560102301
1090,0.017661429880221235,0.5949488491048593
1091,0.01767839571103797,0.5949488491048593
1092,0.01767839571103797,0.5952685421994884
1093,0.017695361541854703,0.5952685421994884
1094,0.017695361541854703,0.5955882352941176
1095,0.01771232737267144,0.5955882352941176
1096,0.01771232737267144,0.5959079283887468
1097,0.01771232737267144,0.5965473145780051
1098,0.01778019069593838,0.5965473145780051
1099,0.01778019069593838,0.5968670076726342
1100,0.01781412235757185,0.5968670076726342
1101,0.01781412235757185,0.5971867007672634
1102,0.017932883173288994,0.5971867007672634
1103,0.017932883173288994,0.5975063938618926
1104,0.018102541481456347,0.5975063938618926
1105,0.018102541481456347,0.5981457800511509
1106,0.018255233958806964,0.5981457800511509
1107,0.018255233958806964,0.5987851662404092
1108,0.01828916562044043,0.5987851662404092
1109,0.01828916562044043,0.5994245524296675
1110,0.018340063112890638,0.5994245524296675
1111,0.018340063112890638,0.5997442455242967
1112,0.018424892266974312,0.5997442455242967
1113,0.018424892266974312,0.600383631713555
1114,0.01871331139085881,0.600383631713555
1115,0.01871331139085881,0.6007033248081841
1116,0.018730277221675546,0.6007033248081841
1117,0.018730277221675546,0.6010230179028133
1118,0.018764208883309017,0.6010230179028133
1119,0.018764208883309017,0.6013427109974424
1120,0.018967798853109837,0.6013427109974424
1121,0.018967798853109837,0.6019820971867008
1122,0.018984764683926573,0.6019820971867008
1123,0.018984764683926573,0.6023017902813299
1124,0.019120491330460454,0.6023017902813299
1125,0.019120491330460454,0.6026214833759591
1126,0.019171388822910657,0.6026214833759591
1127,0.019171388822910657,0.6029411764705882
1128,0.019188354653727393,0.6029411764705882
1129,0.019188354653727393,0.6032608695652174
1130,0.01920532048454413,0.6032608695652174
1131,0.01920532048454413,0.6035805626598465
1132,0.019425876285161684,0.6035805626598465
1133,0.019459807946795155,0.6035805626598465
1134,0.01951070543924536,0.6035805626598465
1135,0.01951070543924536,0.6039002557544757
1136,0.019561602931695565,0.6039002557544757
1137,0.019561602931695565,0.6042199488491049
1138,0.019629466254962504,0.6042199488491049
1139,0.019629466254962504,0.604539641943734
1140,0.01968036374741271,0.604539641943734
1141,0.01968036374741271,0.6048593350383632
1142,0.01978215873231312,0.6048593350383632
1143,0.01978215873231312,0.6051790281329923
1144,0.019850022055580063,0.6051790281329923
1145,0.019850022055580063,0.6054987212276215
1146,0.01988395371721353,0.6054987212276215
1147,0.01988395371721353,0.6061381074168798
1148,0.01996878287129721,0.6061381074168798
1149,0.01996878287129721,0.606457800511509
1150,0.01998574870211394,0.606457800511509
1151,0.01998574870211394,0.6067774936061381
1152,0.020002714532930677,0.6067774936061381
1153,0.020002714532930677,0.6070971867007673
1154,0.020036646194564148,0.6070971867007673
1155,0.020036646194564148,0.6077365728900256
1156,0.020155407010281293,0.6077365728900256
1157,0.020155407010281293,0.6080562659846548
1158,0.020189338671914765,0.6080562659846548
1159,0.020189338671914765,0.6083759590792839
1160,0.020291133656815175,0.6083759590792839
1161,0.020291133656815175,0.6086956521739131
1162,0.02030809948763191,0.6086956521739131
1163,0.02030809948763191,0.6090153452685422
1164,0.020342031149265378,0.6090153452685422
1165,0.020342031149265378,0.6093350383631714
1166,0.020392928641715585,0.6093350383631714
1167,0.020392928641715585,0.6096547314578005
1168,0.020426860303349056,0.6096547314578005
1169,0.020426860303349056,0.6102941176470589
1170,0.02044382613416579,0.6102941176470589
1171,0.02044382613416579,0.610613810741688
1172,0.020460791964982527,0.610613810741688
1173,0.020460791964982527,0.6109335038363172
1174,0.020494723626615995,0.6109335038363172
1175,0.020494723626615995,0.6112531969309463
1176,0.02051168945743273,0.6112531969309463
1177,0.02051168945743273,0.6115728900255755
1178,0.02061348444233314,0.6115728900255755
1179,0.02061348444233314,0.6118925831202046
1180,0.02064741610396661,0.6118925831202046
1181,0.02064741610396661,0.6122122762148338
1182,0.020664381934783347,0.6122122762148338
1183,0.020664381934783347,0.6128516624040921
1184,0.020698313596416818,0.6128516624040921
1185,0.020698313596416818,0.6131713554987213
1186,0.02071527942723355,0.6131713554987213
1187,0.02071527942723355,0.6134910485933504
1188,0.020817074412133964,0.6134910485933504
1189,0.020817074412133964,0.6138107416879796
1190,0.02085100607376743,0.6138107416879796
1191,0.02085100607376743,0.6141304347826086
1192,0.021003698551118048,0.6141304347826086
1193,0.021003698551118048,0.6144501278772379
1194,0.021088527705201723,0.6144501278772379
1195,0.021088527705201723,0.614769820971867
1196,0.02130908350581928,0.614769820971867
1197,0.02130908350581928,0.6150895140664961
1198,0.02134301516745275,0.6150895140664961
1199,0.02134301516745275,0.6154092071611253
1200,0.021359980998269485,0.6154092071611253
1201,0.021359980998269485,0.6157289002557544
1202,0.021427844321536424,0.6157289002557544
1203,0.021427844321536424,0.6163682864450127
1204,0.021563570968070305,0.6163682864450127
1205,0.021563570968070305,0.6166879795396419
1206,0.021614468460520512,0.6166879795396419
1207,0.021614468460520512,0.6170076726342711
1208,0.021699297614604186,0.6170076726342711
1209,0.021699297614604186,0.6173273657289002
1210,0.021784126768687864,0.6173273657289002
1211,0.021784126768687864,0.6176470588235294
1212,0.021885921753588274,0.6176470588235294
1213,0.021885921753588274,0.6182864450127877
1214,0.022089511723389094,0.6182864450127877
1215,0.022089511723389094,0.6186061381074168
1216,0.022123443385022565,0.6186061381074168
1217,0.022123443385022565,0.618925831202046
1218,0.022157375046656033,0.618925831202046
1219,0.022157375046656033,0.6198849104859335
1220,0.022225238369922976,0.6198849104859335
1221,0.022225238369922976,0.6205242966751918
1222,0.02227613586237318,0.6205242966751918
1223,0.02227613586237318,0.620843989769821
1224,0.022293101693189914,0.620843989769821
1225,0.022293101693189914,0.6211636828644501
1226,0.022394896678090324,0.6211636828644501
1227,0.022394896678090324,0.6214833759590793
1228,0.02241186250890706,0.6214833759590793
1229,0.02241186250890706,0.6221227621483376
1230,0.022428828339723796,0.6221227621483376
1231,0.022428828339723796,0.6227621483375959
1232,0.022479725832174002,0.6227621483375959
1233,0.022479725832174002,0.6230818414322251
1234,0.022530623324624206,0.6230818414322251
1235,0.022530623324624206,0.6234015345268542
1236,0.022564554986257677,0.6234015345268542
1237,0.022564554986257677,0.6237212276214834
1238,0.022700281632791558,0.6237212276214834
1239,0.022700281632791558,0.6243606138107417
1240,0.02273421329442503,0.6243606138107417
1241,0.02273421329442503,0.6246803069053708
1242,0.022768144956058497,0.6246803069053708
1243,0.022768144956058497,0.625
1244,0.022819042448508704,0.625
1245,0.022819042448508704,0.6256393861892583
1246,0.02286993994095891,0.6256393861892583
1247,0.02286993994095891,0.6259590792838875
1248,0.022903871602592378,0.6259590792838875
1249,0.022903871602592378,0.6262787723785166
1250,0.02293780326422585,0.6262787723785166
1251,0.02293780326422585,0.6265984654731458
1252,0.02303959824912626,0.6265984654731458
1253,0.02303959824912626,0.6269181585677749
1254,0.02307352991075973,0.6269181585677749
1255,0.02314139323402667,0.6269181585677749
1256,0.02314139323402667,0.6272378516624041
1257,0.023158359064843405,0.6272378516624041
1258,0.023158359064843405,0.6275575447570333
1259,0.02317532489566014,0.6275575447570333
1260,0.02317532489566014,0.6281969309462916
1261,0.023226222388110347,0.6281969309462916
1262,0.023260154049743815,0.6281969309462916
1263,0.023294085711377286,0.6281969309462916
1264,0.023294085711377286,0.6285166240409207
1265,0.023446778188727903,0.6285166240409207
1266,0.023446778188727903,0.629156010230179
1267,0.02348070985036137,0.629156010230179
1268,0.02348070985036137,0.6294757033248082
1269,0.02351464151199484,0.6294757033248082
1270,0.02351464151199484,0.6297953964194374
1271,0.02356553900444505,0.6297953964194374
1272,0.02356553900444505,0.6301150895140665
1273,0.02361643649689525,0.6301150895140665
1274,0.02361643649689525,0.6304347826086957
1275,0.023633402327711987,0.6304347826086957
1276,0.023633402327711987,0.6307544757033248
1277,0.02376912897424587,0.6307544757033248
1278,0.02376912897424587,0.631074168797954
1279,0.02383699229751281,0.631074168797954
1280,0.02383699229751281,0.6313938618925832
1281,0.023853958128329543,0.6313938618925832
1282,0.023853958128329543,0.6317135549872123
1283,0.023887889789963014,0.6317135549872123
1284,0.023921821451596485,0.6317135549872123
1285,0.02397271894404669,0.6317135549872123
1286,0.02397271894404669,0.6323529411764706
1287,0.024125411421397305,0.6323529411764706
1288,0.024125411421397305,0.6329923273657289
1289,0.02414237725221404,0.6329923273657289
1290,0.02414237725221404,0.6333120204603581
1291,0.024193274744664248,0.6333120204603581
1292,0.024193274744664248,0.6336317135549873
1293,0.02421024057548098,0.6336317135549873
1294,0.02421024057548098,0.6339514066496164
1295,0.024261138067931187,0.6339514066496164
1296,0.024261138067931187,0.6342710997442456
1297,0.024261138067931187,0.6349104859335039
1298,0.024396864714465068,0.6349104859335039
1299,0.024396864714465068,0.635230179028133
1300,0.024515625530182213,0.635230179028133
1301,0.024515625530182213,0.6361892583120204
1302,0.02463438634589936,0.6361892583120204
1303,0.02463438634589936,0.6365089514066496
1304,0.024651352176716095,0.6365089514066496
1305,0.024651352176716095,0.6368286445012787
1306,0.024702249669166298,0.6368286445012787
1307,0.024702249669166298,0.6371483375959079
1308,0.024753147161616505,0.6371483375959079
1309,0.024753147161616505,0.6377877237851662
1310,0.02480404465406671,0.6377877237851662
1311,0.02480404465406671,0.6381074168797954
1312,0.02490583963896712,0.6381074168797954
1313,0.02490583963896712,0.6387468030690537
1314,0.025024600454684267,0.6387468030690537
1315,0.025024600454684267,0.639386189258312
1316,0.025058532116317735,0.639386189258312
1317,0.025058532116317735,0.6397058823529411
1318,0.02510942960876794,0.6397058823529411
1319,0.02510942960876794,0.6400255754475703
1320,0.025262122086118558,0.6400255754475703
1321,0.025262122086118558,0.6403452685421995
1322,0.02531301957856876,0.6403452685421995
1323,0.02531301957856876,0.6406649616368286
1324,0.025346951240202233,0.6406649616368286
1325,0.025346951240202233,0.6409846547314578
1326,0.025516609548369585,0.6409846547314578
1327,0.025516609548369585,0.6413043478260869
1328,0.025533575379186317,0.6413043478260869
1329,0.025533575379186317,0.6416240409207161
1330,0.025652336194903463,0.6416240409207161
1331,0.025652336194903463,0.6422634271099744
1332,0.02573716534898714,0.6422634271099744
1333,0.02573716534898714,0.6425831202046036
1334,0.025754131179803876,0.6425831202046036
1335,0.025754131179803876,0.6429028132992327
1336,0.025771097010620612,0.6432225063938619
1337,0.025788062841437344,0.6432225063938619
1338,0.025788062841437344,0.643542199488491
1339,0.025872891995521022,0.643542199488491
1340,0.025872891995521022,0.6438618925831202
1341,0.025923789487971225,0.6438618925831202
1342,0.025923789487971225,0.6441815856777494
1343,0.025991652811238167,0.6441815856777494
1344,0.025991652811238167,0.6445012787723785
1345,0.026008618642054903,0.6445012787723785
1346,0.026008618642054903,0.6448209718670077
1347,0.02614434528858878,0.6448209718670077
1348,0.02614434528858878,0.6451406649616368
1349,0.026280071935122662,0.6451406649616368
1350,0.026280071935122662,0.6457800511508951
1351,0.026297037765939398,0.6457800511508951
1352,0.026297037765939398,0.6460997442455243
1353,0.026415798581656543,0.6460997442455243
1354,0.026415798581656543,0.6464194373401535
1355,0.02643276441247328,0.6464194373401535
1356,0.02643276441247328,0.6467391304347826
1357,0.02656849105900716,0.6467391304347826
1358,0.02656849105900716,0.6470588235294118
1359,0.026619388551457363,0.6470588235294118
1360,0.026619388551457363,0.6473785166240409
1361,0.0266363543822741,0.6473785166240409
1362,0.0266363543822741,0.6476982097186701
1363,0.026687251874724306,0.6476982097186701
1364,0.026687251874724306,0.6480179028132992
1365,0.02670421770554104,0.6480179028132992
1366,0.02670421770554104,0.6483375959079284
1367,0.02677208102880798,0.6483375959079284
1368,0.02677208102880798,0.6486572890025576
1369,0.02680601269044145,0.6486572890025576
1370,0.02680601269044145,0.6489769820971867
1371,0.026822978521258187,0.6489769820971867
1372,0.026822978521258187,0.6492966751918159
1373,0.026941739336975332,0.6492966751918159
1374,0.026941739336975332,0.6499360613810742
1375,0.026958705167792068,0.6499360613810742
1376,0.026958705167792068,0.6502557544757033
1377,0.026992636829425536,0.6502557544757033
1378,0.026992636829425536,0.6505754475703325
1379,0.027043534321875742,0.6505754475703325
1380,0.027043534321875742,0.6508951406649617
1381,0.027162295137592888,0.6508951406649617
1382,0.027162295137592888,0.6512148337595908
1383,0.02719622679922636,0.6512148337595908
1384,0.02719622679922636,0.65153452685422
1385,0.027247124291676562,0.65153452685422
1386,0.027247124291676562,0.6518542199488491
1387,0.027281055953310034,0.6518542199488491
1388,0.027281055953310034,0.6531329923273658
1389,0.02729802178412677,0.6531329923273658
1390,0.02729802178412677,0.6537723785166241
1391,0.02739981676902718,0.6537723785166241
1392,0.02739981676902718,0.6547314578005116
1393,0.02750161175392759,0.6547314578005116
1394,0.02750161175392759,0.6550511508951407
1395,0.027603406738828,0.6550511508951407
1396,0.027603406738828,0.6553708439897699
1397,0.02767127006209494,0.6553708439897699
1398,0.02767127006209494,0.655690537084399
1399,0.02782396253944556,0.655690537084399
1400,0.027857894201079026,0.655690537084399
1401,0.027891825862712497,0.655690537084399
1402,0.027891825862712497,0.6560102301790282
1403,0.027908791693529233,0.6560102301790282
1404,0.027908791693529233,0.6563299232736572
1405,0.027942723355162704,0.6563299232736572
1406,0.027942723355162704,0.6566496163682864
1407,0.027993620847612907,0.6566496163682864
1408,0.027993620847612907,0.6569693094629157
1409,0.028010586678429643,0.6569693094629157
1410,0.028010586678429643,0.6572890025575447
1411,0.028180244986596995,0.6572890025575447
1412,0.028180244986596995,0.657608695652174
1413,0.028214176648230463,0.657608695652174
1414,0.028214176648230463,0.657928388746803
1415,0.0282311424790472,0.657928388746803
1416,0.0282311424790472,0.6582480818414322
1417,0.028282039971497405,0.6582480818414322
1418,0.028282039971497405,0.6585677749360613
1419,0.02833293746394761,0.6585677749360613
1420,0.02833293746394761,0.6592071611253197
1421,0.02836686912558108,0.6592071611253197
1422,0.02836686912558108,0.659846547314578
1423,0.028383834956397815,0.659846547314578
1424,0.028383834956397815,0.6604859335038363
1425,0.028519561602931696,0.6604859335038363
1426,0.028519561602931696,0.6608056265984654
1427,0.028536527433748432,0.6608056265984654
1428,0.0285704590953819,0.6608056265984654
1429,0.02867225408028231,0.6608056265984654
1430,0.02867225408028231,0.6611253196930946
1431,0.028791014895999455,0.6611253196930946
1432,0.028791014895999455,0.6614450127877238
1433,0.028858878219266398,0.6614450127877238
1434,0.028858878219266398,0.6620843989769821
1435,0.02889280988089987,0.6620843989769821
1436,0.02889280988089987,0.6624040920716112
1437,0.028909775711716604,0.6624040920716112
1438,0.028909775711716604,0.6627237851662404
1439,0.02899460486580028,0.6627237851662404
1440,0.02899460486580028,0.6633631713554987
1441,0.02913033151233416,0.6633631713554987
1442,0.02913033151233416,0.6636828644501279
1443,0.029164263173967628,0.6636828644501279
1444,0.029164263173967628,0.6646419437340153
1445,0.02926605815886804,0.6646419437340153
1446,0.02926605815886804,0.6649616368286445
1447,0.02936785314376845,0.6649616368286445
1448,0.02936785314376845,0.6656010230179028
1449,0.029384818974585187,0.6656010230179028
1450,0.029384818974585187,0.6662404092071611
1451,0.02946964812866886,0.6662404092071611
1452,0.02946964812866886,0.6665601023017903
1453,0.029503579790302333,0.6665601023017903
1454,0.029503579790302333,0.6671994884910486
1455,0.029656272267652946,0.6671994884910486
1456,0.029656272267652946,0.6675191815856778
1457,0.029724135590919888,0.6675191815856778
1458,0.029724135590919888,0.6681585677749361
1459,0.029741101421736624,0.6681585677749361
1460,0.029741101421736624,0.6684782608695652
1461,0.02977503308337009,0.6684782608695652
1462,0.02977503308337009,0.6694373401534527
1463,0.030012554714804383,0.6694373401534527
1464,0.030012554714804383,0.6697570332480819
1465,0.030046486376437854,0.6697570332480819
1466,0.030046486376437854,0.670076726342711
1467,0.030080418038071325,0.670076726342711
1468,0.030080418038071325,0.6707161125319693
1469,0.030148281361338264,0.6707161125319693
1470,0.030148281361338264,0.6710358056265985
1471,0.030233110515421942,0.6710358056265985
1472,0.030233110515421942,0.6723145780051151
1473,0.030317939669505616,0.6723145780051151
1474,0.030317939669505616,0.6726342710997443
1475,0.030351871331139087,0.6726342710997443
1476,0.030351871331139087,0.6729539641943734
1477,0.03040276882358929,0.6729539641943734
1478,0.03040276882358929,0.6732736572890026
1479,0.030555461300939907,0.6732736572890026
1480,0.030555461300939907,0.6735933503836317
1481,0.030674222116657053,0.6735933503836317
1482,0.030674222116657053,0.6739130434782609
1483,0.03089477791727461,0.6739130434782609
1484,0.03089477791727461,0.6742327365728901
1485,0.030945675409724815,0.6742327365728901
1486,0.030945675409724815,0.6745524296675192
1487,0.031149265379525636,0.6745524296675192
1488,0.031149265379525636,0.6748721227621484
1489,0.03116623121034237,0.6748721227621484
1490,0.03116623121034237,0.6751918158567775
1491,0.031183197041159107,0.6751918158567775
1492,0.031183197041159107,0.6755115089514067
1493,0.03125106036442605,0.6755115089514067
1494,0.03125106036442605,0.6758312020460358
1495,0.03128499202605951,0.6758312020460358
1496,0.03128499202605951,0.676150895140665
1497,0.03136982118014319,0.676150895140665
1498,0.03136982118014319,0.6764705882352942
1499,0.03148858199586034,0.6764705882352942
1500,0.03148858199586034,0.6767902813299232
1501,0.03157341114994401,0.6767902813299232
1502,0.03157341114994401,0.6771099744245525
1503,0.03159037698076075,0.6771099744245525
1504,0.03159037698076075,0.6774296675191815
1505,0.03162430864239422,0.6774296675191815
1506,0.03162430864239422,0.6777493606138107
1507,0.03169217196566116,0.6777493606138107
1508,0.03169217196566116,0.678388746803069
1509,0.03172610362729463,0.678388746803069
1510,0.03172610362729463,0.6787084398976982
1511,0.03186183027382851,0.6787084398976982
1512,0.03186183027382851,0.6790281329923273
1513,0.03192969359709545,0.6790281329923273
1514,0.03192969359709545,0.6793478260869565
1515,0.03194665942791219,0.6793478260869565
1516,0.03194665942791219,0.6796675191815856
1517,0.032048454412812594,0.6796675191815856
1518,0.032048454412812594,0.6799872122762148
1519,0.03206542024362933,0.6799872122762148
1520,0.03206542024362933,0.680306905370844
1521,0.03213328356689627,0.680306905370844
1522,0.03213328356689627,0.6812659846547314
1523,0.03218418105934648,0.6812659846547314
1524,0.03218418105934648,0.6815856777493606
1525,0.03223507855179668,0.6815856777493606
1526,0.03223507855179668,0.6819053708439897
1527,0.032319907705880356,0.6819053708439897
1528,0.032319907705880356,0.6822250639386189
1529,0.03233687353669709,0.6822250639386189
1530,0.03233687353669709,0.6825447570332481
1531,0.03235383936751383,0.6825447570332481
1532,0.03235383936751383,0.6828644501278772
1533,0.03245563435241424,0.6828644501278772
1534,0.03245563435241424,0.6831841432225064
1535,0.03274405347629873,0.6831841432225064
1536,0.03274405347629873,0.6838235294117647
1537,0.032811916799565674,0.6838235294117647
1538,0.032811916799565674,0.6841432225063938
1539,0.03291371178446609,0.6841432225063938
1540,0.03291371178446609,0.684462915601023
1541,0.033015506769366494,0.684462915601023
1542,0.033015506769366494,0.6847826086956522
1543,0.033049438430999965,0.6847826086956522
1544,0.033049438430999965,0.6851023017902813
1545,0.0330664042618167,0.6851023017902813
1546,0.0330664042618167,0.6854219948849105
1547,0.03323606256998405,0.6854219948849105
1548,0.03323606256998405,0.6857416879795396
1549,0.033405720878151406,0.6857416879795396
1550,0.033405720878151406,0.6860613810741688
1551,0.03362627667876896,0.6860613810741688
1552,0.03362627667876896,0.6863810741687979
1553,0.0336432425095857,0.6863810741687979
1554,0.0336432425095857,0.6867007672634271
1555,0.03367717417121917,0.6867007672634271
1556,0.03371110583285263,0.6867007672634271
1557,0.033897729971836724,0.6867007672634271
1558,0.033897729971836724,0.6870204603580563
1559,0.03396559329510366,0.6870204603580563
1560,0.03396559329510366,0.6873401534526854
1561,0.033982559125920395,0.6873401534526854
1562,0.033982559125920395,0.6876598465473146
1563,0.034135251603271015,0.6876598465473146
1564,0.034135251603271015,0.6879795396419437
1565,0.03420311492653795,0.6879795396419437
1566,0.03420311492653795,0.6882992327365729
1567,0.034220080757354686,0.6882992327365729
1568,0.034220080757354686,0.6886189258312021
1569,0.03425401241898816,0.6886189258312021
1570,0.03425401241898816,0.6892583120204604
1571,0.03435580740388857,0.6892583120204604
1572,0.03438973906552204,0.6892583120204604
1573,0.034508499881239184,0.6892583120204604
1574,0.034508499881239184,0.6895780051150895
1575,0.03452546571205592,0.6895780051150895
1576,0.03452546571205592,0.6898976982097187
1577,0.03469512402022327,0.6898976982097187
1578,0.03469512402022327,0.690537084398977
1579,0.034864782328390624,0.690537084398977
1580,0.034864782328390624,0.6914961636828645
1581,0.03493264565165756,0.6914961636828645
1582,0.03493264565165756,0.6921355498721228
1583,0.034949611482474295,0.6921355498721228
1584,0.034949611482474295,0.6924552429667519
1585,0.0350005089749245,0.6924552429667519
1586,0.0350005089749245,0.6927749360613811
1587,0.03503444063655797,0.6927749360613811
1588,0.03503444063655797,0.6930946291560103
1589,0.035288928098809,0.6930946291560103
1590,0.035288928098809,0.6934143222506394
1591,0.03535679142207594,0.6934143222506394
1592,0.03535679142207594,0.6937340153452686
1593,0.03545858640697635,0.6937340153452686
1594,0.03545858640697635,0.6940537084398977
1595,0.03552644973024329,0.6940537084398977
1596,0.03552644973024329,0.6943734015345269
1597,0.03578093719249432,0.6943734015345269
1598,0.03578093719249432,0.694693094629156
1599,0.035882732177394724,0.694693094629156
1600,0.035882732177394724,0.6950127877237852
1601,0.03598452716229514,0.6950127877237852
1602,0.03598452716229514,0.6953324808184144
1603,0.036001492993111874,0.6953324808184144
1604,0.036001492993111874,0.6956521739130435
1605,0.03610328797801228,0.6956521739130435
1606,0.03610328797801228,0.6959718670076727
1607,0.036272946286179636,0.6959718670076727
1608,0.036272946286179636,0.6962915601023018
1609,0.03635777544026331,0.6962915601023018
1610,0.03635777544026331,0.696611253196931
1611,0.036408672932713514,0.696611253196931
1612,0.036408672932713514,0.69693094629156
1613,0.03649350208679719,0.69693094629156
1614,0.03649350208679719,0.6978900255754475
1615,0.03651046791761393,0.6978900255754475
1616,0.03651046791761393,0.6985294117647058
1617,0.036561365410064134,0.6985294117647058
1618,0.036561365410064134,0.698849104859335
1619,0.0365952970716976,0.698849104859335
1620,0.0365952970716976,0.6991687979539642
1621,0.036612262902514334,0.6991687979539642
1622,0.036612262902514334,0.6994884910485933
1623,0.036646194564147805,0.6994884910485933
1624,0.036646194564147805,0.6998081841432225
1625,0.03674798954904822,0.6998081841432225
1626,0.03678192121068169,0.6998081841432225
1627,0.03678192121068169,0.7001278772378516
1628,0.036849784533948625,0.7001278772378516
1629,0.036849784533948625,0.7004475703324808
1630,0.03718910115028333,0.7004475703324808
1631,0.03718910115028333,0.7007672634271099
1632,0.03734179362763394,0.7007672634271099
1633,0.03734179362763394,0.7010869565217391
1634,0.037528417766618034,0.7010869565217391
1635,0.037528417766618034,0.7014066496163683
1636,0.03754538359743476,0.7014066496163683
1637,0.03754538359743476,0.7017263427109974
1638,0.03774897356723559,0.7017263427109974
1639,0.03774897356723559,0.7020460358056266
1640,0.03788470021376947,0.7020460358056266
1641,0.03788470021376947,0.7023657289002557
1642,0.03795256353703641,0.7023657289002557
1643,0.03795256353703641,0.7026854219948849
1644,0.03803739269112008,0.7026854219948849
1645,0.03803739269112008,0.7033248081841432
1646,0.03807132435275355,0.7033248081841432
1647,0.03807132435275355,0.7036445012787724
1648,0.038139187676020495,0.7036445012787724
1649,0.038173119337653966,0.7036445012787724
1650,0.0381900851684707,0.7036445012787724
1651,0.0381900851684707,0.7039641943734015
1652,0.03820705099928744,0.7039641943734015
1653,0.03820705099928744,0.7042838874680307
1654,0.03822401683010417,0.7042838874680307
1655,0.03822401683010417,0.7046035805626598
1656,0.03829188015337111,0.7046035805626598
1657,0.03829188015337111,0.704923273657289
1658,0.03830884598418784,0.704923273657289
1659,0.03830884598418784,0.7052429667519181
1660,0.03841064096908826,0.7052429667519181
1661,0.03841064096908826,0.7058823529411765
1662,0.03844457263072173,0.7058823529411765
1663,0.03844457263072173,0.7062020460358056
1664,0.038512435953988663,0.7062020460358056
1665,0.038512435953988663,0.7065217391304348
1666,0.03861423093888908,0.7065217391304348
1667,0.03861423093888908,0.7068414322250639
1668,0.03876692341623969,0.7068414322250639
1669,0.03876692341623969,0.7071611253196931
1670,0.038902650062773575,0.7071611253196931
1671,0.038902650062773575,0.7078005115089514
1672,0.03895354755522378,0.7078005115089514
1673,0.03895354755522378,0.7081202046035806
1674,0.03897051338604052,0.7081202046035806
1675,0.03897051338604052,0.7084398976982097
1676,0.03898747921685725,0.7084398976982097
1677,0.03898747921685725,0.7087595907928389
1678,0.03900444504767398,0.7087595907928389
1679,0.03900444504767398,0.709079283887468
1680,0.03903837670930745,0.709079283887468
1681,0.03903837670930745,0.7093989769820972
1682,0.03905534254012419,0.7093989769820972
1683,0.03905534254012419,0.7097186700767263
1684,0.039106240032574395,0.7097186700767263
1685,0.039106240032574395,0.7100383631713555
1686,0.039275898340741744,0.7100383631713555
1687,0.039275898340741744,0.7106777493606138
1688,0.039309830002375215,0.7106777493606138
1689,0.039309830002375215,0.710997442455243
1690,0.039343761664008686,0.710997442455243
1691,0.039343761664008686,0.7113171355498721
1692,0.03939465915645889,0.7113171355498721
1693,0.03939465915645889,0.7116368286445013
1694,0.039513419972176035,0.7116368286445013
1695,0.039513419972176035,0.7119565217391305
1696,0.03990363408096095,0.7119565217391305
1697,0.03990363408096095,0.7122762148337596
1698,0.03992059991177768,0.7122762148337596
1699,0.03992059991177768,0.7125959079283888
1700,0.03997149740422788,0.7125959079283888
1701,0.03997149740422788,0.7129156010230179
1702,0.04014115571239524,0.7129156010230179
1703,0.04014115571239524,0.7132352941176471
1704,0.04025991652811238,0.7132352941176471
1705,0.04025991652811238,0.7135549872122762
1706,0.04058226731363035,0.7135549872122762
1707,0.04058226731363035,0.7138746803069054
1708,0.04088765226833158,0.7138746803069054
1709,0.04088765226833158,0.7141943734015346
1710,0.040921583929965054,0.7141943734015346
1711,0.040921583929965054,0.7145140664961637
1712,0.040972481422415254,0.7145140664961637
1713,0.040972481422415254,0.7148337595907929
1714,0.041040344745682196,0.7148337595907929
1715,0.041040344745682196,0.715153452685422
1716,0.04110820806894914,0.715153452685422
1717,0.04110820806894914,0.7154731457800512
1718,0.04110820806894914,0.7161125319693095
1719,0.04110820806894914,0.7164322250639387
1720,0.041125173899765874,0.7164322250639387
1721,0.041125173899765874,0.7167519181585678
1722,0.04127786637711649,0.7167519181585678
1723,0.04127786637711649,0.717071611253197
1724,0.04131179803874996,0.717071611253197
1725,0.04131179803874996,0.717391304347826
1726,0.041447524685283836,0.717391304347826
1727,0.041447524685283836,0.7177109974424553
1728,0.041532353839367514,0.7177109974424553
1729,0.041532353839367514,0.7180306905370843
1730,0.041769875470801805,0.7180306905370843
1731,0.041769875470801805,0.7183503836317136
1732,0.04178684130161854,0.7183503836317136
1733,0.04178684130161854,0.7186700767263428
1734,0.04182077296325201,0.7186700767263428
1735,0.04182077296325201,0.7189897698209718
1736,0.04183773879406875,0.7189897698209718
1737,0.04183773879406875,0.719309462915601
1738,0.04199043127141936,0.719309462915601
1739,0.04199043127141936,0.7196291560102301
1740,0.0420582945946863,0.7196291560102301
1741,0.0420582945946863,0.7199488491048593
1742,0.042177055410403445,0.7199488491048593
1743,0.042177055410403445,0.7202685421994884
1744,0.042210987072036917,0.7202685421994884
1745,0.04224491873367039,0.7202685421994884
1746,0.04231278205693733,0.7202685421994884
1747,0.04231278205693733,0.7209079283887468
1748,0.04236367954938754,0.7209079283887468
1749,0.04236367954938754,0.7212276214833759
1750,0.04277085948898918,0.7212276214833759
1751,0.04277085948898918,0.7215473145780051
1752,0.04283872281225612,0.7215473145780051
1753,0.04283872281225612,0.7221867007672634
1754,0.043059278612873675,0.7221867007672634
1755,0.043059278612873675,0.7225063938618926
1756,0.04319500525940755,0.7225063938618926
1757,0.04319500525940755,0.7228260869565217
1758,0.043347697736758166,0.7228260869565217
1759,0.04338162939839164,0.7228260869565217
1760,0.04344949272165858,0.7228260869565217
1761,0.04344949272165858,0.7237851662404092
1762,0.04353432187574226,0.7237851662404092
1763,0.04353432187574226,0.7241048593350383
1764,0.04372094601472634,0.7241048593350383
1765,0.04372094601472634,0.7247442455242967
1766,0.04380577516881002,0.7247442455242967
1767,0.04380577516881002,0.7250639386189258
1768,0.04385667266126022,0.7250639386189258
1769,0.04389060432289369,0.7250639386189258
1770,0.04389060432289369,0.725383631713555
1771,0.04395846764616063,0.725383631713555
1772,0.04395846764616063,0.7257033248081841
1773,0.04436564758576227,0.7257033248081841
1774,0.04436564758576227,0.7260230179028133
1775,0.04445047673984595,0.7260230179028133
1776,0.04445047673984595,0.7263427109974424
1777,0.04468799837128024,0.7263427109974424
1778,0.04468799837128024,0.7266624040920716
1779,0.04472193003291371,0.7266624040920716
1780,0.04472193003291371,0.7269820971867008
1781,0.04478979335618065,0.7269820971867008
1782,0.04478979335618065,0.7273017902813299
1783,0.045196973295782296,0.7273017902813299
1784,0.045196973295782296,0.7276214833759591
1785,0.04521393912659903,0.7276214833759591
1786,0.04521393912659903,0.7279411764705882
1787,0.045366631603949645,0.7279411764705882
1788,0.045366631603949645,0.7282608695652174
1789,0.045400563265583116,0.7282608695652174
1790,0.045400563265583116,0.7285805626598465
1791,0.045570221573750465,0.7285805626598465
1792,0.045570221573750465,0.7289002557544757
1793,0.04567201655865088,0.7289002557544757
1794,0.04567201655865088,0.7292199488491049
1795,0.04573987988191782,0.7292199488491049
1796,0.04573987988191782,0.729539641943734
1797,0.0458756065284517,0.729539641943734
1798,0.0458756065284517,0.7298593350383632
1799,0.046164025652336196,0.7298593350383632
1800,0.046164025652336196,0.7301790281329923
1801,0.04638458145295375,0.7301790281329923
1802,0.04638458145295375,0.7304987212276215
1803,0.04643547894540396,0.7304987212276215
1804,0.04643547894540396,0.7308184143222506
1805,0.046452444776220694,0.7308184143222506
1806,0.04648637643785416,0.7308184143222506
1807,0.0465542397611211,0.7308184143222506
1808,0.0465542397611211,0.7311381074168798
1809,0.04667300057683825,0.7311381074168798
1810,0.04667300057683825,0.731457800511509
1811,0.046893556377455806,0.731457800511509
1812,0.046893556377455806,0.7320971867007673
1813,0.04702928302398968,0.7320971867007673
1814,0.04702928302398968,0.7324168797953964
1815,0.04721590716297377,0.7324168797953964
1816,0.04721590716297377,0.7327365728900256
1817,0.04769095042584235,0.7327365728900256
1818,0.04769095042584235,0.7330562659846548
1819,0.04792847205727664,0.7330562659846548
1820,0.04792847205727664,0.7333759590792839
1821,0.04796240371891011,0.7333759590792839
1822,0.04796240371891011,0.7336956521739131
1823,0.048199925350344404,0.7336956521739131
1824,0.048199925350344404,0.7340153452685422
1825,0.048233857011977875,0.7340153452685422
1826,0.048233857011977875,0.7343350383631714
1827,0.04845441281259543,0.7343350383631714
1828,0.04845441281259543,0.7346547314578005
1829,0.04860710528994605,0.7346547314578005
1830,0.04860710528994605,0.7349744245524297
1831,0.048674968613212986,0.7349744245524297
1832,0.048674968613212986,0.7352941176470589
1833,0.04870890027484646,0.7352941176470589
1834,0.04870890027484646,0.735613810741688
1835,0.048963387737097484,0.735613810741688
1836,0.048963387737097484,0.7359335038363172
1837,0.04901428522954769,0.7359335038363172
1838,0.04901428522954769,0.7362531969309463
1839,0.04903125106036443,0.7362531969309463
1840,0.04903125106036443,0.7365728900255755
1841,0.0490651827219979,0.7365728900255755
1842,0.0490651827219979,0.737531969309463
1843,0.04908214855281463,0.737531969309463
1844,0.04908214855281463,0.7381713554987213
1845,0.049404499338332596,0.7381713554987213
1846,0.049404499338332596,0.7384910485933504
1847,0.04967595263140036,0.7384910485933504
1848,0.04967595263140036,0.7388107416879796
1849,0.049692918462217094,0.7388107416879796
1850,0.049692918462217094,0.7394501278772379
1851,0.04970988429303383,0.7394501278772379
1852,0.04970988429303383,0.739769820971867
1853,0.04982864510875098,0.739769820971867
1854,0.04982864510875098,0.7400895140664961
1855,0.04991347426283465,0.7400895140664961
1856,0.04991347426283465,0.7404092071611253
1857,0.04994740592446812,0.7404092071611253
1858,0.04994740592446812,0.7407289002557544
1859,0.04998133758610159,0.7407289002557544
1860,0.05001526924773506,0.7407289002557544
1861,0.05001526924773506,0.7410485933503836
1862,0.05011706423263547,0.7410485933503836
1863,0.05011706423263547,0.7416879795396419
1864,0.05023582504835262,0.7416879795396419
1865,0.05023582504835262,0.7420076726342711
1866,0.050286722540802825,0.7420076726342711
1867,0.050286722540802825,0.7423273657289002
1868,0.05035458586406976,0.7423273657289002
1869,0.05035458586406976,0.7426470588235294
1870,0.05038851752570323,0.7426470588235294
1871,0.05038851752570323,0.7429667519181585
1872,0.05040548335651997,0.7429667519181585
1873,0.05040548335651997,0.7432864450127877
1874,0.050727834142037936,0.7432864450127877
1875,0.050727834142037936,0.7436061381074168
1876,0.05074479997285467,0.7436061381074168
1877,0.05074479997285467,0.7442455242966752
1878,0.05079569746530488,0.7442455242966752
1879,0.05079569746530488,0.7445652173913043
1880,0.05082962912693834,0.7445652173913043
1881,0.05082962912693834,0.7448849104859335
1882,0.05084659495775508,0.7448849104859335
1883,0.05084659495775508,0.7452046035805626
1884,0.0512877065589902,0.7452046035805626
1885,0.0512877065589902,0.7455242966751918
1886,0.05144039903634081,0.7455242966751918
1887,0.05144039903634081,0.745843989769821
1888,0.05155915985205795,0.745843989769821
1889,0.05155915985205795,0.7464833759590793
1890,0.051779715652675515,0.7464833759590793
1891,0.051779715652675515,0.7468030690537084
1892,0.052271724746360826,0.7468030690537084
1893,0.052271724746360826,0.7474424552429667
1894,0.052356553900444504,0.7474424552429667
1895,0.052356553900444504,0.7477621483375959
1896,0.052560143870245324,0.7477621483375959
1897,0.052594075531878795,0.7477621483375959
1898,0.05267890468596247,0.7477621483375959
1899,0.05267890468596247,0.7480818414322251
1900,0.05272980217841268,0.7480818414322251
1901,0.05272980217841268,0.7484015345268542
1902,0.05288249465576329,0.7484015345268542
1903,0.05288249465576329,0.7487212276214834
1904,0.05313698211801432,0.7487212276214834
1905,0.05313698211801432,0.7490409207161125
1906,0.05317091377964779,0.7490409207161125
1907,0.05317091377964779,0.7493606138107417
1908,0.05320484544128126,0.7493606138107417
1909,0.05320484544128126,0.7496803069053708
1910,0.053323606256998404,0.7496803069053708
1911,0.053323606256998404,0.75
1912,0.05337450374944861,0.75
1913,0.05337450374944861,0.7503196930946292
1914,0.05345933290353229,0.7503196930946292
1915,0.05345933290353229,0.7506393861892583
1916,0.053713820365783316,0.7506393861892583
1917,0.053713820365783316,0.7509590792838875
1918,0.05374775202741678,0.7509590792838875
1919,0.053764717858233516,0.7509590792838875
1920,0.053764717858233516,0.7512787723785166
1921,0.053883478673950665,0.7512787723785166
1922,0.053883478673950665,0.7515984654731458
1923,0.05393437616640087,0.7515984654731458
1924,0.05393437616640087,0.7519181585677749
1925,0.05398527365885107,0.7519181585677749
1926,0.05398527365885107,0.7522378516624041
1927,0.05413796613620169,0.7522378516624041
1928,0.05413796613620169,0.7525575447570333
1929,0.0541888636286519,0.7525575447570333
1930,0.0541888636286519,0.7528772378516624
1931,0.05422279529028536,0.7528772378516624
1932,0.05422279529028536,0.7531969309462916
1933,0.054290658613552305,0.7531969309462916
1934,0.054290658613552305,0.7535166240409207
1935,0.054816599368871094,0.7535166240409207
1936,0.054816599368871094,0.7538363171355499
1937,0.05491839435377151,0.7538363171355499
1938,0.05491839435377151,0.754156010230179
1939,0.054935360184588236,0.754156010230179
1940,0.054935360184588236,0.7544757033248082
1941,0.05495232601540497,0.7544757033248082
1942,0.05495232601540497,0.7547953964194374
1943,0.055054121000305385,0.7547953964194374
1944,0.055054121000305385,0.7551150895140665
1945,0.05507108683112212,0.7551150895140665
1946,0.05507108683112212,0.7554347826086957
1947,0.05510501849275559,0.7554347826086957
1948,0.05510501849275559,0.7557544757033248
1949,0.05518984764683926,0.7557544757033248
1950,0.05518984764683926,0.756074168797954
1951,0.055223779308472734,0.756074168797954
1952,0.055223779308472734,0.7563938618925832
1953,0.055427369278273554,0.7563938618925832
1954,0.055427369278273554,0.7567135549872123
1955,0.05571578840215805,0.7567135549872123
1956,0.05571578840215805,0.7576726342710998
1957,0.05573275423297479,0.7576726342710998
1958,0.05573275423297479,0.7579923273657289
1959,0.05586848087950867,0.7579923273657289
1960,0.05586848087950867,0.7583120204603581
1961,0.056021173356859286,0.7583120204603581
1962,0.056021173356859286,0.7586317135549873
1963,0.05627566081911031,0.7586317135549873
1964,0.05627566081911031,0.7589514066496164
1965,0.05653014828136134,0.7589514066496164
1966,0.05653014828136134,0.7592710997442456
1967,0.05656407994299481,0.7592710997442456
1968,0.05656407994299481,0.7595907928388747
1969,0.05720878151403074,0.7595907928388747
1970,0.05720878151403074,0.7599104859335039
1971,0.05724271317566421,0.7599104859335039
1972,0.05724271317566421,0.760230179028133
1973,0.057548098130365447,0.760230179028133
1974,0.057548098130365447,0.7605498721227621
1975,0.05766685894608259,0.7605498721227621
1976,0.05766685894608259,0.7608695652173914
1977,0.05773472226934953,0.7608695652173914
1978,0.05773472226934953,0.7615089514066496
1979,0.05802314139323403,0.7615089514066496
1980,0.05802314139323403,0.7618286445012787
1981,0.05826066302466832,0.7618286445012787
1982,0.05826066302466832,0.7621483375959079
1983,0.05846425299446914,0.7621483375959079
1984,0.05846425299446914,0.762468030690537
1985,0.05851515048691935,0.762468030690537
1986,0.05851515048691935,0.7627877237851662
1987,0.05854908214855281,0.7627877237851662
1988,0.05854908214855281,0.7631074168797954
1989,0.05870177462590343,0.7631074168797954
1990,0.05870177462590343,0.7634271099744245
1991,0.05871874045672017,0.7634271099744245
1992,0.05871874045672017,0.7637468030690537
1993,0.0590241254114214,0.7637468030690537
1994,0.0590241254114214,0.7640664961636828
1995,0.059091988734688336,0.7640664961636828
1996,0.059091988734688336,0.764386189258312
1997,0.05932951036612263,0.764386189258312
1998,0.05932951036612263,0.7647058823529411
1999,0.05939737368938957,0.7647058823529411
2000,0.05939737368938957,0.7650255754475703
2001,0.05966882698245733,0.7650255754475703
2002,0.05966882698245733,0.7653452685421995
2003,0.05990634861389162,0.7653452685421995
2004,0.05990634861389162,0.7659846547314578
2005,0.059940280275525094,0.7659846547314578
2006,0.059940280275525094,0.7663043478260869
2007,0.060347460215126734,0.7663043478260869
2008,0.060347460215126734,0.7666240409207161
2009,0.06036442604594347,0.7666240409207161
2010,0.06036442604594347,0.7669437340153452
2011,0.06041532353839368,0.7669437340153452
2012,0.06041532353839368,0.7672634271099744
2013,0.060703742662278175,0.7672634271099744
2014,0.060703742662278175,0.7675831202046036
2015,0.06077160598554511,0.7675831202046036
2016,0.06077160598554511,0.7679028132992327
2017,0.060941264293712466,0.7679028132992327
2018,0.060941264293712466,0.7682225063938619
2019,0.060992161786162666,0.7682225063938619
2020,0.060992161786162666,0.768542199488491
2021,0.0610091276169794,0.768542199488491
2022,0.0610091276169794,0.7688618925831202
2023,0.06133147840249737,0.7688618925831202
2024,0.06133147840249737,0.7691815856777494
2025,0.061348444233314106,0.7691815856777494
2026,0.06138237589494758,0.7691815856777494
2027,0.06177259000373248,0.7691815856777494
2028,0.06177259000373248,0.7695012787723785
2029,0.06199314580435004,0.7695012787723785
2030,0.06199314580435004,0.7698209718670077
2031,0.06202707746598351,0.7698209718670077
2032,0.06202707746598351,0.7701406649616368
2033,0.06216280411251739,0.7701406649616368
2034,0.06216280411251739,0.770460358056266
2035,0.062281564928234535,0.770460358056266
2036,0.062281564928234535,0.7707800511508951
2037,0.06234942825150148,0.7707800511508951
2038,0.06234942825150148,0.7710997442455243
2039,0.06236639408231821,0.7710997442455243
2040,0.06236639408231821,0.7714194373401535
2041,0.06238335991313495,0.7714194373401535
2042,0.06238335991313495,0.7717391304347826
2043,0.06263784737538597,0.7717391304347826
2044,0.06263784737538597,0.7726982097186701
2045,0.06331648060805538,0.7726982097186701
2046,0.06331648060805538,0.7730179028132992
2047,0.06338434393132232,0.7730179028132992
2048,0.06338434393132232,0.7733375959079284
2049,0.06343524142377252,0.7733375959079284
2050,0.06343524142377252,0.7736572890025576
2051,0.06377455804010722,0.7736572890025576
2052,0.06377455804010722,0.7739769820971867
2053,0.06396118217909132,0.7739769820971867
2054,0.06396118217909132,0.7742966751918159
2055,0.0642496013029758,0.7742966751918159
2056,0.0642496013029758,0.7749360613810742
2057,0.06462284958094398,0.7749360613810742
2058,0.06462284958094398,0.7752557544757033
2059,0.06475857622747785,0.7752557544757033
2060,0.06475857622747785,0.7755754475703325
2061,0.06501306368972888,0.7755754475703325
2062,0.06501306368972888,0.7758951406649617
2063,0.06509789284381257,0.7758951406649617
2064,0.06509789284381257,0.7762148337595908
2065,0.06540327779851379,0.7762148337595908
2066,0.06540327779851379,0.77653452685422
2067,0.06558990193749788,0.77653452685422
2068,0.06558990193749788,0.7768542199488491
2069,0.06572562858403176,0.7768542199488491
2070,0.06572562858403176,0.7771739130434783
2071,0.06614977435445014,0.7771739130434783
2072,0.06614977435445014,0.7774936061381074
2073,0.06645515930915137,0.7774936061381074
2074,0.06645515930915137,0.7778132992327366
2075,0.06674357843303587,0.7778132992327366
2076,0.06674357843303587,0.7781329923273658
2077,0.06689627091038648,0.7781329923273658
2078,0.06689627091038648,0.7784526854219949
2079,0.06732041668080486,0.7784526854219949
2080,0.06732041668080486,0.7787723785166241
2081,0.06743917749652201,0.7787723785166241
2082,0.06747310915815548,0.7787723785166241
2083,0.06771063078958976,0.7787723785166241
2084,0.06771063078958976,0.7790920716112532
2085,0.06774456245122323,0.7790920716112532
2086,0.06774456245122323,0.7794117647058824
2087,0.06781242577449018,0.7794117647058824
2088,0.06781242577449018,0.7797314578005116
2089,0.06789725492857385,0.7797314578005116
2090,0.06789725492857385,0.7803708439897699
2091,0.06794815242102406,0.7803708439897699
2092,0.06794815242102406,0.780690537084399
2093,0.06803298157510773,0.780690537084399
2094,0.06803298157510773,0.7813299232736572
2095,0.06820263988327509,0.7813299232736572
2096,0.06820263988327509,0.7816496163682864
2097,0.0683044348681755,0.7816496163682864
2098,0.0683044348681755,0.7819693094629157
2099,0.06850802483797631,0.7819693094629157
2100,0.06850802483797631,0.7822890025575447
2101,0.06854195649960979,0.7822890025575447
2102,0.06854195649960979,0.782608695652174
2103,0.06867768314614367,0.782608695652174
2104,0.06871161480777714,0.782608695652174
2105,0.06877947813104408,0.782608695652174
2106,0.06877947813104408,0.782928388746803
2107,0.06879644396186081,0.782928388746803
2108,0.06879644396186081,0.7832480818414322
2109,0.06888127311594448,0.7832480818414322
2110,0.06888127311594448,0.7835677749360613
2111,0.06900003393166164,0.7835677749360613
2112,0.06900003393166164,0.7838874680306905
2113,0.06908486308574531,0.7838874680306905
2114,0.06908486308574531,0.7842071611253197
2115,0.06911879474737878,0.7842071611253197
2116,0.06911879474737878,0.7845268542199488
2117,0.06918665807064572,0.7845268542199488
2118,0.06918665807064572,0.784846547314578
2119,0.0693223847171796,0.784846547314578
2120,0.0693223847171796,0.7851662404092071
2121,0.0700519154422992,0.7851662404092071
2122,0.0700519154422992,0.7854859335038363
2123,0.07027247124291676,0.7854859335038363
2124,0.07027247124291676,0.7858056265984654
2125,0.07044212955108412,0.7858056265984654
2126,0.07044212955108412,0.7861253196930946
2127,0.07054392453598453,0.7861253196930946
2128,0.07054392453598453,0.7867647058823529
2129,0.07059482202843473,0.7867647058823529
2130,0.07059482202843473,0.7870843989769821
2131,0.07061178785925147,0.7870843989769821
2132,0.07061178785925147,0.7874040920716112
2133,0.07084930949068576,0.7874040920716112
2134,0.07084930949068576,0.7877237851662404
2135,0.07096807030640291,0.7877237851662404
2136,0.07096807030640291,0.7880434782608695
2137,0.07108683112212005,0.7880434782608695
2138,0.07108683112212005,0.7883631713554987
2139,0.07110379695293678,0.7883631713554987
2140,0.07110379695293678,0.7886828644501279
2141,0.07129042109192087,0.7886828644501279
2142,0.07129042109192087,0.789002557544757
2143,0.07151097689253842,0.789002557544757
2144,0.07151097689253842,0.7893222506393862
2145,0.0716467035390723,0.7893222506393862
2146,0.0716467035390723,0.7896419437340153
2147,0.07176546435478945,0.7896419437340153
2148,0.07176546435478945,0.7899616368286445
2149,0.07186725933968986,0.7899616368286445
2150,0.07186725933968986,0.7902813299232737
2151,0.0718842251705066,0.7902813299232737
2152,0.0718842251705066,0.7906010230179028
2153,0.071986020155407,0.7906010230179028
2154,0.071986020155407,0.790920716112532
2155,0.07205388347867395,0.790920716112532
2156,0.07205388347867395,0.7912404092071611
2157,0.07224050761765803,0.7912404092071611
2158,0.07224050761765803,0.7915601023017903
2159,0.0722744392792915,0.7915601023017903
2160,0.0722744392792915,0.7918797953964194
2161,0.07239320009500866,0.7918797953964194
2162,0.07239320009500866,0.7921994884910486
2163,0.07264768755725969,0.7921994884910486
2164,0.07264768755725969,0.7925191815856778
2165,0.07273251671134336,0.7925191815856778
2166,0.07273251671134336,0.7928388746803069
2167,0.07325845746666214,0.7928388746803069
2168,0.07325845746666214,0.7931585677749361
2169,0.07339418411319602,0.7931585677749361
2170,0.07339418411319602,0.7934782608695652
2171,0.07341114994401275,0.7934782608695652
2172,0.07341114994401275,0.7937979539641944
2173,0.07344508160564622,0.7937979539641944
2174,0.07344508160564622,0.7941176470588235
2175,0.07346204743646297,0.7941176470588235
2176,0.07346204743646297,0.7944373401534527
2177,0.07361473991381358,0.7944373401534527
2178,0.07361473991381358,0.7947570332480819
2179,0.07366563740626378,0.7947570332480819
2180,0.07366563740626378,0.795076726342711
2181,0.07380136405279766,0.795076726342711
2182,0.07380136405279766,0.7953964194373402
2183,0.07393709069933155,0.7953964194373402
2184,0.07393709069933155,0.7957161125319693
2185,0.07402191985341522,0.7957161125319693
2186,0.07402191985341522,0.7960358056265985
2187,0.0741067490074989,0.7960358056265985
2188,0.0741067490074989,0.7963554987212276
2189,0.07417461233076583,0.7963554987212276
2190,0.07417461233076583,0.7966751918158568
2191,0.07422550982321605,0.7966751918158568
2192,0.07422550982321605,0.796994884910486
2193,0.07458179227036749,0.796994884910486
2194,0.07458179227036749,0.7973145780051151
2195,0.07463268976281769,0.7973145780051151
2196,0.07463268976281769,0.7976342710997443
2197,0.07468358725526789,0.7976342710997443
2198,0.07468358725526789,0.7979539641943734
2199,0.0747344847477181,0.7979539641943734
2200,0.0747344847477181,0.7982736572890026
2201,0.07490414305588544,0.7982736572890026
2202,0.07490414305588544,0.7989130434782609
2203,0.07514166468731974,0.7989130434782609
2204,0.07514166468731974,0.7992327365728901
2205,0.07527739133385362,0.7992327365728901
2206,0.07527739133385362,0.7995524296675192
2207,0.07529435716467035,0.7995524296675192
2208,0.07529435716467035,0.7998721227621484
2209,0.07559974211937158,0.7998721227621484
2210,0.07559974211937158,0.8001918158567775
2211,0.07568457127345526,0.8001918158567775
2212,0.07568457127345526,0.8005115089514067
2213,0.0758033320891724,0.8005115089514067
2214,0.0758033320891724,0.8008312020460358
2215,0.07583726375080588,0.8008312020460358
2216,0.07583726375080588,0.801150895140665
2217,0.07621051202877405,0.801150895140665
2218,0.07621051202877405,0.8021099744245525
2219,0.07656679447592549,0.8021099744245525
2220,0.07656679447592549,0.8024296675191815
2221,0.07665162363000916,0.8024296675191815
2222,0.07665162363000916,0.80306905370844
2223,0.07673645278409284,0.80306905370844
2224,0.07673645278409284,0.803388746803069
2225,0.07709273523124427,0.803388746803069
2226,0.07709273523124427,0.8037084398976982
2227,0.07710970106206101,0.8037084398976982
2228,0.07710970106206101,0.8040281329923273
2229,0.07719453021614468,0.8040281329923273
2230,0.07719453021614468,0.8043478260869565
2231,0.07721149604696143,0.8043478260869565
2232,0.07721149604696143,0.8046675191815856
2233,0.07733025686267857,0.8046675191815856
2234,0.07733025686267857,0.805306905370844
2235,0.07775440263309694,0.805306905370844
2236,0.07775440263309694,0.8056265984654731
2237,0.07817854840351532,0.8056265984654731
2238,0.07821248006514879,0.8056265984654731
2239,0.0783142750500492,0.8056265984654731
2240,0.0783142750500492,0.8062659846547314
2241,0.0783651725424994,0.8062659846547314
2242,0.0783651725424994,0.8065856777493606
2243,0.07841607003494962,0.8065856777493606
2244,0.07841607003494962,0.8069053708439897
2245,0.07846696752739982,0.8069053708439897
2246,0.07846696752739982,0.8072250639386189
2247,0.07853483085066676,0.8072250639386189
2248,0.07853483085066676,0.8075447570332481
2249,0.07858572834311696,0.8075447570332481
2250,0.07858572834311696,0.8078644501278772
2251,0.07861966000475043,0.8078644501278772
2252,0.07861966000475043,0.8081841432225064
2253,0.07875538665128431,0.8081841432225064
2254,0.07875538665128431,0.8085038363171355
2255,0.07890807912863493,0.8085038363171355
2256,0.07890807912863493,0.8088235294117647
2257,0.07897594245190187,0.8088235294117647
2258,0.07897594245190187,0.8091432225063938
2259,0.0792813274066031,0.8091432225063938
2260,0.0792813274066031,0.809462915601023
2261,0.07933222489905331,0.809462915601023
2262,0.07933222489905331,0.8097826086956522
2263,0.07936615656068678,0.8097826086956522
2264,0.07936615656068678,0.8107416879795396
2265,0.07941705405313698,0.8107416879795396
2266,0.07941705405313698,0.8110613810741688
2267,0.0795188490380374,0.8110613810741688
2268,0.0795188490380374,0.8113810741687979
2269,0.07968850734620474,0.8113810741687979
2270,0.07968850734620474,0.8117007672634271
2271,0.07972243900783821,0.8117007672634271
2272,0.07972243900783821,0.8120204603580563
2273,0.08007872145498965,0.8120204603580563
2274,0.08007872145498965,0.8123401534526854
2275,0.08023141393234026,0.8123401534526854
2276,0.08023141393234026,0.8129795396419437
2277,0.080248379763157,0.8129795396419437
2278,0.08028231142479048,0.8129795396419437
2279,0.08046893556377456,0.8129795396419437
2280,0.08046893556377456,0.8132992327365729
2281,0.08048590139459129,0.8132992327365729
2282,0.08048590139459129,0.8136189258312021
2283,0.0805367988870415,0.8136189258312021
2284,0.0805367988870415,0.8139386189258312
2285,0.0805876963794917,0.8139386189258312
2286,0.0805876963794917,0.8142583120204604
2287,0.08068949136439212,0.8142583120204604
2288,0.08068949136439212,0.8145780051150895
2289,0.08070645719520884,0.8145780051150895
2290,0.08070645719520884,0.8148976982097187
2291,0.08106273964236028,0.8148976982097187
2292,0.08106273964236028,0.815537084398977
2293,0.08123239795052764,0.815537084398977
2294,0.08123239795052764,0.8158567774936062
2295,0.08136812459706151,0.8158567774936062
2296,0.08136812459706151,0.8161764705882353
2297,0.08155474873604561,0.8161764705882353
2298,0.08155474873604561,0.8164961636828645
2299,0.08163957789012928,0.8164961636828645
2300,0.08163957789012928,0.8168158567774936
2301,0.08197889450646398,0.8168158567774936
2302,0.08197889450646398,0.8171355498721228
2303,0.08226731363034848,0.8171355498721228
2304,0.08226731363034848,0.8174552429667519
2305,0.0824709036001493,0.8174552429667519
2306,0.0824709036001493,0.8177749360613811
2307,0.08267449356995012,0.8177749360613811
2308,0.08267449356995012,0.8180946291560103
2309,0.08269145940076686,0.8180946291560103
2310,0.08269145940076686,0.8184143222506394
2311,0.08296291269383461,0.8184143222506394
2312,0.08296291269383461,0.8187340153452686
2313,0.08303077601710156,0.8187340153452686
2314,0.08303077601710156,0.8190537084398977
2315,0.08355671677242034,0.8190537084398977
2316,0.08355671677242034,0.8193734015345269
2317,0.083963896712022,0.8193734015345269
2318,0.083963896712022,0.819693094629156
2319,0.0841165891893726,0.819693094629156
2320,0.0841165891893726,0.8200127877237852
2321,0.08430321332835669,0.8200127877237852
2322,0.08430321332835669,0.8206521739130435
2323,0.08437107665162363,0.8206521739130435
2324,0.08437107665162363,0.8209718670076727
2325,0.08459163245224119,0.8209718670076727
2326,0.08459163245224119,0.8212915601023018
2327,0.08460859828305792,0.8212915601023018
2328,0.08460859828305792,0.821611253196931
2329,0.08464252994469139,0.821611253196931
2330,0.08464252994469139,0.82193094629156
2331,0.08477825659122527,0.82193094629156
2332,0.08477825659122527,0.8222506393861893
2333,0.08515150486919344,0.8222506393861893
2334,0.08515150486919344,0.8225703324808185
2335,0.08525329985409386,0.8225703324808185
2336,0.08525329985409386,0.8228900255754475
2337,0.08547385565471141,0.8228900255754475
2338,0.08547385565471141,0.8232097186700768
2339,0.08550778731634488,0.8232097186700768
2340,0.08550778731634488,0.8235294117647058
2341,0.08564351396287877,0.8235294117647058
2342,0.08567744562451224,0.8235294117647058
2343,0.0863900105188151,0.8235294117647058
2344,0.0863900105188151,0.823849104859335
2345,0.08640697634963185,0.823849104859335
2346,0.08640697634963185,0.8241687979539642
2347,0.0866275321502494,0.8241687979539642
2348,0.0866275321502494,0.8244884910485933
2349,0.08669539547351633,0.8244884910485933
2350,0.08669539547351633,0.8248081841432225
2351,0.08689898544331716,0.8248081841432225
2352,0.08689898544331716,0.8251278772378516
2353,0.0869668487665841,0.8251278772378516
2354,0.0869668487665841,0.8254475703324808
2355,0.08705167792066777,0.8254475703324808
2356,0.08705167792066777,0.8257672634271099
2357,0.08713650707475146,0.8257672634271099
2358,0.08717043873638491,0.8257672634271099
2359,0.08773031115333718,0.8257672634271099
2360,0.08773031115333718,0.8260869565217391
2361,0.08781514030742085,0.8260869565217391
2362,0.08781514030742085,0.8264066496163683
2363,0.08784907196905432,0.8264066496163683
2364,0.08784907196905432,0.8267263427109974
2365,0.08786603779987107,0.8267263427109974
2366,0.08786603779987107,0.8270460358056266
2367,0.08800176444640494,0.8270460358056266
2368,0.08800176444640494,0.8273657289002557
2369,0.08818838858538902,0.8273657289002557
2370,0.08818838858538902,0.8276854219948849
2371,0.08835804689355638,0.8276854219948849
2372,0.08835804689355638,0.828005115089514
2373,0.0883750127243731,0.828005115089514
2374,0.0883750127243731,0.8283248081841432
2375,0.0886634318482576,0.8283248081841432
2376,0.0886634318482576,0.8289641943734015
2377,0.08871432934070782,0.8289641943734015
2378,0.08871432934070782,0.8292838874680307
2379,0.08885005598724169,0.8292838874680307
2380,0.08888398764887516,0.8292838874680307
2381,0.0889009534796919,0.8292838874680307
2382,0.08893488514132537,0.8292838874680307
2383,0.08980014251297887,0.8292838874680307
2384,0.08980014251297887,0.8296035805626598
2385,0.08985104000542907,0.8296035805626598
2386,0.08985104000542907,0.829923273657289
2387,0.08998676665196295,0.829923273657289
2388,0.08998676665196295,0.8302429667519181
2389,0.09003766414441315,0.8302429667519181
2390,0.09003766414441315,0.8305626598465473
2391,0.09008856163686335,0.8305626598465473
2392,0.09008856163686335,0.8308823529411765
2393,0.09012249329849682,0.8308823529411765
2394,0.09012249329849682,0.8312020460358056
2395,0.09068236571544909,0.8312020460358056
2396,0.09068236571544909,0.8315217391304348
2397,0.0908859556852499,0.8315217391304348
2398,0.0908859556852499,0.8318414322250639
2399,0.09107257982423399,0.8318414322250639
2400,0.09107257982423399,0.8321611253196931
2401,0.09131010145566829,0.8321611253196931
2402,0.09131010145566829,0.8324808184143222
2403,0.09134403311730176,0.8324808184143222
2404,0.09134403311730176,0.8328005115089514
2405,0.09147975976383564,0.8328005115089514
2406,0.09147975976383564,0.8331202046035806
2407,0.09166638390281973,0.8331202046035806
2408,0.09166638390281973,0.8337595907928389
2409,0.09185300804180381,0.8337595907928389
2410,0.09185300804180381,0.834079283887468
2411,0.09200570051915442,0.834079283887468
2412,0.09200570051915442,0.8343989769820972
2413,0.09205659801160462,0.8343989769820972
2414,0.09205659801160462,0.8347186700767263
2415,0.0925316412744732,0.8347186700767263
2416,0.0925316412744732,0.8350383631713555
2417,0.09266736792100709,0.8350383631713555
2418,0.09266736792100709,0.8353580562659847
2419,0.0928200603983577,0.8353580562659847
2420,0.0928200603983577,0.8356777493606138
2421,0.09353262529266058,0.8356777493606138
2422,0.09353262529266058,0.835997442455243
2423,0.09375318109327814,0.835997442455243
2424,0.09375318109327814,0.8363171355498721
2425,0.09382104441654508,0.8363171355498721
2426,0.09382104441654508,0.8366368286445013
2427,0.09482202843473245,0.8366368286445013
2428,0.09482202843473245,0.8369565217391305
2429,0.09500865257371653,0.8369565217391305
2430,0.09500865257371653,0.8372762148337596
2431,0.09572121746801941,0.8372762148337596
2432,0.09572121746801941,0.8375959079283888
2433,0.09577211496046961,0.8375959079283888
2434,0.09577211496046961,0.8379156010230179
2435,0.09578908079128635,0.8379156010230179
2436,0.09578908079128635,0.8382352941176471
2437,0.09587390994537003,0.8382352941176471
2438,0.09587390994537003,0.8388746803069054
2439,0.09617929490007125,0.8388746803069054
2440,0.09617929490007125,0.8391943734015346
2441,0.09623019239252147,0.8391943734015346
2442,0.09623019239252147,0.8395140664961637
2443,0.09634895320823861,0.8395140664961637
2444,0.09634895320823861,0.8398337595907929
2445,0.09677309897865699,0.8398337595907929
2446,0.09677309897865699,0.840153452685422
2447,0.09702758644090802,0.840153452685422
2448,0.09702758644090802,0.8404731457800512
2449,0.09704455227172475,0.8404731457800512
2450,0.09704455227172475,0.8411125319693095
2451,0.0973160055647925,0.8411125319693095
2452,0.0973160055647925,0.8414322250639387
2453,0.097604424688677,0.8414322250639387
2454,0.097604424688677,0.8417519181585678
2455,0.09777408299684436,0.8417519181585678
2456,0.09777408299684436,0.842071611253197
2457,0.098181262936446,0.842071611253197
2458,0.098181262936446,0.842391304347826
2459,0.09819822876726274,0.842391304347826
2460,0.09819822876726274,0.8427109974424553
2461,0.09821519459807947,0.8427109974424553
2462,0.09821519459807947,0.8430306905370843
2463,0.0985205795527807,0.8430306905370843
2464,0.0985205795527807,0.8433503836317136
2465,0.09855451121441416,0.8433503836317136
2466,0.0985714770452309,0.8433503836317136
2467,0.0985714770452309,0.8436700767263428
2468,0.09869023786094805,0.8436700767263428
2469,0.09869023786094805,0.8439897698209718
2470,0.09872416952258152,0.8439897698209718
2471,0.09872416952258152,0.844309462915601
2472,0.0991483152929999,0.844309462915601
2473,0.0991483152929999,0.8449488491048593
2474,0.09936887109361746,0.8449488491048593
2475,0.09936887109361746,0.8452685421994884
2476,0.0994876319093346,0.8452685421994884
2477,0.0994876319093346,0.8459079283887468
2478,0.10028502595772115,0.8459079283887468
2479,0.10028502595772115,0.8462276214833759
2480,0.10030199178853788,0.8462276214833759
2481,0.10030199178853788,0.8465473145780051
2482,0.10036985511180482,0.8465473145780051
2483,0.10036985511180482,0.8468670076726342
2484,0.1004037867734383,0.8468670076726342
2485,0.1004037867734383,0.8471867007672634
2486,0.10042075260425504,0.8471867007672634
2487,0.10042075260425504,0.8475063938618926
2488,0.10042075260425504,0.8481457800511509
2489,0.10059041091242238,0.8481457800511509
2490,0.10060737674323912,0.84846547314578
2491,0.10086186420549015,0.84846547314578
2492,0.10086186420549015,0.8487851662404092
2493,0.10091276169794035,0.8487851662404092
2494,0.10091276169794035,0.8491048593350383
2495,0.10098062502120729,0.8491048593350383
2496,0.10098062502120729,0.8494245524296675
2497,0.10111635166774118,0.8494245524296675
2498,0.10111635166774118,0.8497442455242967
2499,0.10135387329917546,0.8497442455242967
2500,0.10135387329917546,0.8500639386189258
2501,0.10164229242305996,0.8500639386189258
2502,0.10164229242305996,0.850383631713555
2503,0.10216823317837874,0.850383631713555
2504,0.10216823317837874,0.8507033248081841
2505,0.1023378914865461,0.8507033248081841
2506,0.1023378914865461,0.8510230179028133
2507,0.10316921719656612,0.8510230179028133
2508,0.10316921719656612,0.8513427109974424
2509,0.10350853381290082,0.8513427109974424
2510,0.10350853381290082,0.8516624040920716
2511,0.10383088459841879,0.8516624040920716
2512,0.10383088459841879,0.8519820971867008
2513,0.10389874792168573,0.8519820971867008
2514,0.1039326795833192,0.8519820971867008
2515,0.10417020121475348,0.8519820971867008
2516,0.10417020121475348,0.8523017902813299
2517,0.10437379118455431,0.8523017902813299
2518,0.10437379118455431,0.8526214833759591
2519,0.1046113128159886,0.8526214833759591
2520,0.1046113128159886,0.8532608695652174
2521,0.10476400529333922,0.8532608695652174
2522,0.10479793695497268,0.8532608695652174
2523,0.10544263852600862,0.8532608695652174
2524,0.10544263852600862,0.8535805626598465
2525,0.10554443351090903,0.8535805626598465
2526,0.10554443351090903,0.8539002557544757
2527,0.10559533100335923,0.8539002557544757
2528,0.10559533100335923,0.8542199488491049
2529,0.10583285263479353,0.8542199488491049
2530,0.10583285263479353,0.854539641943734
2531,0.10601947677377761,0.854539641943734
2532,0.10601947677377761,0.8548593350383632
2533,0.10605340843541108,0.8548593350383632
2534,0.10605340843541108,0.8551790281329923
2535,0.10613823758949475,0.8551790281329923
2536,0.10613823758949475,0.8554987212276215
2537,0.10739370906993316,0.8554987212276215
2538,0.10739370906993316,0.8558184143222506
2539,0.10752943571646703,0.8558184143222506
2540,0.10752943571646703,0.8561381074168798
2541,0.10797054731770214,0.8561381074168798
2542,0.10797054731770214,0.856457800511509
2543,0.10800447897933561,0.856457800511509
2544,0.10800447897933561,0.8567774936061381
2545,0.10810627396423603,0.8567774936061381
2546,0.10810627396423603,0.8570971867007673
2547,0.10815717145668624,0.8570971867007673
2548,0.10815717145668624,0.8574168797953964
2549,0.10829289810322011,0.8574168797953964
2550,0.10829289810322011,0.8577365728900256
2551,0.1087679413660887,0.8577365728900256
2552,0.10880187302772217,0.8577365728900256
2553,0.10907332632078993,0.8577365728900256
2554,0.10907332632078993,0.8580562659846548
2555,0.10909029215160666,0.8580562659846548
2556,0.10909029215160666,0.8583759590792839
2557,0.10985375453835974,0.8583759590792839
2558,0.10985375453835974,0.8586956521739131
2559,0.11017610532387771,0.8586956521739131
2560,0.11017610532387771,0.8590153452685422
2561,0.11044755861694547,0.8590153452685422
2562,0.11044755861694547,0.8593350383631714
2563,0.11056631943266262,0.8593350383631714
2564,0.11056631943266262,0.8596547314578005
2565,0.11078687523328018,0.8596547314578005
2566,0.11078687523328018,0.8599744245524297
2567,0.11149944012758305,0.8599744245524297
2568,0.11149944012758305,0.8602941176470589
2569,0.11168606426656713,0.8602941176470589
2570,0.11168606426656713,0.860613810741688
2571,0.11202538088290183,0.860613810741688
2572,0.11202538088290183,0.8609335038363172
2573,0.11238166333005327,0.8609335038363172
2574,0.11238166333005327,0.8615728900255755
2575,0.11250042414577043,0.8615728900255755
2576,0.11250042414577043,0.8618925831202046
2577,0.1126361507923043,0.8618925831202046
2578,0.1126361507923043,0.8622122762148338
2579,0.11273794577720471,0.8622122762148338
2580,0.11273794577720471,0.862531969309463
2581,0.1128736724237386,0.862531969309463
2582,0.1128736724237386,0.8628516624040921
2583,0.11311119405517288,0.8628516624040921
2584,0.11311119405517288,0.8631713554987213
2585,0.11319602320925656,0.8631713554987213
2586,0.11319602320925656,0.8634910485933504
2587,0.1133656815174239,0.8634910485933504
2588,0.1133656815174239,0.8638107416879796
2589,0.11338264734824065,0.8638107416879796
2590,0.11341657900987412,0.8638107416879796
2591,0.11373892979539207,0.8638107416879796
2592,0.11373892979539207,0.8641304347826086
2593,0.11378982728784229,0.8641304347826086
2594,0.11378982728784229,0.864769820971867
2595,0.11406128058091004,0.864769820971867
2596,0.11406128058091004,0.8650895140664961
2597,0.11421397305826066,0.8650895140664961
2598,0.11421397305826066,0.8654092071611253
2599,0.11424790471989413,0.8654092071611253
2600,0.11424790471989413,0.8657289002557544
2601,0.11513012792236436,0.8657289002557544
2602,0.11513012792236436,0.8660485933503836
2603,0.11563910284686642,0.8660485933503836
2604,0.11563910284686642,0.8663682864450127
2605,0.11565606867768315,0.8663682864450127
2606,0.11565606867768315,0.8670076726342711
2607,0.11591055613993417,0.8670076726342711
2608,0.11591055613993417,0.8673273657289002
2609,0.11602931695565132,0.8673273657289002
2610,0.11602931695565132,0.8676470588235294
2611,0.11643649689525296,0.8676470588235294
2612,0.11643649689525296,0.8679667519181585
2613,0.11699636931220522,0.8679667519181585
2614,0.11699636931220522,0.8682864450127877
2615,0.11711513012792236,0.8682864450127877
2616,0.11711513012792236,0.8686061381074168
2617,0.11714906178955584,0.8686061381074168
2618,0.11714906178955584,0.868925831202046
2619,0.11728478843608972,0.868925831202046
2620,0.11728478843608972,0.8692455242966752
2621,0.11743748091344033,0.8692455242966752
2622,0.11743748091344033,0.8695652173913043
2623,0.11772590003732483,0.8695652173913043
2624,0.11772590003732483,0.8698849104859335
2625,0.11794645583794239,0.8698849104859335
2626,0.11794645583794239,0.8705242966751918
2627,0.11801431916120933,0.8705242966751918
2628,0.11801431916120933,0.870843989769821
2629,0.11811611414610973,0.870843989769821
2630,0.11811611414610973,0.8711636828644501
2631,0.11904923484103017,0.8711636828644501
2632,0.11904923484103017,0.8714833759590793
2633,0.11918496148756405,0.8714833759590793
2634,0.11918496148756405,0.8718030690537084
2635,0.11960910725798242,0.8718030690537084
2636,0.11960910725798242,0.8721227621483376
2637,0.11972786807369958,0.8721227621483376
2638,0.11972786807369958,0.8724424552429667
2639,0.12006718469003427,0.8724424552429667
2640,0.12006718469003427,0.8727621483375959
2641,0.12054222795290286,0.8727621483375959
2642,0.12054222795290286,0.8730818414322251
2643,0.1209494078925045,0.8730818414322251
2644,0.1209494078925045,0.8734015345268542
2645,0.12111906620067185,0.8734015345268542
2646,0.12111906620067185,0.8737212276214834
2647,0.121237827016389,0.8737212276214834
2648,0.121237827016389,0.8740409207161125
2649,0.12135658783210614,0.8740409207161125
2650,0.12135658783210614,0.8743606138107417
2651,0.12161107529435716,0.8743606138107417
2652,0.12161107529435716,0.8746803069053708
2653,0.12179769943334125,0.8746803069053708
2654,0.12179769943334125,0.875
2655,0.12181466526415799,0.875
2656,0.12181466526415799,0.8753196930946292
2657,0.12184859692579146,0.8753196930946292
2658,0.12184859692579146,0.8756393861892583
2659,0.12193342607987513,0.8756393861892583
2660,0.12193342607987513,0.8759590792838875
2661,0.12198432357232533,0.8759590792838875
2662,0.12198432357232533,0.8762787723785166
2663,0.12212005021885922,0.8762787723785166
2664,0.12212005021885922,0.8765984654731458
2665,0.1231210342370466,0.8765984654731458
2666,0.1231210342370466,0.8769181585677749
2667,0.123222829221947,0.8769181585677749
2668,0.12325676088358047,0.8769181585677749
2669,0.12347731668419802,0.8769181585677749
2670,0.12347731668419802,0.8772378516624041
2671,0.12388449662379966,0.8772378516624041
2672,0.12388449662379966,0.8775575447570333
2673,0.12391842828543313,0.8775575447570333
2674,0.12391842828543313,0.8778772378516624
2675,0.12446133487156866,0.8778772378516624
2676,0.12446133487156866,0.8781969309462916
2677,0.12459706151810254,0.8781969309462916
2678,0.12459706151810254,0.8788363171355499
2679,0.12463099317973601,0.8788363171355499
2680,0.12463099317973601,0.879156010230179
2681,0.12464795901055274,0.879156010230179
2682,0.12464795901055274,0.8794757033248082
2683,0.12495334396525398,0.8794757033248082
2684,0.12495334396525398,0.8801150895140665
2685,0.1250721047809711,0.8801150895140665
2686,0.1250721047809711,0.8804347826086957
2687,0.1256828746903736,0.8804347826086957
2688,0.1256828746903736,0.881074168797954
2689,0.12598825964507482,0.881074168797954
2690,0.12598825964507482,0.8813938618925832
2691,0.1264124054154932,0.8813938618925832
2692,0.1264124054154932,0.8817135549872123
2693,0.12642937124630993,0.8817135549872123
2694,0.12642937124630993,0.8820332480818415
2695,0.12697227783244547,0.8820332480818415
2696,0.12697227783244547,0.8823529411764706
2697,0.1270910386481626,0.8823529411764706
2698,0.1270910386481626,0.8826726342710998
2699,0.12722676529469648,0.8826726342710998
2700,0.12722676529469648,0.8829923273657289
2701,0.12739642360286382,0.8829923273657289
2702,0.12739642360286382,0.8833120204603581
2703,0.12746428692613077,0.8833120204603581
2704,0.12746428692613077,0.8836317135549873
2705,0.12802415934308303,0.8836317135549873
2706,0.12802415934308303,0.8839514066496164
2707,0.1282447151437006,0.8839514066496164
2708,0.1282447151437006,0.8842710997442456
2709,0.12827864680533405,0.8842710997442456
2710,0.12827864680533405,0.8845907928388747
2711,0.1282956126361508,0.8845907928388747
2712,0.1282956126361508,0.8849104859335039
2713,0.12866886091411897,0.8849104859335039
2714,0.12866886091411897,0.885230179028133
2715,0.1286858267449357,0.885230179028133
2716,0.1286858267449357,0.8855498721227621
2717,0.12899121169963693,0.8855498721227621
2718,0.12899121169963693,0.8858695652173914
