,fpr,tpr
0,0.0,0.0
1,3.2382318606394537e-06,0.0
2,4.85734779095918e-06,0.0
3,4.85734779095918e-06,5.334898236816133e-05
4,6.476463721278907e-06,5.334898236816133e-05
5,6.476463721278907e-06,0.00010669796473632266
6,8.095579651598635e-06,0.00010669796473632266
7,8.095579651598635e-06,0.00018672143828856464
8,9.71469558191836e-06,0.00018672143828856464
9,9.71469558191836e-06,0.00026674491184080666
10,1.1333811512238087e-05,0.00026674491184080666
11,1.1333811512238087e-05,0.00034676838539304865
12,1.2952927442557815e-05,0.00034676838539304865
13,1.2952927442557815e-05,0.00042679185894529064
14,1.7810275233516995e-05,0.00042679185894529064
15,1.7810275233516995e-05,0.0005868388060497746
16,1.942939116383672e-05,0.0005868388060497746
17,1.942939116383672e-05,0.0006935367707860973
18,2.104850709415645e-05,0.0006935367707860973
19,2.104850709415645e-05,0.0009069327002587425
20,2.2667623024476175e-05,0.0009069327002587425
21,2.2667623024476175e-05,0.0009336071914428232
22,2.4286738954795904e-05,0.0009336071914428232
23,2.4286738954795904e-05,0.0010403051561791458
24,3.076320267607481e-05,0.0010403051561791458
25,3.076320267607481e-05,0.0010936541385473072
26,3.238231860639454e-05,0.0010936541385473072
27,3.238231860639454e-05,0.0011736776120995491
28,3.4001434536714264e-05,0.0011736776120995491
29,3.4001434536714264e-05,0.00120035210328363
30,3.562055046703399e-05,0.00120035210328363
31,3.562055046703399e-05,0.0014670970151244365
32,3.885878232767344e-05,0.0014670970151244365
33,3.885878232767344e-05,0.001493771506308517
34,4.3716130118632624e-05,0.001493771506308517
35,4.3716130118632624e-05,0.001520445997492598
36,4.533524604895235e-05,0.001520445997492598
37,4.533524604895235e-05,0.0015737949798607593
38,4.6954361979272075e-05,0.0015737949798607593
39,4.6954361979272075e-05,0.0017071674357811626
40,5.019259383991153e-05,0.0017071674357811626
41,5.019259383991153e-05,0.0017871909093334045
42,5.181170977023126e-05,0.0017871909093334045
43,5.181170977023126e-05,0.001813865400517485
44,5.3430825700550985e-05,0.001813865400517485
45,5.3430825700550985e-05,0.0019205633652538078
46,5.504994163087071e-05,0.0019205633652538078
47,5.504994163087071e-05,0.0020272613299901305
48,5.6669057561190436e-05,0.0020272613299901305
49,5.6669057561190436e-05,0.002294006241830937
50,5.9907289421829894e-05,0.002294006241830937
51,5.9907289421829894e-05,0.002320680733015018
52,6.152640535214963e-05,0.002320680733015018
53,6.152640535214963e-05,0.002454053188935421
54,6.800286907342853e-05,0.002454053188935421
55,6.800286907342853e-05,0.0025074021713035826
56,7.286021686438771e-05,0.0025074021713035826
57,7.609844872502716e-05,0.0025074021713035826
58,7.933668058566661e-05,0.0025074021713035826
59,7.933668058566661e-05,0.0025607511536717437
60,8.581314430694552e-05,0.0025607511536717437
61,8.581314430694552e-05,0.0025874256448558245
62,8.743226023726525e-05,0.0025874256448558245
63,8.743226023726525e-05,0.002614100136039905
64,8.905137616758498e-05,0.002614100136039905
65,8.905137616758498e-05,0.0027207981007762276
66,9.06704920979047e-05,0.0027207981007762276
67,9.06704920979047e-05,0.0027474725919603084
68,9.390872395854415e-05,0.0027474725919603084
69,9.390872395854415e-05,0.002774147083144389
70,9.552783988886388e-05,0.002774147083144389
71,9.552783988886388e-05,0.0028274960655125503
72,9.714695581918362e-05,0.0028274960655125503
73,9.714695581918362e-05,0.0029075195390647923
74,9.876607174950333e-05,0.0029075195390647923
75,9.876607174950333e-05,0.002934194030248873
76,0.00010038518767982307,0.002934194030248873
77,0.00010038518767982307,0.003174264450905599
78,0.00010200430361014279,0.003174264450905599
79,0.00010200430361014279,0.0032276134332737605
80,0.00010686165140110197,0.0032276134332737605
81,0.00010686165140110197,0.003254287924457841
82,0.00011009988326174142,0.003254287924457841
83,0.00011009988326174142,0.0033076369068260024
84,0.0001149572310527006,0.0033076369068260024
85,0.0001149572310527006,0.0033876603803782443
86,0.00011657634698302034,0.0033876603803782443
87,0.00011657634698302034,0.0035210328362986474
88,0.00011981457884365979,0.0035210328362986474
89,0.00011981457884365979,0.003547707327482728
90,0.00012305281070429925,0.003547707327482728
91,0.00012305281070429925,0.003574381818666809
92,0.00012467192663461897,0.003574381818666809
93,0.00012467192663461897,0.003654405292219051
94,0.0001262910425649387,0.003654405292219051
95,0.0001262910425649387,0.003707754274587212
96,0.0001279101584952584,0.003707754274587212
97,0.0001279101584952584,0.0037877777481394545
98,0.00012952927442557815,0.0037877777481394545
99,0.00012952927442557815,0.0038411267305076156
100,0.00013114839035589787,0.0038411267305076156
101,0.00013114839035589787,0.0038678012216916964
102,0.0001392439700074965,0.0038678012216916964
103,0.0001392439700074965,0.004081197151164341
104,0.00014248220186813596,0.004081197151164341
105,0.00014248220186813596,0.004214569607084745
106,0.00014410131779845568,0.004214569607084745
107,0.00014410131779845568,0.0043479420630051484
108,0.00014572043372877542,0.0043479420630051484
109,0.00014572043372877542,0.00442796553655739
110,0.00014733954965909514,0.00442796553655739
111,0.00014733954965909514,0.004481314518925551
112,0.00014895866558941486,0.004481314518925551
113,0.00014895866558941486,0.004614686974845955
114,0.0001505777815197346,0.004614686974845955
115,0.0001505777815197346,0.004641361466030036
116,0.00015219689745005433,0.004641361466030036
117,0.00015219689745005433,0.0046947104483981966
118,0.00015381601338037404,0.0046947104483981966
119,0.00015381601338037404,0.004748059430766358
120,0.00015543512931069376,0.004748059430766358
121,0.00015543512931069376,0.0047747339219504385
122,0.0001570542452410135,0.0047747339219504385
123,0.0001570542452410135,0.0048280829043186
124,0.00015867336117133323,0.0048280829043186
125,0.00015867336117133323,0.004881431886686762
126,0.00016029247710165295,0.004881431886686762
127,0.00016029247710165295,0.004908106377870842
128,0.0001635307089622924,0.004908106377870842
129,0.0001635307089622924,0.004961455360239004
130,0.00016514982489261213,0.004961455360239004
131,0.00016514982489261213,0.004988129851423084
132,0.0001683880567532516,0.004988129851423084
133,0.0001683880567532516,0.0050414788337912455
134,0.00017000717268357131,0.0050414788337912455
135,0.00017000717268357131,0.0051215023073434875
136,0.00017162628861389103,0.0051215023073434875
137,0.00017162628861389103,0.005148176798527568
138,0.00017324540454421078,0.005148176798527568
139,0.00017324540454421078,0.00522820027207981
140,0.0001748645204745305,0.00522820027207981
141,0.0001748645204745305,0.005308223745632052
142,0.00017648363640485022,0.005308223745632052
143,0.00017648363640485022,0.005388247219184294
144,0.00018296010012612912,0.005388247219184294
145,0.00018296010012612912,0.0054682706927365364
146,0.00018457921605644886,0.0054682706927365364
147,0.00018457921605644886,0.005521619675104697
148,0.00018619833198676858,0.005521619675104697
149,0.00018619833198676858,0.005654992131025101
150,0.00019591302756868695,0.005654992131025101
151,0.00019591302756868695,0.005708341113393262
152,0.00019753214349900667,0.005708341113393262
153,0.00019753214349900667,0.005761690095761423
154,0.0001991512594293264,0.005761690095761423
155,0.0001991512594293264,0.005788364586945504
156,0.00020238949128996585,0.005788364586945504
157,0.00020238949128996585,0.0058950625516818265
158,0.00020400860722028557,0.0058950625516818265
159,0.00020400860722028557,0.006135132972338552
160,0.00020562772315060532,0.006135132972338552
161,0.00020562772315060532,0.0062418309370748755
162,0.00020886595501124475,0.0062418309370748755
163,0.00020886595501124475,0.006321854410627117
164,0.0002104850709415645,0.006321854410627117
165,0.0002104850709415645,0.006348528901811198
166,0.00021534241873252366,0.006348528901811198
167,0.00021534241873252366,0.00642855237536344
168,0.0002169615346628434,0.00642855237536344
169,0.0002169615346628434,0.0066686227960201655
170,0.00022019976652348284,0.0066686227960201655
171,0.00022019976652348284,0.006721971778388327
172,0.0002234379983841223,0.006721971778388327
173,0.0002234379983841223,0.006775320760756489
174,0.00022505711431444202,0.006775320760756489
175,0.00022505711431444202,0.006801995251940569
176,0.00022667623024476174,0.006801995251940569
177,0.00022667623024476174,0.006855344234308731
178,0.0002299144621054012,0.006855344234308731
179,0.0002299144621054012,0.006882018725492811
180,0.00023153357803572093,0.006882018725492811
181,0.00023153357803572093,0.006988716690229134
182,0.00023315269396604067,0.006988716690229134
183,0.00023315269396604067,0.0070153911814132145
184,0.0002347718098963604,0.0070153911814132145
185,0.0002347718098963604,0.007122089146149537
186,0.0002412482736176393,0.007122089146149537
187,0.0002412482736176393,0.00720211261970178
188,0.000242867389547959,0.00720211261970178
189,0.000242867389547959,0.007468857531542586
190,0.00024448650547827873,0.007468857531542586
191,0.00024448650547827873,0.0077089279521993116
192,0.00025096296919955766,0.0077089279521993116
193,0.00025096296919955766,0.007735602443383393
194,0.0002525820851298774,0.007735602443383393
195,0.0002525820851298774,0.007868974899303795
196,0.0002558203169905168,0.007868974899303795
197,0.0002558203169905168,0.007948998372856038
198,0.0002574394329208366,0.007948998372856038
199,0.0002574394329208366,0.007975672864040119
200,0.0002590585488511563,0.007975672864040119
201,0.0002590585488511563,0.008135719811144602
202,0.000260677664781476,0.008135719811144602
203,0.000260677664781476,0.008215743284696845
204,0.00026391589664211546,0.008215743284696845
205,0.00026391589664211546,0.008269092267065006
206,0.00027524970815435355,0.008269092267065006
207,0.00027524970815435355,0.008295766758249086
208,0.000278487940014993,0.008295766758249086
209,0.000278487940014993,0.00842913921416949
210,0.00028010705594531276,0.00842913921416949
211,0.00028010705594531276,0.008535837178905813
212,0.0002833452878059522,0.008535837178905813
213,0.0002833452878059522,0.008589186161273974
214,0.00028658351966659164,0.008589186161273974
215,0.00028658351966659164,0.008642535143642134
216,0.00028820263559691135,0.008642535143642134
217,0.00028820263559691135,0.008695884126010297
218,0.00028982175152723113,0.008695884126010297
219,0.00028982175152723113,0.008749233108378458
220,0.00029144086745755085,0.008749233108378458
221,0.00029144086745755085,0.0088292565819307
222,0.00029305998338787057,0.0088292565819307
223,0.00029305998338787057,0.008882605564298861
224,0.0002979173311788297,0.008882605564298861
225,0.0002979173311788297,0.008935954546667022
226,0.00029953644710914944,0.008935954546667022
227,0.00029953644710914944,0.009149350476139668
228,0.0003011555630394692,0.009149350476139668
229,0.0003011555630394692,0.009202699458507829
230,0.00030277467896978893,0.009202699458507829
231,0.00030277467896978893,0.00922937394969191
232,0.00030439379490010865,0.00922937394969191
233,0.00030439379490010865,0.009282722932060072
234,0.00030601291083042837,0.009282722932060072
235,0.00030601291083042837,0.009309397423244152
236,0.0003076320267607481,0.009309397423244152
237,0.0003076320267607481,0.009362746405612313
238,0.0003092511426910678,0.009362746405612313
239,0.0003092511426910678,0.009416095387980473
240,0.000314108490482027,0.009416095387980473
241,0.000314108490482027,0.009522793352716797
242,0.00031572760641234674,0.009522793352716797
243,0.00031572760641234674,0.009549467843900877
244,0.00031734672234266646,0.009549467843900877
245,0.00031734672234266646,0.009576142335084959
246,0.0003189658382729862,0.009576142335084959
247,0.0003189658382729862,0.00960281682626904
248,0.0003238231860639454,0.00960281682626904
249,0.0003238231860639454,0.0096561658086372
250,0.0003254423019942651,0.0096561658086372
251,0.0003254423019942651,0.00968284029982128
252,0.0003270614179245848,0.00968284029982128
253,0.0003270614179245848,0.009736189282189443
254,0.00033029964978522426,0.009736189282189443
255,0.00033029964978522426,0.009816212755741684
256,0.00033515699757618347,0.009816212755741684
257,0.00033515699757618347,0.009842887246925764
258,0.0003367761135065032,0.009842887246925764
259,0.0003367761135065032,0.009869561738109845
260,0.0003383952294368229,0.009869561738109845
261,0.0003383952294368229,0.01005628317639841
262,0.00034163346129746235,0.01005628317639841
263,0.00034163346129746235,0.010189655632318814
264,0.00034325257722778207,0.010189655632318814
265,0.00034325257722778207,0.010243004614686975
266,0.00034487169315810184,0.010243004614686975
267,0.00034487169315810184,0.010269679105871055
268,0.00034649080908842156,0.010269679105871055
269,0.00034649080908842156,0.010349702579423298
270,0.00035296727280970043,0.010349702579423298
271,0.00035296727280970043,0.010376377070607378
272,0.00035458638874002015,0.010376377070607378
273,0.00035458638874002015,0.010483075035343702
274,0.0003562055046703399,0.010483075035343702
275,0.0003562055046703399,0.010509749526527782
276,0.00035782462060065964,0.010509749526527782
277,0.00035782462060065964,0.010536424017711862
278,0.0003626819683916188,0.010536424017711862
279,0.0003626819683916188,0.010563098508895943
280,0.00036592020025225824,0.010563098508895943
281,0.00036592020025225824,0.010589773000080023
282,0.000367539316182578,0.010589773000080023
283,0.000367539316182578,0.010616447491264103
284,0.00036915843211289773,0.010616447491264103
285,0.00036915843211289773,0.010643121982448185
286,0.00037077754804321745,0.010643121982448185
287,0.00037077754804321745,0.010696470964816346
288,0.0003740157799038569,0.010696470964816346
289,0.0003740157799038569,0.010723145456000427
290,0.0003772540117644964,0.010723145456000427
291,0.0003772540117644964,0.010749819947184507
292,0.0003804922436251358,0.010749819947184507
293,0.0003804922436251358,0.010776494438368587
294,0.00038211135955545553,0.010776494438368587
295,0.00038211135955545553,0.01085651791192083
296,0.00038373047548577525,0.01085651791192083
297,0.00038373047548577525,0.010936541385473073
298,0.00038534959141609497,0.010936541385473073
299,0.00038534959141609497,0.011149937314945717
300,0.0003983025188586528,0.011149937314945717
301,0.0003983025188586528,0.011176611806129798
302,0.00039992163478897255,0.011176611806129798
303,0.00039992163478897255,0.011283309770866121
304,0.00040154075071929227,0.011283309770866121
305,0.00040154075071929227,0.011363333244418362
306,0.000403159866649612,0.011363333244418362
307,0.000403159866649612,0.011603403665075089
308,0.00040963633037089086,0.011603403665075089
309,0.00040963633037089086,0.011630078156259169
310,0.00041125544630121063,0.011630078156259169
311,0.00041125544630121063,0.01165675264744325
312,0.00041449367816185007,0.01165675264744325
313,0.00041449367816185007,0.011683427138627332
314,0.0004177319100224895,0.011683427138627332
315,0.0004177319100224895,0.011816799594547733
316,0.00041935102595280923,0.011816799594547733
317,0.00041935102595280923,0.011896823068099976
318,0.000420970141883129,0.011896823068099976
319,0.000420970141883129,0.0120035210328363
320,0.0004225892578134487,0.0120035210328363
321,0.0004225892578134487,0.01203019552402038
322,0.00042420837374376844,0.01203019552402038
323,0.00042420837374376844,0.01205687001520446
324,0.00042582748967408816,0.01205687001520446
325,0.00042582748967408816,0.012136893488756703
326,0.0004323039533953671,0.012136893488756703
327,0.0004323039533953671,0.012163567979940783
328,0.00043716130118632624,0.012163567979940783
329,0.00043716130118632624,0.012216916962308944
330,0.00043878041711664596,0.012216916962308944
331,0.00043878041711664596,0.012243591453493024
332,0.0004403995330469657,0.012243591453493024
333,0.0004403995330469657,0.012270265944677105
334,0.00044363776490760517,0.012270265944677105
335,0.00044363776490760517,0.012323614927045267
336,0.0004468759967682446,0.012323614927045267
337,0.0004468759967682446,0.012376963909413428
338,0.00044849511269856433,0.012376963909413428
339,0.00044849511269856433,0.012430312891781588
340,0.00045011422862888405,0.012430312891781588
341,0.00045011422862888405,0.01245698738296567
342,0.0004533524604895235,0.01245698738296567
343,0.0004533524604895235,0.012483661874149751
344,0.00045497157641984326,0.012483661874149751
345,0.00045497157641984326,0.012537010856517912
346,0.000456590692350163,0.012537010856517912
347,0.000456590692350163,0.012590359838886074
348,0.0004582098082804827,0.012590359838886074
349,0.0004582098082804827,0.012643708821254235
350,0.00046792450386240106,0.012643708821254235
351,0.00046792450386240106,0.012777081277174638
352,0.0004727818516533602,0.012777081277174638
353,0.0004727818516533602,0.012803755768358719
354,0.00047763919944431943,0.012803755768358719
355,0.00047763919944431943,0.012937128224279122
356,0.00047925831537463915,0.012937128224279122
357,0.00047925831537463915,0.012963802715463203
358,0.00048087743130495887,0.012963802715463203
359,0.00048087743130495887,0.013043826189015445
360,0.0004824965472352786,0.013043826189015445
361,0.0004824965472352786,0.013070500680199526
362,0.0004841156631655983,0.013070500680199526
363,0.0004841156631655983,0.013123849662567686
364,0.000485734779095918,0.013123849662567686
365,0.000485734779095918,0.013177198644935847
366,0.0004873538950262378,0.013177198644935847
367,0.0004873538950262378,0.01320387313611993
368,0.0004954494746778364,0.01320387313611993
369,0.0004954494746778364,0.01323054762730401
370,0.0004970685906081562,0.01323054762730401
371,0.0004970685906081562,0.01328389660967217
372,0.0005003068224687956,0.01328389660967217
373,0.0005003068224687956,0.013337245592040331
374,0.0005019259383991153,0.013337245592040331
375,0.0005019259383991153,0.013443943556776654
376,0.000503545054329435,0.013443943556776654
377,0.000503545054329435,0.013470618047960735
378,0.0005051641702597548,0.013470618047960735
379,0.0005051641702597548,0.013603990503881138
380,0.0005084024021203942,0.013603990503881138
381,0.0005084024021203942,0.013630664995065218
382,0.0005116406339810336,0.013630664995065218
383,0.0005116406339810336,0.013737362959801542
384,0.0005132597499113534,0.013737362959801542
385,0.0005132597499113534,0.013764037450985622
386,0.0005148788658416732,0.013764037450985622
387,0.0005148788658416732,0.013790711942169702
388,0.0005197362136326323,0.013790711942169702
389,0.0005197362136326323,0.013950758889274188
390,0.0005229744454932718,0.013950758889274188
391,0.0005229744454932718,0.014004107871642349
392,0.0005245935614235915,0.014004107871642349
393,0.0005245935614235915,0.01405745685401051
394,0.0005262126773539112,0.01405745685401051
395,0.0005262126773539112,0.014164154818746832
396,0.0005278317932842309,0.014164154818746832
397,0.0005278317932842309,0.014217503801114993
398,0.0005294509092145506,0.014217503801114993
399,0.0005294509092145506,0.014324201765851316
400,0.0005326891410751901,0.014324201765851316
401,0.0005326891410751901,0.014350876257035397
402,0.0005343082570055098,0.014350876257035397
403,0.0005343082570055098,0.014377550748219477
404,0.0005424038366571085,0.014377550748219477
405,0.0005424038366571085,0.014590946677692123
406,0.0005440229525874282,0.014590946677692123
407,0.0005440229525874282,0.014617621168876204
408,0.0005456420685177479,0.014617621168876204
409,0.0005456420685177479,0.014777668115980688
410,0.0005472611844480677,0.014777668115980688
411,0.0005472611844480677,0.014804342607164768
412,0.0005488803003783874,0.014804342607164768
413,0.0005488803003783874,0.014831017098348848
414,0.0005553567640996663,0.014831017098348848
415,0.0005553567640996663,0.014937715063085171
416,0.0005602141118906255,0.014937715063085171
417,0.0005602141118906255,0.015017738536637414
418,0.0005650714596815847,0.015017738536637414
419,0.0005650714596815847,0.015044413027821495
420,0.0005699288074725438,0.015044413027821495
421,0.0005699288074725438,0.015071087519005575
422,0.0005715479234028636,0.015071087519005575
423,0.0005715479234028636,0.015097762010189655
424,0.000574786155263503,0.015097762010189655
425,0.000574786155263503,0.015151110992557818
426,0.0005764052711938227,0.015151110992557818
427,0.0005764052711938227,0.015364506922030462
428,0.0005780243871241424,0.015364506922030462
429,0.0005780243871241424,0.015577902851503107
430,0.0005796435030544623,0.015577902851503107
431,0.0005796435030544623,0.015844647763343916
432,0.000581262618984782,0.015844647763343916
433,0.000581262618984782,0.015871322254527996
434,0.0005845008508454214,0.015871322254527996
435,0.0005845008508454214,0.016138067166368803
436,0.0005861199667757411,0.016138067166368803
437,0.0005861199667757411,0.016191416148736964
438,0.0005942155464273397,0.016191416148736964
439,0.0005942155464273397,0.016218090639921044
440,0.0005990728942182989,0.016218090639921044
441,0.0005990728942182989,0.016244765131105125
442,0.0006006920101486186,0.016244765131105125
443,0.0006006920101486186,0.016271439622289205
444,0.0006039302420092581,0.016271439622289205
445,0.0006039302420092581,0.016351463095841446
446,0.0006055493579395779,0.016351463095841446
447,0.0006055493579395779,0.016378137587025526
448,0.0006071684738698976,0.016378137587025526
449,0.0006071684738698976,0.016404812078209607
450,0.0006087875898002173,0.016404812078209607
451,0.0006087875898002173,0.016538184534130012
452,0.0006136449375911765,0.016538184534130012
453,0.0006136449375911765,0.016564859025314092
454,0.0006152640535214962,0.016564859025314092
455,0.0006152640535214962,0.016591533516498173
456,0.0006168831694518159,0.016591533516498173
457,0.0006168831694518159,0.016644882498866333
458,0.0006201214013124553,0.016644882498866333
459,0.0006201214013124553,0.016671556990050414
460,0.0006233596331730949,0.016671556990050414
461,0.0006233596331730949,0.016724905972418574
462,0.0006265978650337343,0.016724905972418574
463,0.0006265978650337343,0.01677825495478674
464,0.0006314552128246935,0.01677825495478674
465,0.0006314552128246935,0.01685827842833898
466,0.0006411699084066118,0.01685827842833898
467,0.0006411699084066118,0.01691162741070714
468,0.0006427890243369315,0.01691162741070714
469,0.0006427890243369315,0.01699165088425938
470,0.0006444081402672512,0.01699165088425938
471,0.0006444081402672512,0.017044999866627546
472,0.0006476463721278908,0.017044999866627546
473,0.0006476463721278908,0.017178372322547947
474,0.0006508846039885302,0.017178372322547947
475,0.0006508846039885302,0.017205046813732028
476,0.0006605992995704485,0.017205046813732028
477,0.0006605992995704485,0.01725839579610019
478,0.0006622184155007682,0.01725839579610019
479,0.0006622184155007682,0.01728507028728427
480,0.000663837531431088,0.01728507028728427
481,0.000663837531431088,0.017365093760836513
482,0.0006654566473614077,0.017365093760836513
483,0.0006654566473614077,0.017418442743204674
484,0.0006670757632917275,0.017418442743204674
485,0.0006670757632917275,0.017498466216756915
486,0.0006686948792220472,0.017498466216756915
487,0.0006686948792220472,0.017578489690309156
488,0.0006735522270130064,0.017578489690309156
489,0.0006735522270130064,0.017605164181493237
490,0.0006751713429433261,0.017605164181493237
491,0.0006767904588736458,0.017631838672677317
492,0.0006800286907342853,0.017631838672677317
493,0.0006800286907342853,0.01771186214622956
494,0.000681647806664605,0.01771186214622956
495,0.000681647806664605,0.017738536637413642
496,0.0006832669225949247,0.017738536637413642
497,0.0006832669225949247,0.017871909093334044
498,0.0006881242703858838,0.017871909093334044
499,0.0006881242703858838,0.01800528154925445
500,0.0006929816181768431,0.01800528154925445
501,0.0006929816181768431,0.01803195604043853
502,0.0006978389659678023,0.01803195604043853
503,0.0006978389659678023,0.01805863053162261
504,0.0007026963137587614,0.01805863053162261
505,0.0007026963137587614,0.01808530502280669
506,0.0007043154296890811,0.01808530502280669
507,0.0007043154296890811,0.01811197951399077
508,0.0007059345456194009,0.01811197951399077
509,0.0007059345456194009,0.01813865400517485
510,0.0007091727774800403,0.01813865400517485
511,0.0007091727774800403,0.01816532849635893
512,0.0007124110093406798,0.01816532849635893
513,0.0007124110093406798,0.01819200298754301
514,0.000717268357131639,0.01819200298754301
515,0.000717268357131639,0.018218677478727092
516,0.0007221257049225982,0.018218677478727092
517,0.0007221257049225982,0.018325375443463417
518,0.0007237448208529179,0.018325375443463417
519,0.0007237448208529179,0.018352049934647497
520,0.0007253639367832376,0.018352049934647497
521,0.0007253639367832376,0.018405398917015658
522,0.0007269830527135573,0.018405398917015658
523,0.0007269830527135573,0.0184854223905679
524,0.000728602168643877,0.0184854223905679
525,0.000728602168643877,0.01851209688175198
526,0.0007366977482954757,0.01851209688175198
527,0.0007366977482954757,0.018565445864120143
528,0.0007415550960864349,0.018565445864120143
529,0.0007415550960864349,0.018592120355304224
530,0.0007431742120167546,0.018592120355304224
531,0.0007431742120167546,0.018618794846488304
532,0.0007447933279470743,0.018618794846488304
533,0.0007447933279470743,0.018645469337672384
534,0.000746412443877394,0.018645469337672384
535,0.000746412443877394,0.018752167302408706
536,0.0007480315598077138,0.018752167302408706
537,0.0007480315598077138,0.01885886526714503
538,0.0007561271394593125,0.01885886526714503
539,0.0007561271394593125,0.01891221424951319
540,0.0007593653713199519,0.01891221424951319
541,0.0007593653713199519,0.018938888740697272
542,0.0007658418350412308,0.018938888740697272
543,0.0007658418350412308,0.019125610178985834
544,0.0007674609509715505,0.019125610178985834
545,0.0007674609509715505,0.019152284670169918
546,0.0007706991828321899,0.019152284670169918
547,0.0007706991828321899,0.019178959161354
548,0.0007723182987625097,0.019178959161354
549,0.0007723182987625097,0.01920563365253808
550,0.0007755565306231491,0.01920563365253808
551,0.0007755565306231491,0.01928565712609032
552,0.0007771756465534689,0.01928565712609032
553,0.0007771756465534689,0.0193123316172744
554,0.0007787947624837886,0.0193123316172744
555,0.0007787947624837886,0.01941902958201072
556,0.0007820329943444281,0.01941902958201072
557,0.0007820329943444281,0.019445704073194806
558,0.0007836521102747478,0.019445704073194806
559,0.0007836521102747478,0.019472378564378886
560,0.0007868903421353872,0.019472378564378886
561,0.0007868903421353872,0.019499053055562966
562,0.0007901285739960267,0.019499053055562966
563,0.0007901285739960267,0.019525727546747047
564,0.0007917476899263464,0.019525727546747047
565,0.0007917476899263464,0.019552402037931127
566,0.0007933668058566661,0.019552402037931127
567,0.0007933668058566661,0.01965910000266745
568,0.0007966050377173056,0.01965910000266745
569,0.0007966050377173056,0.01968577449385153
570,0.0007982241536476254,0.01968577449385153
571,0.0007982241536476254,0.01971244898503561
572,0.000806319733299224,0.01971244898503561
573,0.000806319733299224,0.01973912347621969
574,0.000817653544811462,0.01973912347621969
575,0.000817653544811462,0.019765797967403773
576,0.0008192726607417817,0.019765797967403773
577,0.0008192726607417817,0.019872495932140095
578,0.0008208917766721015,0.019872495932140095
579,0.0008208917766721015,0.020005868388060496
580,0.0008257491244630607,0.020005868388060496
581,0.0008257491244630607,0.020032542879244577
582,0.0008273682403933804,0.020032542879244577
583,0.0008273682403933804,0.02005921737042866
584,0.0008289873563237001,0.02005921737042866
585,0.0008289873563237001,0.02011256635279682
586,0.0008306064722540199,0.02011256635279682
587,0.0008306064722540199,0.020139240843980902
588,0.0008370829359752987,0.020139240843980902
589,0.0008370829359752987,0.020165915335164982
590,0.0008387020519056185,0.020165915335164982
591,0.0008387020519056185,0.020245938808717223
592,0.0008403211678359382,0.020245938808717223
593,0.0008403211678359382,0.020325962282269464
594,0.0008435593996965777,0.020325962282269464
595,0.0008435593996965777,0.02037931126463763
596,0.0008451785156268974,0.02037931126463763
597,0.0008451785156268974,0.02043266024700579
598,0.0008484167474875369,0.02043266024700579
599,0.0008484167474875369,0.02053935821174211
600,0.0008565123271391355,0.02053935821174211
601,0.0008565123271391355,0.02059270719411027
602,0.0008581314430694552,0.02059270719411027
603,0.0008581314430694552,0.020752754141214757
604,0.0008613696749300946,0.020752754141214757
605,0.0008613696749300946,0.020779428632398837
606,0.0008629887908604143,0.020779428632398837
607,0.0008629887908604143,0.020832777614766998
608,0.0008646079067907342,0.020832777614766998
609,0.0008646079067907342,0.02088612659713516
610,0.000871084370512013,0.02088612659713516
611,0.000871084370512013,0.02091280108831924
612,0.0008727034864423328,0.02091280108831924
613,0.0008727034864423328,0.020966150070687403
614,0.0008743226023726525,0.020966150070687403
615,0.0008743226023726525,0.020992824561871484
616,0.0008775608342332919,0.020992824561871484
617,0.0008775608342332919,0.021046173544239644
618,0.0008807990660939314,0.021046173544239644
619,0.0008807990660939314,0.021126197017791885
620,0.0008824181820242511,0.021126197017791885
621,0.0008824181820242511,0.021152871508975966
622,0.0008840372979545708,0.021152871508975966
623,0.0008840372979545708,0.021179546000160046
624,0.0008872755298152103,0.021179546000160046
625,0.0008872755298152103,0.021232894982528207
626,0.0008888946457455301,0.021232894982528207
627,0.0008888946457455301,0.02128624396489637
628,0.0008905137616758498,0.02128624396489637
629,0.0008905137616758498,0.02133959294726453
630,0.0008937519935364892,0.02133959294726453
631,0.0008937519935364892,0.021366267438448612
632,0.0008953711094668089,0.021366267438448612
633,0.0008953711094668089,0.021392941929632692
634,0.0009018475731880878,0.021392941929632692
635,0.0009018475731880878,0.021419616420816773
636,0.0009050858050487273,0.021419616420816773
637,0.0009050858050487273,0.021472965403184933
638,0.0009083240369093668,0.021472965403184933
639,0.0009083240369093668,0.021499639894369014
640,0.0009099431528396865,0.021499639894369014
641,0.0009099431528396865,0.02157966336792126
642,0.0009115622687700062,0.02157966336792126
643,0.0009115622687700062,0.02171303582384166
644,0.0009148005006306457,0.02171303582384166
645,0.0009148005006306457,0.02173971031502574
646,0.0009261343121428837,0.02173971031502574
647,0.0009261343121428837,0.0217930592973939
648,0.0009277534280732034,0.0217930592973939
649,0.0009277534280732034,0.021953106244498387
650,0.0009342298917944824,0.021953106244498387
651,0.0009342298917944824,0.02208647870041879
652,0.0009358490077248021,0.02208647870041879
653,0.0009358490077248021,0.02213982768278695
654,0.0009374681236551218,0.02213982768278695
655,0.0009374681236551218,0.022166502173971033
656,0.0009407063555157613,0.022166502173971033
657,0.0009407063555157613,0.022193176665155114
658,0.000942325471446081,0.022193176665155114
659,0.000942325471446081,0.022219851156339194
660,0.0009471828192370402,0.022219851156339194
661,0.0009471828192370402,0.022299874629891435
662,0.0009488019351673599,0.022299874629891435
663,0.0009488019351673599,0.022379898103443676
664,0.0009552783988886389,0.022379898103443676
665,0.0009552783988886389,0.02251327055936408
666,0.0009568975148189586,0.02251327055936408
667,0.0009568975148189586,0.022566619541732242
668,0.0009633739785402375,0.022566619541732242
669,0.0009633739785402375,0.02280668996238897
670,0.0009649930944705572,0.02280668996238897
671,0.0009649930944705572,0.02283336445357305
672,0.0009666122104008769,0.02283336445357305
673,0.0009666122104008769,0.02291338792712529
674,0.000971469558191836,0.02291338792712529
675,0.000971469558191836,0.02294006241830937
676,0.0009747077900524756,0.02294006241830937
677,0.0009747077900524756,0.02296673690949345
678,0.000977946021913115,0.02296673690949345
679,0.000977946021913115,0.02299341140067753
680,0.000989279833425353,0.02299341140067753
681,0.000989279833425353,0.023046760383045692
682,0.0009925180652859925,0.023046760383045692
683,0.0009925180652859925,0.023126783856597936
684,0.0009941371812163123,0.023126783856597936
685,0.0009941371812163123,0.023153458347782017
686,0.000995756297146632,0.023153458347782017
687,0.000995756297146632,0.023180132838966097
688,0.0010006136449375912,0.023180132838966097
689,0.0010006136449375912,0.02328683080370242
690,0.0010038518767982306,0.02328683080370242
691,0.0010038518767982306,0.02334017978607058
692,0.00100870922458919,0.02334017978607058
693,0.00100870922458919,0.023473552241990985
694,0.0010103283405195095,0.023473552241990985
695,0.0010103283405195095,0.023553575715543226
696,0.001013566572380149,0.023553575715543226
697,0.001013566572380149,0.02368694817146363
698,0.0010151856883104688,0.02368694817146363
699,0.0010151856883104688,0.023793646136199952
700,0.0010216621520317477,0.023793646136199952
701,0.0010216621520317477,0.023820320627384033
702,0.0010265194998227067,0.023820320627384033
703,0.0010265194998227067,0.023846995118568113
704,0.0010281386157530265,0.023846995118568113
705,0.0010281386157530265,0.023873669609752193
706,0.001031376847613666,0.023873669609752193
707,0.001031376847613666,0.023900344100936274
708,0.0010329959635439858,0.023900344100936274
709,0.0010329959635439858,0.023953693083304434
710,0.0010378533113349448,0.023953693083304434
711,0.0010378533113349448,0.0240070420656726
712,0.001042710659125904,0.0240070420656726
713,0.001042710659125904,0.02403371655685668
714,0.0010443297750562237,0.02403371655685668
715,0.0010443297750562237,0.02406039104804076
716,0.001049187122847183,0.02406039104804076
717,0.001049187122847183,0.02419376350396116
718,0.0010508062387775028,0.02419376350396116
719,0.0010508062387775028,0.024273786977513406
720,0.0010524253547078224,0.024273786977513406
721,0.0010524253547078224,0.024353810451065647
722,0.0010556635865684619,0.024353810451065647
723,0.0010556635865684619,0.024433833924617888
724,0.0010605209343594211,0.024433833924617888
725,0.0010605209343594211,0.02448718290698605
726,0.0010621400502897407,0.02448718290698605
727,0.0010621400502897407,0.024620555362906454
728,0.0010653782821503802,0.024620555362906454
729,0.0010653782821503802,0.024700578836458695
730,0.0010686165140110196,0.024700578836458695
731,0.0010686165140110196,0.024727253327642775
732,0.0010718547458716593,0.024727253327642775
733,0.0010718547458716593,0.024753927818826856
734,0.0010864267892445366,0.024753927818826856
735,0.0010864267892445366,0.024780602310010936
736,0.0010880459051748565,0.024780602310010936
737,0.0010880459051748565,0.024807276801195016
738,0.001089665021105176,0.024807276801195016
739,0.001089665021105176,0.024833951292379097
740,0.0010945223688961353,0.024833951292379097
741,0.0010945223688961353,0.024860625783563177
742,0.0010977606007567748,0.024860625783563177
743,0.0010977606007567748,0.02491397476593134
744,0.001102617948547734,0.02491397476593134
745,0.001102617948547734,0.025020672730667663
746,0.0011042370644780536,0.025020672730667663
747,0.0011042370644780536,0.025074021713035823
748,0.001113951760059972,0.025074021713035823
749,0.001113951760059972,0.025100696204219904
750,0.001120428223781251,0.025100696204219904
751,0.001120428223781251,0.025154045186588064
752,0.0011220473397115707,0.025154045186588064
753,0.0011220473397115707,0.025180719677772148
754,0.0011236664556418905,0.025180719677772148
755,0.0011236664556418905,0.02520739416895623
756,0.00112528557157221,0.02520739416895623
757,0.00112528557157221,0.02539411560724479
758,0.00112690468750253,0.02539411560724479
759,0.00112690468750253,0.025474139080797032
760,0.0011285238034328495,0.025474139080797032
761,0.0011285238034328495,0.025660860519085598
762,0.001131762035293489,0.025660860519085598
763,0.001131762035293489,0.02571420950145376
764,0.0011333811512238088,0.02571420950145376
765,0.0011333811512238088,0.02574088399263784
766,0.0011350002671541284,0.02574088399263784
767,0.0011350002671541284,0.025820907466190084
768,0.0011366193830844482,0.025820907466190084
769,0.0011366193830844482,0.025874256448558244
770,0.0011398576149450877,0.025874256448558244
771,0.0011398576149450877,0.025900930939742325
772,0.001143095846805727,0.025900930939742325
773,0.001143095846805727,0.025954279922110485
774,0.001144714962736047,0.025954279922110485
775,0.001144714962736047,0.025980954413294566
776,0.001149572310527006,0.025980954413294566
777,0.001149572310527006,0.026007628904478646
778,0.0011511914264573258,0.026007628904478646
779,0.0011511914264573258,0.026060977886846807
780,0.0011528105423876454,0.026060977886846807
781,0.0011528105423876454,0.02611432686921497
782,0.0011560487742482849,0.02611432686921497
783,0.0011560487742482849,0.02614100136039905
784,0.0011576678901786047,0.02614100136039905
785,0.0011576678901786047,0.026301048307503534
786,0.0011592870061089245,0.026301048307503534
787,0.0011592870061089245,0.026327722798687614
788,0.0011609061220392441,0.026327722798687614
789,0.0011609061220392441,0.026381071781055778
790,0.0011770972813424413,0.026381071781055778
791,0.0011770972813424413,0.02646109525460802
792,0.0011787163972727611,0.02646109525460802
793,0.0011787163972727611,0.0264877697457921
794,0.0011803355132030807,0.0264877697457921
795,0.0011803355132030807,0.02654111872816026
796,0.00118519286099404,0.02654111872816026
797,0.00118519286099404,0.02656779321934434
798,0.0011868119769243598,0.02656779321934434
799,0.0011868119769243598,0.02659446771052842
800,0.0011884310928546795,0.02659446771052842
801,0.0011884310928546795,0.026701165675264746
802,0.0011916693247153189,0.026701165675264746
803,0.0011916693247153189,0.026727840166448826
804,0.0011932884406456387,0.026727840166448826
805,0.0011932884406456387,0.026754514657632907
806,0.0011949075565759583,0.026754514657632907
807,0.0011949075565759583,0.026781189148816987
808,0.0011965266725062782,0.026781189148816987
809,0.0011965266725062782,0.026861212622369228
810,0.0012046222521578769,0.026861212622369228
811,0.0012046222521578769,0.02688788711355331
812,0.0012062413680881965,0.02688788711355331
813,0.0012062413680881965,0.02691456160473739
814,0.0012078604840185163,0.02691456160473739
815,0.0012078604840185163,0.026994585078289633
816,0.001209479599948836,0.026994585078289633
817,0.001209479599948836,0.027074608551841874
818,0.0012110987158791557,0.027074608551841874
819,0.0012110987158791557,0.027101283043025955
820,0.0012127178318094753,0.027101283043025955
821,0.0012127178318094753,0.027207981007762276
822,0.0012143369477397952,0.027207981007762276
823,0.0012143369477397952,0.027261329990130437
824,0.0012159560636701148,0.027261329990130437
825,0.0012159560636701148,0.02728800448131452
826,0.0012175751796004346,0.02728800448131452
827,0.0012175751796004346,0.0273146789724986
828,0.0012191942955307542,0.0273146789724986
829,0.0012191942955307542,0.027394702446050842
830,0.0012224325273913937,0.027394702446050842
831,0.0012224325273913937,0.027448051428419003
832,0.0012240516433217135,0.027448051428419003
833,0.0012240516433217135,0.027528074901971244
834,0.0012256707592520333,0.027528074901971244
835,0.0012256707592520333,0.027554749393155324
836,0.0012289089911126727,0.027554749393155324
837,0.0012289089911126727,0.02774147083144389
838,0.0012305281070429924,0.02774147083144389
839,0.0012305281070429924,0.02776814532262797
840,0.0012321472229733122,0.02776814532262797
841,0.0012321472229733122,0.02784816879618021
842,0.001238623686694591,0.02784816879618021
843,0.001238623686694591,0.027928192269732456
844,0.0012402428026249107,0.027928192269732456
845,0.0012402428026249107,0.027954866760916536
846,0.0012418619185552305,0.027954866760916536
847,0.0012418619185552305,0.028008215743284697
848,0.00124510015041587,0.028008215743284697
849,0.00124510015041587,0.02816826269038918
850,0.0012483383822765094,0.02816826269038918
851,0.0012483383822765094,0.028194937181573263
852,0.0012531957300674686,0.028194937181573263
853,0.0012531957300674686,0.028328309637493665
854,0.001256433961928108,0.028328309637493665
855,0.001256433961928108,0.028354984128677745
856,0.0012580530778584277,0.028354984128677745
857,0.0012580530778584277,0.028435007602229986
858,0.0012612913097190671,0.028435007602229986
859,0.0012612913097190671,0.02854170556696631
860,0.001262910425649387,0.02854170556696631
861,0.0012661486575100264,0.02854170556696631
862,0.001267767773440346,0.02854170556696631
863,0.001267767773440346,0.028621729040518552
864,0.0012710060053009857,0.028621729040518552
865,0.0012710060053009857,0.028675078022886713
866,0.0012726251212313053,0.028675078022886713
867,0.0012726251212313053,0.028701752514070793
868,0.001274244237161625,0.028701752514070793
869,0.001274244237161625,0.028755101496438954
870,0.0012823398168132236,0.028755101496438954
871,0.0012823398168132236,0.028781775987623034
872,0.001285578048673863,0.028781775987623034
873,0.001285578048673863,0.02880845047880712
874,0.0012888162805345024,0.02880845047880712
875,0.0012888162805345024,0.0289684974259116
876,0.001292054512395142,0.0289684974259116
877,0.001292054512395142,0.02899517191709568
878,0.0012952927442557815,0.02899517191709568
879,0.0012952927442557815,0.029101869881832006
880,0.0012969118601861012,0.029101869881832006
881,0.0012969118601861012,0.029181893355384247
882,0.001298530976116421,0.029181893355384247
883,0.001298530976116421,0.029208567846568327
884,0.0013001500920467406,0.029208567846568327
885,0.0013001500920467406,0.029261916828936488
886,0.0013050074398376999,0.029261916828936488
887,0.0013050074398376999,0.029288591320120568
888,0.0013066265557680195,0.029288591320120568
889,0.0013066265557680195,0.02931526581130465
890,0.0013082456716983393,0.02931526581130465
891,0.0013082456716983393,0.02934194030248873
892,0.001309864787628659,0.02934194030248873
893,0.001309864787628659,0.029421963776040973
894,0.0013114839035589787,0.029421963776040973
895,0.0013114839035589787,0.029501987249593215
896,0.001316341251349938,0.029501987249593215
897,0.001316341251349938,0.029555336231961375
898,0.0013179603672802576,0.029555336231961375
899,0.0013179603672802576,0.029608685214329536
900,0.0013195794832105774,0.029608685214329536
901,0.0013195794832105774,0.029662034196697697
902,0.0013228177150712169,0.029662034196697697
903,0.0013228177150712169,0.029688708687881777
904,0.0013292941787924957,0.029688708687881777
905,0.0013292941787924957,0.02971538317906586
906,0.0013373897584440944,0.02971538317906586
907,0.0013373897584440944,0.02976873216143402
908,0.001339008874374414,0.02976873216143402
909,0.001339008874374414,0.029822081143802182
910,0.0013406279903047339,0.029822081143802182
911,0.0013406279903047339,0.029928779108538504
912,0.0013438662221653733,0.029928779108538504
913,0.0013438662221653733,0.029955453599722584
914,0.0013487235699563324,0.029955453599722584
915,0.0013487235699563324,0.030008802582090748
916,0.0013503426858866522,0.030008802582090748
917,0.0013503426858866522,0.03003547707327483
918,0.0013535809177472916,0.03003547707327483
919,0.0013535809177472916,0.03008882605564299
920,0.001358438265538251,0.03008882605564299
921,0.001358438265538251,0.03019552402037931
922,0.0013616764973988903,0.03019552402037931
923,0.0013616764973988903,0.03022219851156339
924,0.00136329561332921,0.03022219851156339
925,0.00136329561332921,0.03024887300274747
926,0.0013665338451898494,0.03024887300274747
927,0.0013665338451898494,0.030302221985115636
928,0.0013681529611201692,0.030302221985115636
929,0.0013681529611201692,0.030488943423404198
930,0.0013697720770504888,0.030488943423404198
931,0.0013697720770504888,0.03056896689695644
932,0.0013730103089111283,0.03056896689695644
933,0.0013730103089111283,0.03059564138814052
934,0.001374629424841448,0.03059564138814052
935,0.001374629424841448,0.030648990370508684
936,0.0013794867726324074,0.030648990370508684
937,0.0013794867726324074,0.030702339352876844
938,0.0013827250044930468,0.030702339352876844
939,0.0013827250044930468,0.030729013844060925
940,0.0013859632363536862,0.030729013844060925
941,0.0013859632363536862,0.030755688335245005
942,0.0013892014682143257,0.030755688335245005
943,0.0013892014682143257,0.030835711808797246
944,0.001392439700074965,0.030835711808797246
945,0.001392439700074965,0.030862386299981327
946,0.0013940588160052847,0.030862386299981327
947,0.0013940588160052847,0.03091573528234949
948,0.0014053926275175229,0.03091573528234949
949,0.0014053926275175229,0.03096908426471765
950,0.0014086308593781623,0.03096908426471765
951,0.0014086308593781623,0.030995758755901732
952,0.0014102499753084821,0.030995758755901732
953,0.0014102499753084821,0.031075782229453973
954,0.0014134882071691216,0.031075782229453973
955,0.0014134882071691216,0.031102456720638053
956,0.0014151073230994412,0.031102456720638053
957,0.0014151073230994412,0.031209154685374378
958,0.0014199646708904004,0.031209154685374378
959,0.0014199646708904004,0.03123582917655846
960,0.0014232029027510399,0.03123582917655846
961,0.0014232029027510399,0.03126250366774254
962,0.0014264411346116793,0.03126250366774254
963,0.0014264411346116793,0.031342527141294776
964,0.0014280602505419991,0.031342527141294776
965,0.0014280602505419991,0.03136920163247886
966,0.001434536714263278,0.03136920163247886
967,0.001434536714263278,0.031395876123662944
968,0.0014361558301935976,0.031395876123662944
969,0.0014361558301935976,0.03142255061484702
970,0.001439394062054237,0.03142255061484702
971,0.001439394062054237,0.03147589959721518
972,0.0014426322939148765,0.03147589959721518
973,0.0014426322939148765,0.031502574088399266
974,0.0014474896417058358,0.031502574088399266
975,0.0014474896417058358,0.03160927205313559
976,0.0014491087576361556,0.03160927205313559
977,0.0014491087576361556,0.03168929552668783
978,0.0014539661054271146,0.03168929552668783
979,0.0014539661054271146,0.03174264450905599
980,0.0014555852213574345,0.03174264450905599
981,0.0014555852213574345,0.031849342473792314
982,0.001457204337287754,0.031849342473792314
983,0.001457204337287754,0.032009389420896796
984,0.0014604425691483935,0.032009389420896796
985,0.0014604425691483935,0.032062738403264956
986,0.001463680801009033,0.032062738403264956
987,0.001463680801009033,0.0321427618768172
988,0.0014685381487999922,0.0321427618768172
989,0.0014685381487999922,0.03216943636800128
990,0.001470157264730312,0.03216943636800128
991,0.001470157264730312,0.03238283229747393
992,0.001475014612521271,0.03238283229747393
993,0.001475014612521271,0.032409506788658005
994,0.0014782528443819105,0.032409506788658005
995,0.0014782528443819105,0.03243618127984209
996,0.0014798719603122304,0.03243618127984209
997,0.0014798719603122304,0.032462855771026165
998,0.0014831101921728698,0.032462855771026165
999,0.0014831101921728698,0.032516204753394326
1000,0.001487967539963829,0.032516204753394326
1001,0.001487967539963829,0.032622902718130654
1002,0.0014912057718244685,0.032622902718130654
1003,0.0014912057718244685,0.032676251700498815
1004,0.001494444003685108,0.032676251700498815
1005,0.001494444003685108,0.032729600682866976
1006,0.0014960631196154275,0.032729600682866976
1007,0.0014960631196154275,0.03278294966523514
1008,0.0014976822355457474,0.03278294966523514
1009,0.0014976822355457474,0.03280962415641921
1010,0.001499301351476067,0.03280962415641921
1011,0.001499301351476067,0.0328362986476033
1012,0.0015009204674063868,0.0328362986476033
1013,0.0015009204674063868,0.03286297313878738
1014,0.0015057778151973459,0.03286297313878738
1015,0.0015057778151973459,0.03288964762997146
1016,0.0015090160470579855,0.03288964762997146
1017,0.0015090160470579855,0.03291632212115554
1018,0.0015106351629883051,0.03291632212115554
1019,0.0015106351629883051,0.03302302008589186
1020,0.0015154925107792644,0.03302302008589186
1021,0.0015154925107792644,0.0331030435594441
1022,0.001517111626709584,0.0331030435594441
1023,0.001517111626709584,0.033183067032996345
1024,0.0015252072063611827,0.033183067032996345
1025,0.0015252072063611827,0.033236416015364506
1026,0.0015284454382218221,0.033236416015364506
1027,0.0015284454382218221,0.03326309050654859
1028,0.0015381601338037404,0.03326309050654859
1029,0.0015381601338037404,0.03328976499773267
1030,0.0015397792497340603,0.03328976499773267
1031,0.0015397792497340603,0.03336978847128491
1032,0.0015413983656643799,0.03336978847128491
1033,0.0015413983656643799,0.03342313745365307
1034,0.0015543512931069378,0.03342313745365307
1035,0.0015543512931069378,0.03347648643602123
1036,0.0015559704090372575,0.03347648643602123
1037,0.0015559704090372575,0.03350316092720532
1038,0.0015575895249675773,0.03350316092720532
1039,0.0015575895249675773,0.03355650990957348
1040,0.001559208640897897,0.03355650990957348
1041,0.001559208640897897,0.03360985889194164
1042,0.0015608277568282167,0.03360985889194164
1043,0.0015608277568282167,0.033689882365493876
1044,0.0015640659886888562,0.033689882365493876
1045,0.0015640659886888562,0.033743231347862036
1046,0.0015656851046191758,0.033743231347862036
1047,0.0015656851046191758,0.033903278294966525
1048,0.0015673042205494956,0.033903278294966525
1049,0.0015673042205494956,0.033956627277334686
1050,0.0015689233364798152,0.033956627277334686
1051,0.0015689233364798152,0.03398330176851876
1052,0.0015753998002010943,0.03398330176851876
1053,0.0015753998002010943,0.03400997625970285
1054,0.001577018916131414,0.03400997625970285
1055,0.001577018916131414,0.034036650750886924
1056,0.0015786380320617337,0.034036650750886924
1057,0.0015786380320617337,0.03411667422443917
1058,0.0015802571479920534,0.03411667422443917
1059,0.0015802571479920534,0.03414334871562325
1060,0.0015818762639223732,0.03414334871562325
1061,0.0015818762639223732,0.03417002320680733
1062,0.0015964483072952508,0.03417002320680733
1063,0.0015964483072952508,0.03419669769799141
1064,0.0016013056550862098,0.03419669769799141
1065,0.0016013056550862098,0.03438341913627998
1066,0.0016045438869468492,0.03438341913627998
1067,0.0016045438869468492,0.03443676811864814
1068,0.001606163002877169,0.03443676811864814
1069,0.001606163002877169,0.034463442609832216
1070,0.0016158776984590874,0.034463442609832216
1071,0.0016158776984590874,0.03457014057456854
1072,0.001617496814389407,0.03457014057456854
1073,0.001617496814389407,0.03473018752167303
1074,0.0016191159303197268,0.03473018752167303
1075,0.0016191159303197268,0.034756862012857104
1076,0.0016207350462500466,0.034756862012857104
1077,0.0016207350462500466,0.03489023446877751
1078,0.0016223541621803663,0.03489023446877751
1079,0.0016223541621803663,0.03497025794232975
1080,0.0016255923940410057,0.03497025794232975
1081,0.0016255923940410057,0.035023606924697914
1082,0.0016288306259016451,0.035023606924697914
1083,0.0016288306259016451,0.03505028141588199
1084,0.001630449741831965,0.03505028141588199
1085,0.001630449741831965,0.035076955907066075
1086,0.0016336879736926044,0.035076955907066075
1087,0.0016336879736926044,0.035130304889434236
1088,0.0016385453214835634,0.035130304889434236
1089,0.0016385453214835634,0.03515697938061831
1090,0.0016401644374138833,0.03515697938061831
1091,0.0016401644374138833,0.03529035183653872
1092,0.0016434026692745227,0.03529035183653872
1093,0.0016434026692745227,0.03537037531009096
1094,0.0016466409011351621,0.03537037531009096
1095,0.0016466409011351621,0.03539704980127504
1096,0.0016547364807867608,0.03539704980127504
1097,0.0016547364807867608,0.03542372429245912
1098,0.0016628320604383596,0.03542372429245912
1099,0.0016628320604383596,0.035477073274827284
1100,0.0016644511763686792,0.035477073274827284
1101,0.0016644511763686792,0.035530422257195445
1102,0.001666070292298999,0.035530422257195445
1103,0.001666070292298999,0.03555709674837952
1104,0.0016676894082293186,0.03555709674837952
1105,0.0016676894082293186,0.035583771239563605
1106,0.0016693085241596384,0.035583771239563605
1107,0.0016693085241596384,0.03566379471311585
1108,0.0016725467560202779,0.03566379471311585
1109,0.0016725467560202779,0.03571714369548401
1110,0.0016741658719505975,0.03571714369548401
1111,0.0016741658719505975,0.03574381818666809
1112,0.001677404103811237,0.03574381818666809
1113,0.001677404103811237,0.03577049267785217
1114,0.0016822614516021962,0.03577049267785217
1115,0.0016822614516021962,0.03579716716903625
1116,0.001683880567532516,0.03579716716903625
1117,0.001683880567532516,0.03582384166022033
1118,0.0016854996834628356,0.03582384166022033
1119,0.0016854996834628356,0.035903865133772576
1120,0.0016903570312537949,0.035903865133772576
1121,0.0016903570312537949,0.035983888607324814
1122,0.0016919761471841145,0.035983888607324814
1123,0.0016919761471841145,0.0360105630985089
1124,0.0017000717268357132,0.0360105630985089
1125,0.0017000717268357132,0.036037237589692975
1126,0.0017016908427660328,0.036037237589692975
1127,0.0017016908427660328,0.036143935554429296
1128,0.0017033099586963526,0.036143935554429296
1129,0.0017033099586963526,0.03622395902798154
1130,0.001706548190556992,0.03622395902798154
1131,0.001706548190556992,0.036250633519165625
1132,0.001708167306487312,0.036250633519165625
1133,0.001708167306487312,0.036303982501533785
1134,0.0017097864224176315,0.036303982501533785
1135,0.0017097864224176315,0.03638400597508602
1136,0.0017114055383479513,0.03638400597508602
1137,0.0017114055383479513,0.036437354957454184
1138,0.0017146437702085908,0.036437354957454184
1139,0.0017146437702085908,0.03646402944863827
1140,0.0017162628861389104,0.03646402944863827
1141,0.0017162628861389104,0.03657072741337459
1142,0.0017178820020692302,0.03657072741337459
1143,0.0017178820020692302,0.03662407639574275
1144,0.0017211202339298696,0.03662407639574275
1145,0.0017211202339298696,0.03667742537811091
1146,0.0017227393498601893,0.03667742537811091
1147,0.0017227393498601893,0.036704099869294994
1148,0.001724358465790509,0.036704099869294994
1149,0.001724358465790509,0.036757448851663155
1150,0.0017275966976511485,0.036757448851663155
1151,0.0017275966976511485,0.03678412334284724
1152,0.0017324540454421078,0.03678412334284724
1153,0.0017324540454421078,0.03691749579876764
1154,0.0017356922773027472,0.03691749579876764
1155,0.0017356922773027472,0.03694417028995172
1156,0.0017373113932330668,0.03694417028995172
1157,0.0017373113932330668,0.0369708447811358
1158,0.0017389305091633867,0.0369708447811358
1159,0.0017389305091633867,0.03699751927231988
1160,0.0017405496250937063,0.03699751927231988
1161,0.0017405496250937063,0.03702419376350396
1162,0.0017454069728846655,0.03702419376350396
1163,0.0017454069728846655,0.03707754274587212
1164,0.0017502643206756248,0.03707754274587212
1165,0.0017502643206756248,0.0371042172370562
1166,0.0017518834366059444,0.0371042172370562
1167,0.0017518834366059444,0.03713089172824029
1168,0.0017583599003272233,0.03713089172824029
1169,0.0017583599003272233,0.03718424071060845
1170,0.0017615981321878627,0.03718424071060845
1171,0.0017615981321878627,0.037210915201792524
1172,0.0017632172481181825,0.037210915201792524
1173,0.0017632172481181825,0.037264264184160685
1174,0.0017680745959091416,0.037264264184160685
1175,0.0017680745959091416,0.037370962148897006
1176,0.0017777892914910601,0.037370962148897006
1177,0.0017777892914910601,0.037531009096001496
1178,0.0017810275233516996,0.037531009096001496
1179,0.0017810275233516996,0.037584358078369656
1180,0.001784265755212339,0.037584358078369656
1181,0.001784265755212339,0.03763770706073782
1182,0.0017858848711426586,0.03763770706073782
1183,0.0017858848711426586,0.03782442849902638
1184,0.0017875039870729784,0.03782442849902638
1185,0.0017875039870729784,0.03785110299021046
1186,0.001789123103003298,0.03785110299021046
1187,0.001789123103003298,0.03790445197257862
1188,0.0017923613348639375,0.03790445197257862
1189,0.0017923613348639375,0.03795780095494678
1190,0.0017988377985852166,0.03795780095494678
1191,0.0017988377985852166,0.037984475446130865
1192,0.0018004569145155362,0.037984475446130865
1193,0.0018004569145155362,0.03806449891968311
1194,0.001802076030445856,0.03806449891968311
1195,0.001802076030445856,0.03811784790205127
1196,0.0018053142623064955,0.03811784790205127
1197,0.0018053142623064955,0.03814452239323535
1198,0.001806933378236815,0.03814452239323535
1199,0.001806933378236815,0.03819787137560351
1200,0.001808552494167135,0.03819787137560351
1201,0.001808552494167135,0.03825122035797167
1202,0.0018101716100974545,0.03825122035797167
1203,0.0018101716100974545,0.038357918322708
1204,0.0018150289578884138,0.038357918322708
1205,0.0018150289578884138,0.038437941796260235
1206,0.0018166480738187336,0.038437941796260235
1207,0.0018166480738187336,0.038491290778628395
1208,0.001819886305679373,0.038491290778628395
1209,0.001819886305679373,0.038544639760996556
1210,0.0018231245375400125,0.038544639760996556
1211,0.0018231245375400125,0.0386246632345488
1212,0.001824743653470332,0.0386246632345488
1213,0.001824743653470332,0.038758035690469206
1214,0.001826362769400652,0.038758035690469206
1215,0.001826362769400652,0.03881138467283737
1216,0.0018279818853309715,0.03881138467283737
1217,0.0018279818853309715,0.03883805916402144
1218,0.001831220117191611,0.03883805916402144
1219,0.001831220117191611,0.03886473365520553
1220,0.0018344583490522504,0.03886473365520553
1221,0.0018344583490522504,0.03891808263757369
1222,0.0018360774649825702,0.03891808263757369
1223,0.0018360774649825702,0.03899810611112593
1224,0.00183769658091289,0.03899810611112593
1225,0.00183769658091289,0.03902478060231001
1226,0.0018393156968432097,0.03902478060231001
1227,0.0018393156968432097,0.039104804075862254
1228,0.001842553928703849,0.039104804075862254
1229,0.001842553928703849,0.039158153058230415
1230,0.001844173044634169,0.039158153058230415
1231,0.001844173044634169,0.039264851022966736
1232,0.0018474112764948084,0.039264851022966736
1233,0.0018474112764948084,0.0393182000053349
1234,0.001849030392425128,0.0393182000053349
1235,0.001849030392425128,0.03937154898770306
1236,0.0018555068561464068,0.03937154898770306
1237,0.0018555068561464068,0.03939822347888714
1238,0.0018571259720767267,0.03939822347888714
1239,0.0018571259720767267,0.03942489797007122
1240,0.0018587450880070465,0.03942489797007122
1241,0.0018587450880070465,0.03958494491717571
1242,0.0018603642039373661,0.03958494491717571
1243,0.0018603642039373661,0.039664968390727945
1244,0.0018652215517283254,0.039664968390727945
1245,0.0018652215517283254,0.03969164288191203
1246,0.0018716980154496043,0.03969164288191203
1247,0.0018716980154496043,0.03974499186428019
1248,0.0018749362473102437,0.03974499186428019
1249,0.0018749362473102437,0.03990503881138467
1250,0.0018797935951012027,0.03990503881138467
1251,0.0018797935951012027,0.039931713302568755
1252,0.0018830318269618424,0.039931713302568755
1253,0.0018830318269618424,0.04003841126730508
1254,0.0018878891747528014,0.04003841126730508
1255,0.0018878891747528014,0.04011843474085732
1256,0.0018927465225437607,0.04011843474085732
1257,0.0018927465225437607,0.04022513270559364
1258,0.0018943656384740803,0.04022513270559364
1259,0.0018943656384740803,0.04030515617914588
1260,0.0019008421021953592,0.04030515617914588
1261,0.0019008421021953592,0.040331830670329964
1262,0.0019056994499863185,0.040331830670329964
1263,0.0019056994499863185,0.04035850516151404
1264,0.0019105567977772777,0.04035850516151404
1265,0.0019105567977772777,0.04041185414388221
1266,0.0019121759137075973,0.04041185414388221
1267,0.0019121759137075973,0.040438528635066286
1268,0.0019137950296379172,0.040438528635066286
1269,0.0019137950296379172,0.04051855210861853
1270,0.0019154141455682368,0.04051855210861853
1271,0.0019154141455682368,0.04059857558217077
1272,0.0019170332614985566,0.04059857558217077
1273,0.0019170332614985566,0.04062525007335485
1274,0.0019186523774288762,0.04062525007335485
1275,0.0019186523774288762,0.04075862252927526
1276,0.0019235097252198355,0.04075862252927526
1277,0.0019235097252198355,0.04081197151164342
1278,0.0019251288411501553,0.04081197151164342
1279,0.0019251288411501553,0.04086532049401158
1280,0.0019299861889411143,0.04086532049401158
1281,0.0019299861889411143,0.040891994985195655
1282,0.0019332244208017538,0.040891994985195655
1283,0.0019332244208017538,0.04091866947637974
1284,0.0019364626526623932,0.04091866947637974
1285,0.0019364626526623932,0.0409720184587479
1286,0.001938081768592713,0.0409720184587479
1287,0.001938081768592713,0.04099869294993198
1288,0.0019413200004533525,0.04099869294993198
1289,0.0019413200004533525,0.04102536744111606
1290,0.001942939116383672,0.04102536744111606
1291,0.001942939116383672,0.041052041932300144
1292,0.001944558232313992,0.041052041932300144
1293,0.001944558232313992,0.041105390914668305
1294,0.0019461773482443117,0.041105390914668305
1295,0.0019461773482443117,0.0412387633705887
1296,0.0019510346960352708,0.0412387633705887
1297,0.0019510346960352708,0.04126543786177279
1298,0.0019526538119655906,0.04126543786177279
1299,0.0019526538119655906,0.041292112352956864
1300,0.0019542729278959102,0.041292112352956864
1301,0.0019542729278959102,0.04134546133532503
1302,0.00195751115975655,0.04134546133532503
1303,0.00195751115975655,0.04139881031769319
1304,0.0019656067394081484,0.04139881031769319
1305,0.0019656067394081484,0.04142548480887727
1306,0.001968844971268788,0.04142548480887727
1307,0.001968844971268788,0.04145215930006135
1308,0.001975321434990067,0.04145215930006135
1309,0.001975321434990067,0.041505508282429514
1310,0.0019769405509203865,0.041505508282429514
1311,0.0019769405509203865,0.041558857264797675
1312,0.0019834170146416654,0.041558857264797675
1313,0.0019834170146416654,0.041612206247165835
1314,0.001985036130571985,0.041612206247165835
1315,0.001985036130571985,0.04163888073834992
1316,0.0019898934783629443,0.04163888073834992
1317,0.0019898934783629443,0.04174557870308624
1318,0.001996369942084223,0.04174557870308624
1319,0.001996369942084223,0.0417989276854544
1320,0.001999608173944863,0.0417989276854544
1321,0.001999608173944863,0.04187895115900664
1322,0.0020044655217358216,0.04187895115900664
1323,0.0020044655217358216,0.041932300141374806
1324,0.0020060846376661417,0.041932300141374806
1325,0.0020060846376661417,0.04195897463255888
1326,0.0020109419854571005,0.04195897463255888
1327,0.0020109419854571005,0.04209234708847929
1328,0.0020125611013874205,0.04209234708847929
1329,0.0020125611013874205,0.04214569607084745
1330,0.00201418021731774,0.04214569607084745
1331,0.00201418021731774,0.042172370562031526
1332,0.0020157993332480598,0.042172370562031526
1333,0.0020157993332480598,0.042332417509136015
1334,0.00201741844917838,0.042332417509136015
1335,0.00201741844917838,0.042385766491504176
1336,0.002020656681039019,0.042385766491504176
1337,0.002020656681039019,0.04241244098268825
1338,0.0020222757969693386,0.04241244098268825
1339,0.0020222757969693386,0.04243911547387234
1340,0.0020238949128996587,0.04243911547387234
1341,0.0020238949128996587,0.0424924644562405
1342,0.0020255140288299783,0.0424924644562405
1343,0.0020255140288299783,0.04251913894742458
1344,0.002027133144760298,0.04251913894742458
1345,0.002027133144760298,0.04257248792979274
1346,0.0020287522606906175,0.04257248792979274
1347,0.0020287522606906175,0.04265251140334498
1348,0.0020303713766209376,0.04265251140334498
1349,0.0020303713766209376,0.04267918589452906
1350,0.002031990492551257,0.04267918589452906
1351,0.002031990492551257,0.04281255835044947
1352,0.0020336096084815768,0.04281255835044947
1353,0.0020336096084815768,0.04286590733281763
1354,0.002035228724411897,0.04286590733281763
1355,0.002035228724411897,0.042892581824001706
1356,0.0020368478403422164,0.042892581824001706
1357,0.0020368478403422164,0.04291925631518579
1358,0.002038466956272536,0.04291925631518579
1359,0.002038466956272536,0.04310597775347435
1360,0.0020400860722028557,0.04310597775347435
1361,0.0020400860722028557,0.04313265224465843
1362,0.0020417051881331757,0.04313265224465843
1363,0.0020417051881331757,0.043186001227026594
1364,0.0020433243040634953,0.043186001227026594
1365,0.0020433243040634953,0.04321267571821068
1366,0.0020465625359241345,0.04321267571821068
1367,0.0020465625359241345,0.043292699191762915
1368,0.0020481816518544546,0.043292699191762915
1369,0.0020481816518544546,0.043319373682947
1370,0.002049800767784774,0.043319373682947
1371,0.002049800767784774,0.043346048174131076
1372,0.0020530389996454134,0.043346048174131076
1373,0.0020530389996454134,0.04342607164768332
1374,0.0020546581155757335,0.04342607164768332
1375,0.0020546581155757335,0.043452746138867404
1376,0.002056277231506053,0.043452746138867404
1377,0.002056277231506053,0.04347942063005148
1378,0.0020611345792970123,0.04347942063005148
1379,0.0020611345792970123,0.043506095121235565
1380,0.002069230158948611,0.043506095121235565
1381,0.002069230158948611,0.043559444103603726
1382,0.0020708492748789304,0.043559444103603726
1383,0.0020708492748789304,0.0435861185947878
1384,0.0020789448545305293,0.0435861185947878
1385,0.0020789448545305293,0.04366614206834005
1386,0.0020821830863911686,0.04366614206834005
1387,0.0020821830863911686,0.043692816559524124
1388,0.0020838022023214886,0.043692816559524124
1389,0.0020838022023214886,0.04371949105070821
1390,0.002085421318251808,0.04371949105070821
1391,0.002085421318251808,0.04374616554189229
1392,0.0020886595501124474,0.04374616554189229
1393,0.0020886595501124474,0.04377284003307637
1394,0.0020902786660427675,0.04377284003307637
1395,0.0020902786660427675,0.04385286350662861
1396,0.0020935168979034067,0.04385286350662861
1397,0.0020935168979034067,0.04387953799781269
1398,0.0020951360138337263,0.04387953799781269
1399,0.0020951360138337263,0.043906212488996774
1400,0.0020967551297640464,0.043906212488996774
1401,0.0020967551297640464,0.04398623596254901
1402,0.002098374245694366,0.04398623596254901
1403,0.002098374245694366,0.044066259436101256
1404,0.0021016124775550056,0.044066259436101256
1405,0.0021016124775550056,0.04409293392728534
1406,0.0021032315934853252,0.04409293392728534
1407,0.0021032315934853252,0.04417295740083758
1408,0.002104850709415645,0.04417295740083758
1409,0.002104850709415645,0.04419963189202166
1410,0.0021064698253459645,0.04419963189202166
1411,0.0021064698253459645,0.04422630638320574
1412,0.0021080889412762845,0.04422630638320574
1413,0.0021080889412762845,0.04425298087438982
1414,0.002109708057206604,0.04425298087438982
1415,0.002109708057206604,0.0442796553655739
1416,0.0021113271731369237,0.0442796553655739
1417,0.0021113271731369237,0.04430632985675798
1418,0.0021129462890672433,0.04430632985675798
1419,0.0021129462890672433,0.044333004347942066
1420,0.002116184520927883,0.044333004347942066
1421,0.002116184520927883,0.04435967883912614
1422,0.0021242801005794815,0.04435967883912614
1423,0.0021242801005794815,0.04443970231267839
1424,0.0021291374483704407,0.04443970231267839
1425,0.0021291374483704407,0.04449305129504655
1426,0.0021307565643007603,0.04449305129504655
1427,0.0021307565643007603,0.04454640027741471
1428,0.0021323756802310804,0.04454640027741471
1429,0.0021323756802310804,0.04465309824215103
1430,0.0021339947961614,0.04465309824215103
1431,0.0021339947961614,0.04470644722451919
1432,0.0021356139120917196,0.04470644722451919
1433,0.0021356139120917196,0.04475979620688735
1434,0.0021420903758129985,0.04475979620688735
1435,0.0021420903758129985,0.0448398196804396
1436,0.0021437094917433185,0.0448398196804396
1437,0.0021437094917433185,0.04486649417162367
1438,0.0021469477236039577,0.04486649417162367
1439,0.0021469477236039577,0.04489316866280776
1440,0.0021485668395342774,0.04489316866280776
1441,0.0021485668395342774,0.044919843153991834
1442,0.0021501859554645974,0.044919843153991834
1443,0.0021501859554645974,0.04494651764517592
1444,0.0021534241873252366,0.04494651764517592
1445,0.0021534241873252366,0.04499986662754408
1446,0.0021566624191858763,0.04499986662754408
1447,0.0021566624191858763,0.04502654111872816
1448,0.0021599006510465155,0.04502654111872816
1449,0.0021599006510465155,0.04505321560991224
1450,0.002161519766976835,0.04505321560991224
1451,0.002161519766976835,0.045133239083464484
1452,0.002163138882907155,0.045133239083464484
1453,0.002163138882907155,0.045186588065832645
1454,0.0021712344625587536,0.045186588065832645
1455,0.0021712344625587536,0.045293286030568966
1456,0.0021728535784890732,0.045293286030568966
1457,0.0021728535784890732,0.04537330950412121
1458,0.0021744726944193933,0.04537330950412121
1459,0.0021744726944193933,0.04539998399530529
1460,0.0021841873900013114,0.04539998399530529
1461,0.0021841873900013114,0.04545333297767345
1462,0.0021890447377922707,0.04545333297767345
1463,0.0021890447377922707,0.04548000746885753
1464,0.0021906638537225903,0.04548000746885753
1465,0.0021906638537225903,0.04550668196004161
1466,0.0021922829696529103,0.04550668196004161
1467,0.0021922829696529103,0.04553335645122569
1468,0.00219390208558323,0.04553335645122569
1469,0.00219390208558323,0.04558670543359385
1470,0.002198759433374189,0.04558670543359385
1471,0.002198759433374189,0.04561337992477794
1472,0.002203616781165148,0.04561337992477794
1473,0.002203616781165148,0.045640054415962014
1474,0.002205235897095468,0.045640054415962014
1475,0.002205235897095468,0.04588012483661874
1476,0.002211712360816747,0.04588012483661874
1477,0.002211712360816747,0.0459334738189869
1478,0.0022133314767470665,0.0459334738189869
1479,0.0022133314767470665,0.045960148310170985
1480,0.002214950592677386,0.045960148310170985
1481,0.002214950592677386,0.04604017178372322
1482,0.002216569708607706,0.04604017178372322
1483,0.002216569708607706,0.046093520766091384
1484,0.002223046172328985,0.046093520766091384
1485,0.002223046172328985,0.04612019525727547
1486,0.0022246652882593047,0.04612019525727547
1487,0.0022246652882593047,0.04614686974845955
1488,0.0022262844041896243,0.04614686974845955
1489,0.0022262844041896243,0.04617354423964363
1490,0.002227903520119944,0.04617354423964363
1491,0.002227903520119944,0.04622689322201179
1492,0.002229522636050264,0.04622689322201179
1493,0.002229522636050264,0.04625356771319587
1494,0.0022311417519805836,0.04625356771319587
1495,0.0022311417519805836,0.04628024220437995
1496,0.002232760867910903,0.04628024220437995
1497,0.002232760867910903,0.046413614660300355
1498,0.002234379983841223,0.046413614660300355
1499,0.002234379983841223,0.046520312625036676
1500,0.002235999099771543,0.046520312625036676
1501,0.002235999099771543,0.04654698711622076
1502,0.0022376182157018624,0.04654698711622076
1503,0.0022376182157018624,0.04660033609858892
1504,0.002239237331632182,0.04660033609858892
1505,0.002239237331632182,0.04670703406332524
1506,0.0022424755634928217,0.04670703406332524
1507,0.0022424755634928217,0.04678705753687749
1508,0.002247332911283781,0.04678705753687749
1509,0.002247332911283781,0.046813732028061564
1510,0.00225219025907474,0.046813732028061564
1511,0.00225219025907474,0.04689375550161381
1512,0.0022554284909353794,0.04689375550161381
1513,0.0022554284909353794,0.046920429992797885
1514,0.002257047606865699,0.046920429992797885
1515,0.002257047606865699,0.046973778975166046
1516,0.0022602858387263387,0.046973778975166046
1517,0.0022602858387263387,0.04702712795753421
1518,0.0022619049546566583,0.04702712795753421
1519,0.0022619049546566583,0.04705380244871829
1520,0.002265143186517298,0.04705380244871829
1521,0.002265143186517298,0.04710715143108645
1522,0.0022667623024476176,0.04710715143108645
1523,0.0022667623024476176,0.047133825922270535
1524,0.002268381418377937,0.047133825922270535
1525,0.002268381418377937,0.04721384939582277
1526,0.002270000534308257,0.04721384939582277
1527,0.002270000534308257,0.04737389634292726
1528,0.002271619650238577,0.04737389634292726
1529,0.002271619650238577,0.04750726879884766
1530,0.0022732387661688965,0.04750726879884766
1531,0.0022732387661688965,0.04766731574595215
1532,0.002276476998029536,0.04766731574595215
1533,0.002276476998029536,0.04774733921950439
1534,0.0022780961139598557,0.04774733921950439
1535,0.0022780961139598557,0.04785403718424071
1536,0.002282953461750815,0.04785403718424071
1537,0.002282953461750815,0.04788071167542479
1538,0.0022845725776811346,0.04788071167542479
1539,0.0022845725776811346,0.04790738616660887
1540,0.002286191693611454,0.04790738616660887
1541,0.002286191693611454,0.04793406065779295
1542,0.002287810809541774,0.04793406065779295
1543,0.002287810809541774,0.048040758622529274
1544,0.0022910490414024135,0.048040758622529274
1545,0.0022910490414024135,0.048094107604897435
1546,0.0022942872732630527,0.048094107604897435
1547,0.0022942872732630527,0.04822748006081784
1548,0.002300763736984332,0.04822748006081784
1549,0.002300763736984332,0.04838752700792232
1550,0.0023120975484965697,0.04838752700792232
1551,0.0023120975484965697,0.048414201499106406
1552,0.002316954896287529,0.048414201499106406
1553,0.002316954896287529,0.04852089946384273
1554,0.002323431360008808,0.04852089946384273
1555,0.002323431360008808,0.04854757395502681
1556,0.002325050475939128,0.04854757395502681
1557,0.002325050475939128,0.04860092293739497
1558,0.0023266695918694475,0.04860092293739497
1559,0.0023266695918694475,0.04862759742857905
1560,0.002328288707799767,0.04862759742857905
1561,0.002328288707799767,0.04865427191976313
1562,0.0023315269396604068,0.04865427191976313
1563,0.0023315269396604068,0.04868094641094721
1564,0.0023331460555907264,0.04868094641094721
1565,0.0023331460555907264,0.048867667849235776
1566,0.0023380034033816856,0.048867667849235776
1567,0.0023380034033816856,0.04889434234041986
1568,0.002341241635242325,0.04889434234041986
1569,0.002341241635242325,0.048921016831603936
1570,0.002342860751172645,0.048921016831603936
1571,0.002342860751172645,0.04894769132278802
1572,0.002346098983033284,0.04894769132278802
1573,0.002346098983033284,0.0489743658139721
1574,0.0023477180989636037,0.0489743658139721
1575,0.0023477180989636037,0.04905438928752434
1576,0.002352575446754563,0.04905438928752434
1577,0.002352575446754563,0.04908106377870842
1578,0.0023558136786152027,0.04908106377870842
1579,0.0023558136786152027,0.049214436234628824
1580,0.0023622901423364815,0.049214436234628824
1581,0.0023622901423364815,0.04924111072581291
1582,0.0023655283741971208,0.04924111072581291
1583,0.0023655283741971208,0.049267785216996984
1584,0.002367147490127441,0.049267785216996984
1585,0.002367147490127441,0.04934780869054923
1586,0.0023687666060577604,0.04934780869054923
1587,0.0023687666060577604,0.049374483181733306
1588,0.00237038572198808,0.049374483181733306
1589,0.00237038572198808,0.04940115767291739
1590,0.002376862185709359,0.04940115767291739
1591,0.002376862185709359,0.049427832164101466
1592,0.0023784813016396785,0.049427832164101466
1593,0.0023784813016396785,0.049481181146469634
1594,0.0023801004175699986,0.049481181146469634
1595,0.0023801004175699986,0.049534530128837795
1596,0.002381719533500318,0.049534530128837795
1597,0.002381719533500318,0.049587879111205956
1598,0.0023833386494306378,0.049587879111205956
1599,0.0023833386494306378,0.04961455360239003
1600,0.0023898151131519167,0.04961455360239003
1601,0.0023898151131519167,0.049641228093574116
1602,0.0023914342290822367,0.049641228093574116
1603,0.0023914342290822367,0.04969457707594228
1604,0.0023930533450125563,0.04969457707594228
1605,0.0023930533450125563,0.04977460054949452
1606,0.002394672460942876,0.04977460054949452
1607,0.002394672460942876,0.04982794953186268
1608,0.0023979106928035156,0.04982794953186268
1609,0.0023979106928035156,0.04985462402304676
1610,0.002399529808733835,0.04985462402304676
1611,0.002399529808733835,0.04990797300541492
1612,0.002401148924664155,0.04990797300541492
1613,0.002401148924664155,0.049934647496599004
1614,0.0024027680405944744,0.049934647496599004
1615,0.0024027680405944744,0.049987996478967164
1616,0.0024076253883854337,0.049987996478967164
1617,0.0024076253883854337,0.05001467097015124
1618,0.0024108636202460733,0.05001467097015124
1619,0.0024108636202460733,0.05012136893488757
1620,0.002418959199897672,0.05012136893488757
1621,0.002418959199897672,0.050148043426071647
1622,0.0024205783158279914,0.050148043426071647
1623,0.0024205783158279914,0.05020139240843981
1624,0.0024221974317583115,0.05020139240843981
1625,0.0024221974317583115,0.05028141588199205
1626,0.002423816547688631,0.05028141588199205
1627,0.002423816547688631,0.05030809037317613
1628,0.0024270547795492703,0.05030809037317613
1629,0.0024270547795492703,0.05033476486436021
1630,0.0024286738954795903,0.05033476486436021
1631,0.0024286738954795903,0.050361439355544296
1632,0.00243029301140991,0.050361439355544296
1633,0.00243029301140991,0.05038811384672837
1634,0.0024319121273402296,0.05038811384672837
1635,0.0024319121273402296,0.050441462829096534
1636,0.0024335312432705496,0.050441462829096534
1637,0.0024335312432705496,0.050548160793832855
1638,0.002435150359200869,0.050548160793832855
1639,0.002435150359200869,0.050601509776201016
1640,0.002436769475131189,0.050601509776201016
1641,0.002436769475131189,0.050654858758569184
1642,0.002441626822922148,0.050654858758569184
1643,0.002441626822922148,0.05068153324975326
1644,0.0024432459388524677,0.05068153324975326
1645,0.0024432459388524677,0.05073488223212142
1646,0.0024497224025737466,0.05073488223212142
1647,0.0024497224025737466,0.050761556723305505
1648,0.0024529606344343862,0.050761556723305505
1649,0.0024529606344343862,0.05078823121448958
1650,0.002454579750364706,0.05078823121448958
1651,0.002454579750364706,0.05086825468804183
1652,0.0024578179822253455,0.05086825468804183
1653,0.0024578179822253455,0.05092160367040999
1654,0.002459437098155665,0.05092160367040999
1655,0.002459437098155665,0.05097495265277815
1656,0.002465913561876944,0.05097495265277815
1657,0.002465913561876944,0.05100162714396223
1658,0.0024675326778072636,0.05100162714396223
1659,0.0024675326778072636,0.05102830163514631
1660,0.002472390025598223,0.05102830163514631
1661,0.002472390025598223,0.05105497612633039
1662,0.0024756282574588625,0.05105497612633039
1663,0.0024756282574588625,0.05113499959988263
1664,0.0024788664893195017,0.05113499959988263
1665,0.0024788664893195017,0.051161674091066714
1666,0.0024821047211801414,0.051161674091066714
1667,0.0024821047211801414,0.05124169756461895
1668,0.00249020030083174,0.05124169756461895
1669,0.00249020030083174,0.05129504654698712
1670,0.0024934385326923795,0.05129504654698712
1671,0.0024934385326923795,0.051321721038171196
1672,0.002495057648622699,0.051321721038171196
1673,0.002495057648622699,0.05134839552935528
1674,0.0024982958804833384,0.05134839552935528
1675,0.0024982958804833384,0.05148176798527568
1676,0.0024999149964136584,0.05148176798527568
1677,0.0024999149964136584,0.05150844247645976
1678,0.0025047723442046172,0.05150844247645976
1679,0.0025047723442046172,0.05156179145882792
1680,0.0025063914601349373,0.05156179145882792
1681,0.0025063914601349373,0.05164181493238017
1682,0.002508010576065257,0.05164181493238017
1683,0.002508010576065257,0.051881885353036894
1684,0.0025177252716471754,0.051881885353036894
1685,0.0025177252716471754,0.05190855984422097
1686,0.0025274399672290935,0.05190855984422097
1687,0.0025274399672290935,0.051988583317773215
1688,0.002530678199089733,0.051988583317773215
1689,0.002530678199089733,0.052041932300141376
1690,0.0025339164309503724,0.052041932300141376
1691,0.0025339164309503724,0.05217530475606178
1692,0.002535535546880692,0.05217530475606178
1693,0.002535535546880692,0.05225532822961402
1694,0.0025387737787413316,0.05225532822961402
1695,0.0025387737787413316,0.05230867721198218
1696,0.0025403928946716513,0.05230867721198218
1697,0.0025403928946716513,0.052335351703166264
1698,0.0025420120106019713,0.052335351703166264
1699,0.0025420120106019713,0.0524153751767185
1700,0.00254686935839293,0.0524153751767185
1701,0.00254686935839293,0.05246872415908667
1702,0.00255010759025357,0.05246872415908667
1703,0.00255010759025357,0.05252207314145483
1704,0.002553345822114209,0.05252207314145483
1705,0.002553345822114209,0.05257542212382299
1706,0.002554964938044529,0.05257542212382299
1707,0.002554964938044529,0.05265544559737523
1708,0.0025582031699051683,0.05265544559737523
1709,0.0025582031699051683,0.05268212008855931
1710,0.0025598222858354883,0.05268212008855931
1711,0.0025598222858354883,0.052762143562111556
1712,0.002566298749556767,0.052762143562111556
1713,0.002566298749556767,0.052842167035663794
1714,0.002567917865487087,0.052842167035663794
1715,0.002567917865487087,0.05292219050921604
1716,0.002571156097347726,0.05292219050921604
1717,0.002571156097347726,0.05302888847395236
1718,0.0025743943292083657,0.05302888847395236
1719,0.0025743943292083657,0.05305556296513644
1720,0.002577632561069005,0.05305556296513644
1721,0.002577632561069005,0.053108911947504604
1722,0.0025808707929296446,0.053108911947504604
1723,0.0025808707929296446,0.05313558643868868
1724,0.002582489908859964,0.05313558643868868
1725,0.002582489908859964,0.05318893542105684
1726,0.002584109024790284,0.05318893542105684
1727,0.002584109024790284,0.053215609912240926
1728,0.002585728140720604,0.053215609912240926
1729,0.002585728140720604,0.053242284403425
1730,0.002590585488511563,0.053242284403425
1731,0.002590585488511563,0.05329563338579316
1732,0.002595442836302522,0.05329563338579316
1733,0.002595442836302522,0.053348982368161324
1734,0.002597061952232842,0.053348982368161324
1735,0.002597061952232842,0.05340233135052949
1736,0.00260677664781476,0.05340233135052949
1737,0.00260677664781476,0.05350902931526581
1738,0.00260839576374508,0.05350902931526581
1739,0.00260839576374508,0.05353570380644989
1740,0.0026100148796753997,0.05353570380644989
1741,0.0026100148796753997,0.05358905278881805
1742,0.0026116339956057193,0.05358905278881805
1743,0.0026116339956057193,0.05364240177118621
1744,0.002613253111536039,0.05364240177118621
1745,0.002613253111536039,0.05369575075355438
1746,0.002614872227466359,0.05369575075355438
1747,0.002614872227466359,0.053722425244738456
1748,0.002626206038978597,0.053722425244738456
1749,0.002626206038978597,0.05377577422710662
1750,0.002642397198281794,0.05377577422710662
1751,0.002642397198281794,0.0538024487182907
1752,0.0026456354301424337,0.0538024487182907
1753,0.0026456354301424337,0.05390914668302702
1754,0.0026472545460727533,0.05390914668302702
1755,0.0026472545460727533,0.053989170156579266
1756,0.002650492777933393,0.053989170156579266
1757,0.002650492777933393,0.05409586812131559
1758,0.0026585883575849915,0.05409586812131559
1759,0.0026585883575849915,0.05414921710368375
1760,0.002660207473515311,0.05414921710368375
1761,0.002660207473515311,0.054175891594867825
1762,0.0026618265894456307,0.054175891594867825
1763,0.0026618265894456307,0.05425591506842007
1764,0.0026634457053759508,0.05425591506842007
1765,0.0026634457053759508,0.054282589559604154
1766,0.00266830305316691,0.054282589559604154
1767,0.00266830305316691,0.054335938541972315
1768,0.0026699221690972296,0.054335938541972315
1769,0.0026699221690972296,0.054389287524340475
1770,0.002673160400957869,0.054389287524340475
1771,0.002673160400957869,0.05441596201552455
1772,0.0026763986328185085,0.05441596201552455
1773,0.0026763986328185085,0.0544959854890768
1774,0.0026796368646791477,0.0544959854890768
1775,0.0026796368646791477,0.054522659980260874
1776,0.0026812559806094678,0.054522659980260874
1777,0.0026812559806094678,0.05454933447144496
1778,0.0026828750965397874,0.05454933447144496
1779,0.0026828750965397874,0.05457600896262904
1780,0.0026861133284004266,0.05457600896262904
1781,0.0026861133284004266,0.05460268345381312
1782,0.002690970676191386,0.05460268345381312
1783,0.002690970676191386,0.05465603243618128
1784,0.002692589792121706,0.05465603243618128
1785,0.002692589792121706,0.05468270692736536
1786,0.0026974471399126647,0.05468270692736536
1787,0.0026974471399126647,0.05470938141854944
1788,0.0027006853717733044,0.05470938141854944
1789,0.0027006853717733044,0.0547627304009176
1790,0.0027039236036339436,0.0547627304009176
1791,0.0027039236036339436,0.054789404892101684
1792,0.0027055427195642637,0.054789404892101684
1793,0.0027055427195642637,0.054842753874469845
1794,0.0027071618354945833,0.054842753874469845
1795,0.0027071618354945833,0.05492277734802209
1796,0.0027120191832855425,0.05492277734802209
1797,0.0027120191832855425,0.05502947531275841
1798,0.002713638299215862,0.05502947531275841
1799,0.002713638299215862,0.05505614980394249
1800,0.0027152574151461818,0.05505614980394249
1801,0.0027152574151461818,0.05510949878631065
1802,0.002716876531076502,0.05510949878631065
1803,0.002716876531076502,0.05516284776867881
1804,0.0027184956470068214,0.05516284776867881
1805,0.0027184956470068214,0.0553228947157833
1806,0.002720114762937141,0.0553228947157833
1807,0.002720114762937141,0.055402918189335536
1808,0.0027217338788674606,0.055402918189335536
1809,0.0027217338788674606,0.055456267171703696
1810,0.0027249721107281003,0.055456267171703696
1811,0.0027249721107281003,0.055509616154071864
1812,0.002734686806310019,0.055509616154071864
1813,0.002734686806310019,0.05553629064525594
1814,0.0027395441541009776,0.05553629064525594
1815,0.0027395441541009776,0.05564298860999226
1816,0.0027411632700312977,0.05564298860999226
1817,0.0027411632700312977,0.05572301208354451
1818,0.002744401501891937,0.05572301208354451
1819,0.002744401501891937,0.05580303555709675
1820,0.0027476397337525766,0.05580303555709675
1821,0.0027476397337525766,0.05582971004828083
1822,0.002750877965613216,0.05582971004828083
1823,0.002750877965613216,0.05588305903064899
1824,0.0027541161974738554,0.05588305903064899
1825,0.0027541161974738554,0.05604310597775347
1826,0.002755735313404175,0.05604310597775347
1827,0.002755735313404175,0.056069780468937555
1828,0.0027589735452648147,0.056069780468937555
1829,0.0027589735452648147,0.05620315292485796
1830,0.0027605926611951343,0.05620315292485796
1831,0.0027605926611951343,0.05622982741604204
1832,0.0027654500089860936,0.05622982741604204
1833,0.0027654500089860936,0.05630985088959428
1834,0.0027767838204983313,0.05630985088959428
1835,0.0027767838204983313,0.056389874363146526
1836,0.002780022052358971,0.056389874363146526
1837,0.002780022052358971,0.05644322334551469
1838,0.0027832602842196106,0.05644322334551469
1839,0.0027832602842196106,0.05649657232788285
1840,0.0027945940957318483,0.05649657232788285
1841,0.0027945940957318483,0.056523246819066925
1842,0.0028026896753834472,0.056523246819066925
1843,0.0028026896753834472,0.056576595801435085
1844,0.002804308791313767,0.056576595801435085
1845,0.002804308791313767,0.056629944783803246
1846,0.002809166139104726,0.056629944783803246
1847,0.002809166139104726,0.056736642748539574
1848,0.002818880834686644,0.056736642748539574
1849,0.002818880834686644,0.056789991730907735
1850,0.0028204999506169642,0.056789991730907735
1851,0.0028204999506169642,0.056843340713275896
1852,0.002822119066547284,0.056843340713275896
1853,0.002822119066547284,0.05692336418682813
1854,0.0028237381824776035,0.05692336418682813
1855,0.0028237381824776035,0.05703006215156446
1856,0.0028302146461988823,0.05703006215156446
1857,0.0028302146461988823,0.05705673664274854
1858,0.0028350719939898416,0.05705673664274854
1859,0.0028350719939898416,0.05708341113393262
1860,0.002836691109920161,0.05708341113393262
1861,0.002836691109920161,0.057190109098668944
1862,0.0028383102258504813,0.057190109098668944
1863,0.0028383102258504813,0.05721678358985302
1864,0.0028464058055020797,0.05721678358985302
1865,0.0028464058055020797,0.057243458081037105
1866,0.0028496440373627194,0.057243458081037105
1867,0.0028496440373627194,0.05727013257222118
1868,0.002857739617014318,0.05727013257222118
1869,0.002857739617014318,0.05740350502814159
1870,0.0028593587329446375,0.05740350502814159
1871,0.0028593587329446375,0.05745685401050975
1872,0.002860977848874957,0.05745685401050975
1873,0.002860977848874957,0.05748352850169383
1874,0.0028658351966659164,0.05748352850169383
1875,0.0028658351966659164,0.05751020299287791
1876,0.0028674543125962364,0.05751020299287791
1877,0.0028674543125962364,0.05753687748406199
1878,0.002869073428526556,0.05753687748406199
1879,0.002869073428526556,0.057696924431166474
1880,0.0028723116603871952,0.057696924431166474
1881,0.0028723116603871952,0.057856971378270956
1882,0.0028739307763175153,0.057856971378270956
1883,0.0028739307763175153,0.05788364586945504
1884,0.002878788124108474,0.05788364586945504
1885,0.002878788124108474,0.057963669343007285
1886,0.0028820263559691138,0.057963669343007285
1887,0.0028820263559691138,0.058017018325375445
1888,0.0028836454718994334,0.058017018325375445
1889,0.0028836454718994334,0.05809704179892768
1890,0.002893360167481352,0.05809704179892768
1891,0.002893360167481352,0.05812371629011177
1892,0.002896598399341991,0.05812371629011177
1893,0.002896598399341991,0.05817706527247993
1894,0.002898217515272311,0.05817706527247993
1895,0.002898217515272311,0.05823041425484809
1896,0.0028998366312026308,0.05823041425484809
1897,0.0028998366312026308,0.05825708874603217
1898,0.0029063130949239097,0.05825708874603217
1899,0.0029063130949239097,0.05831043772840033
1900,0.002911170442714869,0.05831043772840033
1901,0.002911170442714869,0.058363786710768494
1902,0.0029127895586451885,0.058363786710768494
1903,0.0029127895586451885,0.05839046120195257
1904,0.002914408674575508,0.05839046120195257
1905,0.002914408674575508,0.058417135693136654
1906,0.0029241233701574267,0.058417135693136654
1907,0.0029241233701574267,0.058470484675504815
1908,0.002932218949809025,0.058470484675504815
1909,0.002932218949809025,0.0584971591666889
1910,0.002935457181669665,0.0584971591666889
1911,0.002935457181669665,0.05860385713142522
1912,0.0029370762975999844,0.05860385713142522
1913,0.0029370762975999844,0.0586305316226093
1914,0.002938695413530304,0.0586305316226093
1915,0.002938695413530304,0.05868388060497746
1916,0.0029419336453909437,0.05868388060497746
1917,0.0029419336453909437,0.05871055509616154
1918,0.002946790993181903,0.05871055509616154
1919,0.002946790993181903,0.05873722958734562
1920,0.002950029225042542,0.05873722958734562
1921,0.002950029225042542,0.0587639040785297
1922,0.0029548865728335014,0.0587639040785297
1923,0.0029548865728335014,0.058790578569713786
1924,0.002956505688763821,0.058790578569713786
1925,0.002956505688763821,0.058977300008002345
1926,0.002958124804694141,0.058977300008002345
1927,0.002958124804694141,0.05905732348155459
1928,0.0029613630365547803,0.05905732348155459
1929,0.0029613630365547803,0.05908399797273867
1930,0.0029629821524851,0.05908399797273867
1931,0.0029629821524851,0.059137346955106834
1932,0.0029662203843457396,0.059137346955106834
1933,0.0029662203843457396,0.05921737042865907
1934,0.002969458616206379,0.05921737042865907
1935,0.002969458616206379,0.059244044919843156
1936,0.002971077732136699,0.059244044919843156
1937,0.002971077732136699,0.059297393902211316
1938,0.0029726968480670185,0.059297393902211316
1939,0.0029726968480670185,0.05935074288457948
1940,0.002975935079927658,0.05935074288457948
1941,0.002975935079927658,0.0594574408493158
1942,0.002980792427718617,0.0594574408493158
1943,0.002980792427718617,0.05951078983168396
1944,0.0029840306595792566,0.05951078983168396
1945,0.0029840306595792566,0.05956413881405212
1946,0.002985649775509576,0.05956413881405212
1947,0.002985649775509576,0.059590813305236204
1948,0.002988888007370216,0.059590813305236204
1949,0.002988888007370216,0.05961748779642028
1950,0.002992126239230855,0.05961748779642028
1951,0.002992126239230855,0.059697511269972525
1952,0.0029953644710914947,0.059697511269972525
1953,0.0029953644710914947,0.059750860252340686
1954,0.0029969835870218143,0.059750860252340686
1955,0.0029969835870218143,0.05977753474352477
1956,0.0030018409348127736,0.05977753474352477
1957,0.0030018409348127736,0.05980420923470885
1958,0.003005079166673413,0.05980420923470885
1959,0.003005079166673413,0.05983088372589293
1960,0.003006698282603733,0.05983088372589293
1961,0.003006698282603733,0.05996425618181333
1962,0.0030083173985340525,0.05996425618181333
1963,0.0030083173985340525,0.05999093067299741
1964,0.003009936514464372,0.05999093067299741
1965,0.003009936514464372,0.060017605164181496
1966,0.0030115556303946917,0.060017605164181496
1967,0.0030115556303946917,0.06004427965536557
1968,0.0030131747463250117,0.06004427965536557
1969,0.0030131747463250117,0.060097628637733734
1970,0.003016412978185651,0.060097628637733734
1971,0.003016412978185651,0.060257675584838216
1972,0.0030212703259766102,0.060257675584838216
1973,0.0030212703259766102,0.0602843500760223
1974,0.0030261276737675695,0.0602843500760223
1975,0.0030261276737675695,0.060311024567206384
1976,0.0030261276737675695,0.060364373549574545
1977,0.0030293659056282087,0.060364373549574545
1978,0.0030293659056282087,0.06039104804075862
1979,0.0030309850215585288,0.06039104804075862
1980,0.0030309850215585288,0.060417722531942705
1981,0.0030326041374888484,0.060417722531942705
1982,0.0030326041374888484,0.060471071514310866
1983,0.0030374614852798076,0.060471071514310866
1984,0.0030374614852798076,0.06052442049667903
1985,0.003040699717140447,0.06052442049667903
1986,0.003040699717140447,0.060551094987863104
1987,0.003042318833070767,0.060551094987863104
1988,0.003042318833070767,0.06063111846141535
1989,0.0030439379490010865,0.06063111846141535
1990,0.0030439379490010865,0.06071114193496759
1991,0.003045557064931406,0.06071114193496759
1992,0.003045557064931406,0.06073781642615167
1993,0.0030471761808617257,0.06073781642615167
1994,0.0030471761808617257,0.06076449091733575
1995,0.0030504144127223654,0.06076449091733575
1996,0.0030504144127223654,0.06084451439088799
1997,0.003052033528652685,0.06084451439088799
1998,0.003052033528652685,0.060924537864440236
1999,0.0030552717605133247,0.060924537864440236
2000,0.0030552717605133247,0.06103123582917656
2001,0.0030568908764436443,0.06103123582917656
2002,0.0030568908764436443,0.06105791032036064
2003,0.0030617482242346035,0.06105791032036064
2004,0.0030617482242346035,0.06113793379391288
2005,0.0030649864560952427,0.06113793379391288
2006,0.0030649864560952427,0.06119128277628104
2007,0.003066605572025563,0.06119128277628104
2008,0.003066605572025563,0.06124463175864921
2009,0.003069843803886202,0.06124463175864921
2010,0.003069843803886202,0.061271306249833284
2011,0.0030730820357468417,0.061271306249833284
2012,0.0030730820357468417,0.06129798074101737
2013,0.0030747011516771613,0.06129798074101737
2014,0.0030747011516771613,0.06135132972338553
2015,0.003076320267607481,0.06135132972338553
2016,0.003076320267607481,0.06151137667049001
2017,0.0030795584994681205,0.06151137667049001
2018,0.0030795584994681205,0.06156472565285817
2019,0.00308117761539844,0.06156472565285817
2020,0.00308117761539844,0.061644749126410416
2021,0.003087654079119719,0.061644749126410416
2022,0.003087654079119719,0.06167142361759449
2023,0.003094130542840998,0.06167142361759449
2024,0.003094130542840998,0.061698098108778576
2025,0.0030973687747016376,0.061698098108778576
2026,0.0030973687747016376,0.061778121582330814
2027,0.0031006070065622768,0.061778121582330814
2028,0.0031006070065622768,0.06188481954706714
2029,0.003105464354353236,0.06188481954706714
2030,0.003105464354353236,0.06191149403825122
2031,0.0031070834702835557,0.06191149403825122
2032,0.0031070834702835557,0.0619381685294353
2033,0.0031103217021441953,0.0619381685294353
2034,0.0031103217021441953,0.062044866494171624
2035,0.0031135599340048345,0.062044866494171624
2036,0.0031135599340048345,0.062098215476539785
2037,0.0031151790499351546,0.062098215476539785
2038,0.0031151790499351546,0.062151564458907946
2039,0.003116798165865474,0.062151564458907946
2040,0.003116798165865474,0.062204913441276107
2041,0.0031200363977261134,0.062204913441276107
2042,0.0031200363977261134,0.06223158793246019
2043,0.0031216555136564334,0.06223158793246019
2044,0.0031216555136564334,0.06225826242364427
2045,0.003123274629586753,0.06225826242364427
2046,0.003123274629586753,0.06228493691482835
2047,0.0031281319773777123,0.06228493691482835
2048,0.0031281319773777123,0.062418309370748756
2049,0.003129751093308032,0.062418309370748756
2050,0.003129751093308032,0.06244498386193283
2051,0.0031378466729596304,0.06244498386193283
2052,0.0031378466729596304,0.06252500733548508
2053,0.0031394657888899505,0.06252500733548508
2054,0.0031394657888899505,0.06260503080903732
2055,0.0031427040207505897,0.06260503080903732
2056,0.0031427040207505897,0.0626317053002214
2057,0.0031491804844718686,0.0626317053002214
2058,0.0031491804844718686,0.06265837979140548
2059,0.003154037832262828,0.06265837979140548
2060,0.003154037832262828,0.06271172877377364
2061,0.0031572760641234675,0.06271172877377364
2062,0.0031572760641234675,0.0627650777561418
2063,0.003158895180053787,0.0627650777561418
2064,0.003158895180053787,0.06281842673850996
2065,0.0031605142959841067,0.06281842673850996
2066,0.0031605142959841067,0.06287177572087813
2067,0.0031669907597053856,0.06287177572087813
2068,0.0031669907597053856,0.06297847368561445
2069,0.003168609875635705,0.06297847368561445
2070,0.003168609875635705,0.06300514817679853
2071,0.0031734672234266645,0.06300514817679853
2072,0.0031734672234266645,0.06305849715916668
2073,0.0031750863393569845,0.06305849715916668
2074,0.0031750863393569845,0.06311184614153485
2075,0.003176705455287304,0.06311184614153485
2076,0.003176705455287304,0.06313852063271894
2077,0.0031815628030782634,0.06313852063271894
2078,0.0031815628030782634,0.06319186961508709
2079,0.003183181919008583,0.06319186961508709
2080,0.003183181919008583,0.06321854410627117
2081,0.003186420150869222,0.06321854410627117
2082,0.003186420150869222,0.06324521859745526
2083,0.0031880392667995422,0.06324521859745526
2084,0.0031880392667995422,0.0633252420710075
2085,0.003189658382729862,0.0633252420710075
2086,0.003189658382729862,0.06337859105337566
2087,0.0031928966145905015,0.06337859105337566
2088,0.0031928966145905015,0.06340526554455973
2089,0.0031977539623814603,0.06340526554455973
2090,0.0031977539623814603,0.06343194003574382
2091,0.0032009921942421,0.06343194003574382
2092,0.0032009921942421,0.0634586145269279
2093,0.0032026113101724196,0.0634586145269279
2094,0.0032026113101724196,0.06351196350929605
2095,0.003204230426102739,0.06351196350929605
2096,0.003204230426102739,0.06353863800048014
2097,0.003207468657963379,0.06353863800048014
2098,0.003207468657963379,0.06356531249166422
2099,0.0032090877738936985,0.06356531249166422
2100,0.0032090877738936985,0.0635919869828483
2101,0.003212326005754338,0.0635919869828483
2102,0.003212326005754338,0.06367201045640054
2103,0.0032139451216846577,0.06367201045640054
2104,0.0032139451216846577,0.06372535943876871
2105,0.0032155642376149774,0.06372535943876871
2106,0.0032155642376149774,0.06380538291232095
2107,0.0032171833535452974,0.06380538291232095
2108,0.0032171833535452974,0.06391208087705727
2109,0.0032268980491272155,0.06391208087705727
2110,0.0032268980491272155,0.06399210435060951
2111,0.003228517165057535,0.06399210435060951
2112,0.003228517165057535,0.06401877884179359
2113,0.003230136280987855,0.06401877884179359
2114,0.003230136280987855,0.06404545333297768
2115,0.0032317553969181748,0.06404545333297768
2116,0.0032317553969181748,0.064152151297714
2117,0.0032382318606394536,0.064152151297714
2118,0.0032382318606394536,0.06417882578889808
2119,0.0032398509765697732,0.06417882578889808
2120,0.0032398509765697732,0.06423217477126623
2121,0.0032414700925000933,0.06423217477126623
2122,0.0032414700925000933,0.0642855237536344
2123,0.0032447083243607325,0.0642855237536344
2124,0.0032447083243607325,0.06431219824481849
2125,0.003247946556221372,0.06431219824481849
2126,0.003247946556221372,0.06436554722718664
2127,0.0032495656721516918,0.06436554722718664
2128,0.0032495656721516918,0.06447224519192296
2129,0.0032511847880820114,0.06447224519192296
2130,0.0032511847880820114,0.06449891968310704
2131,0.0032576612518032903,0.06449891968310704
2132,0.0032576612518032903,0.06452559417429113
2133,0.0032592803677336103,0.06452559417429113
2134,0.0032592803677336103,0.06457894315665928
2135,0.00326089948366393,0.06457894315665928
2136,0.00326089948366393,0.06463229213902745
2137,0.0032625185995942495,0.06463229213902745
2138,0.0032625185995942495,0.0646856411213956
2139,0.003265756831454889,0.0646856411213956
2140,0.003265756831454889,0.06476566459494786
2141,0.003267375947385209,0.06476566459494786
2142,0.003267375947385209,0.06481901357731601
2143,0.0032689950633155284,0.06481901357731601
2144,0.0032689950633155284,0.06484568806850009
2145,0.003270614179245848,0.06484568806850009
2146,0.003270614179245848,0.06489903705086826
2147,0.0032738524111064877,0.06489903705086826
2148,0.0032738524111064877,0.06500573501560458
2149,0.0032754715270368073,0.06500573501560458
2150,0.0032754715270368073,0.06505908399797274
2151,0.003278709758897447,0.06505908399797274
2152,0.003278709758897447,0.06508575848915682
2153,0.0032803288748277665,0.06508575848915682
2154,0.0032803288748277665,0.06516578196270906
2155,0.003283567106688406,0.06516578196270906
2156,0.003283567106688406,0.06524580543626131
2157,0.003285186222618726,0.06524580543626131
2158,0.003285186222618726,0.06527247992744538
2159,0.0032868053385490454,0.06527247992744538
2160,0.0032868053385490454,0.06529915441862946
2161,0.003288424454479365,0.06529915441862946
2162,0.003288424454479365,0.06543252687454987
2163,0.0032916626863400047,0.06543252687454987
2164,0.0032916626863400047,0.06545920136573395
2165,0.003294900918200644,0.06545920136573395
2166,0.003294900918200644,0.06548587585691804
2167,0.003296520034130964,0.06548587585691804
2168,0.003296520034130964,0.0655125503481021
2169,0.0032981391500612836,0.0655125503481021
2170,0.0032981391500612836,0.06556589933047027
2171,0.003299758265991603,0.06556589933047027
2172,0.003299758265991603,0.0656725972952066
2173,0.0033046156137825624,0.0656725972952066
2174,0.0033046156137825624,0.06572594627757476
2175,0.003306234729712882,0.06572594627757476
2176,0.003306234729712882,0.06591266771586332
2177,0.003307853845643202,0.06591266771586332
2178,0.003307853845643202,0.06609938915415188
2179,0.0033110920775038413,0.06609938915415188
2180,0.0033110920775038413,0.06615273813652005
2181,0.003312711193434161,0.06615273813652005
2182,0.003312711193434161,0.06623276161007229
2183,0.0033159494252948006,0.06623276161007229
2184,0.0033159494252948006,0.06625943610125637
2185,0.00331756854122512,0.06625943610125637
2186,0.00331756854122512,0.06628611059244045
2187,0.0033224258890160794,0.06628611059244045
2188,0.0033224258890160794,0.06631278508362452
2189,0.003324045004946399,0.06631278508362452
2190,0.003324045004946399,0.06636613406599269
2191,0.0033272832368070387,0.06636613406599269
2192,0.0033272832368070387,0.06639280855717677
2193,0.0033289023527373583,0.06639280855717677
2194,0.0033289023527373583,0.06641948304836086
2195,0.0033337597005283176,0.06641948304836086
2196,0.0033337597005283176,0.06644615753954493
2197,0.003335378816458637,0.06644615753954493
2198,0.003335378816458637,0.06652618101309718
2199,0.003338617048319277,0.06652618101309718
2200,0.003338617048319277,0.06671290245138574
2201,0.0033402361642495965,0.06671290245138574
2202,0.0033402361642495965,0.06679292592493798
2203,0.003341855280179916,0.06679292592493798
2204,0.003341855280179916,0.0668996238896743
2205,0.0033434743961102357,0.0668996238896743
2206,0.0033434743961102357,0.06692629838085838
2207,0.003349950859831515,0.06692629838085838
2208,0.003349950859831515,0.06695297287204247
2209,0.003359665555413433,0.06695297287204247
2210,0.003359665555413433,0.0670329963455947
2211,0.003372618482855991,0.0670329963455947
2212,0.003372618482855991,0.06721971778388328
2213,0.0033758567147166305,0.06721971778388328
2214,0.0033758567147166305,0.06727306676625143
2215,0.00337747583064695,0.06727306676625143
2216,0.00337747583064695,0.0673264157486196
2217,0.0033790949465772697,0.0673264157486196
2218,0.0033790949465772697,0.06735309023980368
2219,0.0033807140625075898,0.06735309023980368
2220,0.0033807140625075898,0.06759316066046041
2221,0.003383952294368229,0.06759316066046041
2222,0.003383952294368229,0.06761983515164448
2223,0.0033855714102985486,0.06761983515164448
2224,0.0033855714102985486,0.06767318413401265
2225,0.0033888096421591882,0.06767318413401265
2226,0.0033888096421591882,0.0677265331163808
2227,0.003390428758089508,0.0677265331163808
2228,0.003390428758089508,0.06783323108111713
2229,0.0033936669899501475,0.06783323108111713
2230,0.0033936669899501475,0.0678599055723012
2231,0.003395286105880467,0.0678599055723012
2232,0.003395286105880467,0.06793992904585346
2233,0.0034001434536714264,0.06793992904585346
2234,0.0034001434536714264,0.06799327802822161
2235,0.003401762569601746,0.06799327802822161
2236,0.003401762569601746,0.06809997599295793
2237,0.003408239033323025,0.06809997599295793
2238,0.003408239033323025,0.0681533249753261
2239,0.0034098581492533445,0.0681533249753261
2240,0.0034098581492533445,0.06826002294006242
2241,0.0034114772651836645,0.06826002294006242
2242,0.0034114772651836645,0.0682866974312465
2243,0.003413096381113984,0.0682866974312465
2244,0.003413096381113984,0.06839339539598283
2245,0.003416334612974624,0.06839339539598283
2246,0.003416334612974624,0.06852676785190323
2247,0.0034179537289049434,0.06852676785190323
2248,0.0034179537289049434,0.06858011683427138
2249,0.0034211919607655826,0.06858011683427138
2250,0.0034211919607655826,0.06860679132545547
2251,0.0034228110766959027,0.06860679132545547
2252,0.0034228110766959027,0.06863346581663955
2253,0.0034244301926262223,0.06863346581663955
2254,0.0034244301926262223,0.06871348929019179
2255,0.003430906656347501,0.06871348929019179
2256,0.003430906656347501,0.06874016378137587
2257,0.0034325257722778208,0.06874016378137587
2258,0.0034325257722778208,0.06879351276374403
2259,0.003434144888208141,0.06879351276374403
2260,0.003434144888208141,0.06887353623729628
2261,0.0034357640041384604,0.06887353623729628
2262,0.0034357640041384604,0.06892688521966443
2263,0.0034390022359990996,0.06892688521966443
2264,0.0034390022359990996,0.06903358318440075
2265,0.0034390022359990996,0.06908693216676892
2266,0.0034390022359990996,0.06914028114913708
2267,0.0034406213519294197,0.06914028114913708
2268,0.0034406213519294197,0.06927365360505748
2269,0.0034422404678597393,0.06927365360505748
2270,0.0034422404678597393,0.06930032809624156
2271,0.003443859583790059,0.06930032809624156
2272,0.003443859583790059,0.06932700258742565
2273,0.0034503360475113378,0.06932700258742565
2274,0.0034503360475113378,0.06935367707860973
2275,0.0034519551634416574,0.06935367707860973
2276,0.0034519551634416574,0.06946037504334605
2277,0.0034535742793719774,0.06946037504334605
2278,0.0034535742793719774,0.06948704953453012
2279,0.003461669859023576,0.06948704953453012
2280,0.003461669859023576,0.06951372402571421
2281,0.0034632889749538955,0.06951372402571421
2282,0.0034632889749538955,0.06956707300808238
2283,0.0034649080908842156,0.06956707300808238
2284,0.0034649080908842156,0.06964709648163461
2285,0.003468146322744855,0.06964709648163461
2286,0.003468146322744855,0.06970044546400278
2287,0.0034762419023964533,0.06970044546400278
2288,0.0034762419023964533,0.06972711995518685
2289,0.003484337482048052,0.06972711995518685
2290,0.003484337482048052,0.06983381791992317
2291,0.003485956597978372,0.06983381791992317
2292,0.003485956597978372,0.06986049241110726
2293,0.0034875757139086914,0.06986049241110726
2294,0.0034875757139086914,0.06988716690229134
2295,0.0034891948298390115,0.06988716690229134
2296,0.0034891948298390115,0.06991384139347542
2297,0.003490813945769331,0.06991384139347542
2298,0.003490813945769331,0.07002053935821174
2299,0.0034956712935602903,0.07002053935821174
2300,0.0034956712935602903,0.07004721384939583
2301,0.00349729040949061,0.07004721384939583
2302,0.00349729040949061,0.07010056283176398
2303,0.0035005286413512496,0.07010056283176398
2304,0.0035005286413512496,0.07012723732294807
2305,0.003502147757281569,0.07012723732294807
2306,0.003502147757281569,0.07018058630531622
2307,0.003508624221002848,0.07018058630531622
2308,0.003508624221002848,0.07026060977886847
2309,0.0035102433369331677,0.07026060977886847
2310,0.0035102433369331677,0.07031395876123663
2311,0.0035118624528634873,0.07031395876123663
2312,0.0035118624528634873,0.07042065672597295
2313,0.003515100684724127,0.07042065672597295
2314,0.003515100684724127,0.07044733121715703
2315,0.003521577148445406,0.07044733121715703
2316,0.003521577148445406,0.07047400570834111
2317,0.0035231962643757254,0.07047400570834111
2318,0.0035231962643757254,0.07055402918189335
2319,0.0035248153803060455,0.07055402918189335
2320,0.0035248153803060455,0.07058070367307744
2321,0.0035296727280970043,0.07058070367307744
2322,0.0035296727280970043,0.07060737816426152
2323,0.0035312918440273244,0.07060737816426152
2324,0.0035312918440273244,0.07066072714662967
2325,0.0035377683077486032,0.07066072714662967
2326,0.0035377683077486032,0.0709007975672864
2327,0.003539387423678923,0.0709007975672864
2328,0.003539387423678923,0.07092747205847048
2329,0.003544244771469882,0.07092747205847048
2330,0.003544244771469882,0.07095414654965457
2331,0.003550721235191161,0.07095414654965457
2332,0.003550721235191161,0.07098082104083865
2333,0.0035523403511214806,0.07098082104083865
2334,0.0035523403511214806,0.0710341700232068
2335,0.0035539594670518,0.0710341700232068
2336,0.0035539594670518,0.07106084451439089
2337,0.00355719769891244,0.07106084451439089
2338,0.00355719769891244,0.07111419349675904
2339,0.0035588168148427595,0.07111419349675904
2340,0.0035588168148427595,0.0711942169703113
2341,0.003560435930773079,0.0711942169703113
2342,0.003560435930773079,0.07124756595267945
2343,0.0035636741626337187,0.07124756595267945
2344,0.0035636741626337187,0.0713275894262317
2345,0.0035652932785640384,0.0713275894262317
2346,0.0035652932785640384,0.07135426391741577
2347,0.0035669123944943584,0.07135426391741577
2348,0.0035669123944943584,0.07143428739096802
2349,0.0035701506263549976,0.07143428739096802
2350,0.0035701506263549976,0.0714609618821521
2351,0.003579865321936916,0.0714609618821521
2352,0.003579865321936916,0.07154098535570434
2353,0.0035831035537975554,0.07154098535570434
2354,0.0035831035537975554,0.07156765984688843
2355,0.0035879609015885146,0.07156765984688843
2356,0.0035879609015885146,0.0715943343380725
2357,0.0035911991334491543,0.0715943343380725
2358,0.0035911991334491543,0.07162100882925658
2359,0.0035944373653097935,0.07162100882925658
2360,0.0035944373653097935,0.07170103230280882
2361,0.003596056481240113,0.07170103230280882
2362,0.003596056481240113,0.0717277067939929
2363,0.003597675597170433,0.0717277067939929
2364,0.003597675597170433,0.07180773026754515
2365,0.003604152060891712,0.07180773026754515
2366,0.003604152060891712,0.07183440475872922
2367,0.0036057711768220316,0.07183440475872922
2368,0.0036057711768220316,0.0718610792499133
2369,0.003610628524612991,0.0718610792499133
2370,0.003610628524612991,0.07188775374109739
2371,0.0036122476405433105,0.07188775374109739
2372,0.0036122476405433105,0.07191442823228147
2373,0.00361386675647363,0.07191442823228147
2374,0.00361386675647363,0.07194110272346554
2375,0.003633296147637467,0.07194110272346554
2376,0.003633296147637467,0.07196777721464963
2377,0.003639772611358746,0.07196777721464963
2378,0.003639772611358746,0.07207447517938595
2379,0.003646249075080025,0.07207447517938595
2380,0.003646249075080025,0.07210114967057003
2381,0.0036478681910103446,0.07210114967057003
2382,0.0036478681910103446,0.07212782416175412
2383,0.003649487306940664,0.07212782416175412
2384,0.003649487306940664,0.0721544986529382
2385,0.0036543446547316234,0.0721544986529382
2386,0.0036543446547316234,0.07223452212649044
2387,0.003655963770661943,0.07223452212649044
2388,0.003655963770661943,0.07228787110885859
2389,0.0036608211184529023,0.07228787110885859
2390,0.0036608211184529023,0.07231454560004268
2391,0.0036656784662438616,0.07231454560004268
2392,0.0036656784662438616,0.07234122009122676
2393,0.003668916698104501,0.07234122009122676
2394,0.003668916698104501,0.07236789458241084
2395,0.003670535814034821,0.07236789458241084
2396,0.003670535814034821,0.07244791805596308
2397,0.00367539316182578,0.07244791805596308
2398,0.00367539316182578,0.07250126703833125
2399,0.0036786313936864193,0.07250126703833125
2400,0.0036786313936864193,0.07260796500306757
2401,0.003685107857407698,0.07260796500306757
2402,0.003685107857407698,0.07263463949425164
2403,0.003686726973338018,0.07263463949425164
2404,0.003686726973338018,0.07268798847661981
2405,0.003688346089268338,0.07268798847661981
2406,0.003688346089268338,0.07271466296780389
2407,0.0036899652051986575,0.07271466296780389
2408,0.0036899652051986575,0.07274133745898798
2409,0.0036948225529896167,0.07274133745898798
2410,0.0036948225529896167,0.07287470991490837
2411,0.0037012990167108956,0.07287470991490837
2412,0.0037012990167108956,0.0729814078796447
2413,0.003702918132641215,0.0729814078796447
2414,0.003702918132641215,0.07303475686201286
2415,0.003704537248571535,0.07303475686201286
2416,0.003704537248571535,0.07306143135319694
2417,0.0037142519441534533,0.07306143135319694
2418,0.0037142519441534533,0.07314145482674918
2419,0.0037191092919444126,0.07314145482674918
2420,0.0037191092919444126,0.07316812931793326
2421,0.0037207284078747322,0.07316812931793326
2422,0.0037207284078747322,0.07319480380911735
2423,0.0037255857556656915,0.07319480380911735
2424,0.0037255857556656915,0.07322147830030142
2425,0.003727204871596011,0.07322147830030142
2426,0.003727204871596011,0.07327482728266958
2427,0.0037288239875263307,0.07327482728266958
2428,0.0037288239875263307,0.07330150177385367
2429,0.0037320622193869704,0.07330150177385367
2430,0.0037320622193869704,0.07335485075622182
2431,0.0037385386831082492,0.07335485075622182
2432,0.0037385386831082492,0.07343487422977407
2433,0.003741776914968889,0.07343487422977407
2434,0.003741776914968889,0.07351489770332631
2435,0.0037433960308992085,0.07351489770332631
2436,0.0037433960308992085,0.07364827015924671
2437,0.003745015146829528,0.07364827015924671
2438,0.003745015146829528,0.07375496812398304
2439,0.0037466342627598477,0.07375496812398304
2440,0.0037466342627598477,0.07378164261516712
2441,0.0037547298424114466,0.07378164261516712
2442,0.0037547298424114466,0.07383499159753527
2443,0.0037563489583417663,0.07383499159753527
2444,0.0037563489583417663,0.07388834057990344
2445,0.0037595871902024055,0.07388834057990344
2446,0.0037595871902024055,0.07402171303582385
2447,0.0037644445379933647,0.07402171303582385
2448,0.0037644445379933647,0.07404838752700792
2449,0.0037660636539236848,0.07404838752700792
2450,0.0037660636539236848,0.07418175998292832
2451,0.003769301885784324,0.07418175998292832
2452,0.003769301885784324,0.07423510896529649
2453,0.0037709210017146436,0.07423510896529649
2454,0.0037709210017146436,0.07426178345648057
2455,0.0037725401176449637,0.07426178345648057
2456,0.0037725401176449637,0.07431513243884873
2457,0.003775778349505603,0.07431513243884873
2458,0.003775778349505603,0.07439515591240096
2459,0.0037822548132268818,0.07439515591240096
2460,0.0037822548132268818,0.07444850489476913
2461,0.0037854930450875214,0.07444850489476913
2462,0.0037854930450875214,0.07452852836832137
2463,0.0037903503928784807,0.07452852836832137
2464,0.0037903503928784807,0.07455520285950545
2465,0.00379358862473912,0.07455520285950545
2466,0.00379358862473912,0.07458187735068954
2467,0.0037952077406694395,0.07458187735068954
2468,0.0037952077406694395,0.07460855184187362
2469,0.003798445972530079,0.07460855184187362
2470,0.003798445972530079,0.07466190082424178
2471,0.0038016842043907184,0.07466190082424178
2472,0.0038016842043907184,0.0747685987889781
2473,0.0038033033203210384,0.0747685987889781
2474,0.0038033033203210384,0.07479527328016218
2475,0.003804922436251358,0.07479527328016218
2476,0.003804922436251358,0.07484862226253035
2477,0.0038065415521816776,0.07484862226253035
2478,0.0038065415521816776,0.07487529675371442
2479,0.0038146371318332766,0.07487529675371442
2480,0.0038146371318332766,0.0749019712448985
2481,0.003817875363693916,0.0749019712448985
2482,0.003817875363693916,0.07495532022726667
2483,0.0038194944796242354,0.07495532022726667
2484,0.0038194944796242354,0.07498199471845074
2485,0.0038211135955545554,0.07498199471845074
2486,0.0038211135955545554,0.07503534370081891
2487,0.003822732711484875,0.07503534370081891
2488,0.003822732711484875,0.07508869268318707
2489,0.0038243518274151947,0.07508869268318707
2490,0.0038243518274151947,0.07514204166555523
2491,0.0038259709433455143,0.07514204166555523
2492,0.0038259709433455143,0.07516871615673931
2493,0.0038275900592758343,0.07516871615673931
2494,0.0038275900592758343,0.0751953906479234
2495,0.003829209175206154,0.0751953906479234
2496,0.003829209175206154,0.07524873963029155
2497,0.003834066522997113,0.07524873963029155
2498,0.003834066522997113,0.07527541412147563
2499,0.003835685638927433,0.07527541412147563
2500,0.003835685638927433,0.07543546106858012
2501,0.0038373047548577524,0.07543546106858012
2502,0.0038373047548577524,0.07551548454213236
2503,0.0038389238707880725,0.07551548454213236
2504,0.0038389238707880725,0.07554215903331644
2505,0.003840542986718392,0.07554215903331644
2506,0.003840542986718392,0.07556883352450051
2507,0.0038421621026487117,0.07556883352450051
2508,0.0038421621026487117,0.0755955080156846
2509,0.0038502576823003106,0.0755955080156846
2510,0.0038502576823003106,0.07562218250686868
2511,0.0038551150300912694,0.07562218250686868
2512,0.0038551150300912694,0.07564885699805277
2513,0.0038567341460215895,0.07564885699805277
2514,0.0038567341460215895,0.07570220598042092
2515,0.0038599723778822287,0.07570220598042092
2516,0.0038599723778822287,0.075728880471605
2517,0.0038615914938125483,0.075728880471605
2518,0.0038615914938125483,0.07575555496278909
2519,0.003864829725673188,0.07575555496278909
2520,0.003864829725673188,0.07580890394515724
2521,0.003868067957533827,0.07580890394515724
2522,0.003868067957533827,0.07583557843634132
2523,0.003871306189394467,0.07583557843634132
2524,0.003871306189394467,0.07586225292752541
2525,0.0038745444212551065,0.07586225292752541
2526,0.0038745444212551065,0.07588892741870949
2527,0.003876163537185426,0.07588892741870949
2528,0.003876163537185426,0.07591560190989356
2529,0.0038777826531157457,0.07591560190989356
2530,0.0038777826531157457,0.07594227640107765
2531,0.0038794017690460653,0.07594227640107765
2532,0.0038794017690460653,0.07607564885699805
2533,0.003882640000906705,0.07607564885699805
2534,0.003882640000906705,0.07610232334818214
2535,0.0038842591168370246,0.07610232334818214
2536,0.0038842591168370246,0.07615567233055029
2537,0.0038874973486976642,0.07615567233055029
2538,0.0038874973486976642,0.07620902131291846
2539,0.003889116464627984,0.07620902131291846
2540,0.003889116464627984,0.07626237029528661
2541,0.0038955929283492627,0.07626237029528661
2542,0.0038955929283492627,0.0762890447864707
2543,0.003900450276140222,0.0762890447864707
2544,0.003900450276140222,0.07639574275120702
2545,0.003903688508000861,0.07639574275120702
2546,0.003903688508000861,0.07644909173357518
2547,0.0039053076239311812,0.07644909173357518
2548,0.0039053076239311812,0.07647576622475927
2549,0.003906926739861501,0.07647576622475927
2550,0.003906926739861501,0.0765557896983115
2551,0.00391016497172214,0.0765557896983115
2552,0.00391016497172214,0.07658246418949559
2553,0.00391178408765246,0.07658246418949559
2554,0.00391178408765246,0.07660913868067967
2555,0.003916641435443419,0.07660913868067967
2556,0.003916641435443419,0.07668916215423191
2557,0.003918260551373739,0.07668916215423191
2558,0.003918260551373739,0.076715836645416
2559,0.003919879667304059,0.076715836645416
2560,0.003919879667304059,0.07676918562778415
2561,0.003923117899164698,0.07676918562778415
2562,0.003923117899164698,0.07682253461015232
2563,0.003926356131025338,0.07682253461015232
2564,0.003926356131025338,0.07684920910133639
2565,0.0039279752469556575,0.07684920910133639
2566,0.0039279752469556575,0.07690255808370455
2567,0.003929594362885977,0.07690255808370455
2568,0.003929594362885977,0.07700925604844087
2569,0.003932832594746616,0.07700925604844087
