,fpr,tpr
0,0.0,0.0
1,0.0,9.150805270863836e-05
2,0.0,0.028275988286969252
3,5.037732617303604e-06,0.028275988286969252
4,5.037732617303604e-06,0.08821376281112737
5,5.037732617303604e-06,0.08839677891654465
6,5.037732617303604e-06,0.104502196193265
7,5.037732617303604e-06,0.10468521229868229
8,5.037732617303604e-06,0.11136530014641288
9,1.0075465234607208e-05,0.11136530014641288
10,1.0075465234607208e-05,0.13177159590043924
11,1.0075465234607208e-05,0.1319546120058565
12,1.0075465234607208e-05,0.13296120058565153
13,1.0075465234607208e-05,0.13314421669106882
14,1.0075465234607208e-05,0.1827415812591508
15,1.0075465234607208e-05,0.1829245973645681
16,1.0075465234607208e-05,0.183199121522694
17,1.5113197851910811e-05,0.183199121522694
18,1.5113197851910811e-05,0.19527818448023426
19,2.0150930469214415e-05,0.19527818448023426
20,2.0150930469214415e-05,0.20131771595900438
21,2.518866308651802e-05,0.20131771595900438
22,2.518866308651802e-05,0.21403733528550511
23,3.0226395703821623e-05,0.21403733528550511
24,3.0226395703821623e-05,0.232796486090776
25,3.526412832112523e-05,0.232796486090776
26,3.526412832112523e-05,0.23362005856515372
27,4.030186093842883e-05,0.23362005856515372
28,4.030186093842883e-05,0.23371156661786238
29,4.533959355573244e-05,0.23371156661786238
30,4.533959355573244e-05,0.251006588579795
31,4.533959355573244e-05,0.2511896046852123
32,4.533959355573244e-05,0.2591508052708638
33,5.037732617303604e-05,0.2591508052708638
34,5.037732617303604e-05,0.25969985358711567
35,5.5415058790339646e-05,0.25969985358711567
36,5.5415058790339646e-05,0.2600658857979502
37,6.0452791407643246e-05,0.2600658857979502
38,6.0452791407643246e-05,0.26491581259150804
39,6.549052402494685e-05,0.26491581259150804
40,6.549052402494685e-05,0.26802708638360173
41,7.052825664225046e-05,0.26802708638360173
42,7.052825664225046e-05,0.27736090775988287
43,7.556598925955406e-05,0.27736090775988287
44,7.556598925955406e-05,0.27827598828696926
45,8.060372187685766e-05,0.27827598828696926
46,8.060372187685766e-05,0.28074670571010246
47,8.564145449416126e-05,0.28074670571010246
48,8.564145449416126e-05,0.28083821376281115
49,9.067918711146488e-05,0.28083821376281115
50,9.067918711146488e-05,0.2853221083455344
51,9.571691972876848e-05,0.2853221083455344
52,9.571691972876848e-05,0.28715226939970717
53,0.00010075465234607208,0.28715226939970717
54,0.00010075465234607208,0.29520497803806733
55,0.00010579238496337569,0.29520497803806733
56,0.00010579238496337569,0.29657759882869694
57,0.00011083011758067929,0.29657759882869694
58,0.00011083011758067929,0.2979502196193265
59,0.00011586785019798289,0.2979502196193265
60,0.00011586785019798289,0.30325768667642755
61,0.00012090558281528649,0.30325768667642755
62,0.00012090558281528649,0.3055453879941435
63,0.0001259433154325901,0.3055453879941435
64,0.0001259433154325901,0.30765007320644217
65,0.0001309810480498937,0.30765007320644217
66,0.0001309810480498937,0.3178989751098097
67,0.00013601878066719732,0.3178989751098097
68,0.00013601878066719732,0.3187225475841874
69,0.00014105651328450092,0.3187225475841874
70,0.00014105651328450092,0.31982064421669104
71,0.00014609424590180452,0.31982064421669104
72,0.00014609424590180452,0.3355600292825769
73,0.00015113197851910812,0.3355600292825769
74,0.00015113197851910812,0.33601756954612005
75,0.00015616971113641172,0.33601756954612005
76,0.00015616971113641172,0.33629209370424595
77,0.00016120744375371532,0.33629209370424595
78,0.00016120744375371532,0.3390373352855051
79,0.00016624517637101892,0.3390373352855051
80,0.00016624517637101892,0.3402269399707174
81,0.00017128290898832252,0.3402269399707174
82,0.00017128290898832252,0.3413250366032211
83,0.00017632064160562615,0.3413250366032211
84,0.00017632064160562615,0.34452781844802344
85,0.00018135837422292975,0.34452781844802344
86,0.00018135837422292975,0.3475475841874085
87,0.00018639610684023335,0.3475475841874085
88,0.00018639610684023335,0.3515739385065886
89,0.00019143383945753695,0.3515739385065886
90,0.00019143383945753695,0.35651537335285505
91,0.00019647157207484055,0.35651537335285505
92,0.00019647157207484055,0.35816251830161056
93,0.00020150930469214415,0.35816251830161056
94,0.00020150930469214415,0.35843704245973645
95,0.00020654703730944775,0.35843704245973645
96,0.00020654703730944775,0.3585285505124451
97,0.00021158476992675138,0.3585285505124451
98,0.00021158476992675138,0.363103953147877
99,0.00021662250254405498,0.363103953147877
100,0.00021662250254405498,0.36475109809663253
101,0.00022166023516135858,0.36475109809663253
102,0.00022166023516135858,0.3696010248901903
103,0.00022669796777866218,0.3696010248901903
104,0.00022669796777866218,0.36978404099560763
105,0.00023173570039596578,0.36978404099560763
106,0.00023173570039596578,0.37042459736456806
107,0.00023677343301326938,0.37042459736456806
108,0.00023677343301326938,0.370699121522694
109,0.00024181116563057298,0.370699121522694
110,0.00024181116563057298,0.3728953147877013
111,0.0002468488982478766,0.3728953147877013
112,0.0002468488982478766,0.3747254758418741
113,0.0002518866308651802,0.3747254758418741
114,0.0002518866308651802,0.3771961932650073
115,0.0002569243634824838,0.3771961932650073
116,0.0002569243634824838,0.38232064421669104
117,0.0002619620960997874,0.38232064421669104
118,0.0002619620960997874,0.38341874084919475
119,0.000266999828717091,0.38341874084919475
120,0.000266999828717091,0.39375915080527085
121,0.00027203756133439464,0.39375915080527085
122,0.00027203756133439464,0.3942166910688141
123,0.0002770752939516982,0.3942166910688141
124,0.0002770752939516982,0.39467423133235724
125,0.00028211302656900184,0.39467423133235724
126,0.00028211302656900184,0.39604685212298685
127,0.0002871507591863054,0.39604685212298685
128,0.0002871507591863054,0.3961383601756955
129,0.00029218849180360904,0.3961383601756955
130,0.00029218849180360904,0.3966874084919473
131,0.0002972262244209126,0.3966874084919473
132,0.0002972262244209126,0.39824304538799415
133,0.00030226395703821624,0.39824304538799415
134,0.00030226395703821624,0.3987005856515373
135,0.0003073016896555198,0.3987005856515373
136,0.0003073016896555198,0.3995241581259151
137,0.00031233942227282344,0.3995241581259151
138,0.00031233942227282344,0.401811859443631
139,0.00031737715489012707,0.401811859443631
140,0.00031737715489012707,0.4064787701317716
141,0.00032241488750743065,0.4064787701317716
142,0.00032241488750743065,0.40766837481698387
143,0.00032745262012473427,0.40766837481698387
144,0.00032745262012473427,0.40858345534407026
145,0.00033249035274203785,0.40858345534407026
146,0.00033249035274203785,0.4109626647144949
147,0.0003375280853593415,0.4109626647144949
148,0.0003375280853593415,0.4155380673499268
149,0.00034256581797664505,0.4155380673499268
150,0.00034256581797664505,0.417002196193265
151,0.0003476035505939487,0.417002196193265
152,0.0003476035505939487,0.41709370424597364
153,0.0003526412832112523,0.41709370424597364
154,0.0003526412832112523,0.4224011713030747
155,0.0003576790158285559,0.4224011713030747
156,0.0003576790158285559,0.42313323572474376
157,0.0003627167484458595,0.42313323572474376
158,0.0003627167484458595,0.4234077598828697
159,0.0003677544810631631,0.4234077598828697
160,0.0003677544810631631,0.42624450951683746
161,0.0003727922136804667,0.42624450951683746
162,0.0003727922136804667,0.4267935578330893
163,0.0003778299462977703,0.4267935578330893
164,0.0003778299462977703,0.4270680819912152
165,0.0003828676789150739,0.4270680819912152
166,0.0003828676789150739,0.42761713030746706
167,0.00038790541153237753,0.42761713030746706
168,0.00038790541153237753,0.428898243045388
169,0.0003929431441496811,0.428898243045388
170,0.0003929431441496811,0.43008784773060027
171,0.00039798087676698473,0.43008784773060027
172,0.00039798087676698473,0.4310944363103953
173,0.0004030186093842883,0.4310944363103953
174,0.0004030186093842883,0.4331076134699854
175,0.00040805634200159193,0.4331076134699854
176,0.00040805634200159193,0.43502928257686674
177,0.0004130940746188955,0.43502928257686674
178,0.0004130940746188955,0.4360358711566618
179,0.00041813180723619913,0.4360358711566618
180,0.00041813180723619913,0.4390556368960469
181,0.00042316953985350276,0.4390556368960469
182,0.00042316953985350276,0.44244143484626647
183,0.00042820727247080634,0.44244143484626647
184,0.00042820727247080634,0.44262445095168373
185,0.00043324500508810996,0.44262445095168373
186,0.00043324500508810996,0.44527818448023426
187,0.00043828273770541354,0.44527818448023426
188,0.00043828273770541354,0.44555270863836016
189,0.00044332047032271716,0.44555270863836016
190,0.00044332047032271716,0.44692532942898977
191,0.00044835820294002074,0.44692532942898977
192,0.00044835820294002074,0.44811493411420206
193,0.00045339593555732436,0.44811493411420206
194,0.00045339593555732436,0.4482064421669107
195,0.00045843366817462794,0.4482064421669107
196,0.00045843366817462794,0.45003660322108346
197,0.00046347140079193157,0.45003660322108346
198,0.00046347140079193157,0.45021961932650073
199,0.0004685091334092352,0.45021961932650073
200,0.0004685091334092352,0.45150073206442165
201,0.00047354686602653877,0.45150073206442165
202,0.00047354686602653877,0.45195827232796487
203,0.0004785845986438424,0.45195827232796487
204,0.0004785845986438424,0.45223279648609077
205,0.00048362233126114597,0.45223279648609077
206,0.00048362233126114597,0.45433748169838944
207,0.0004886600638784495,0.45433748169838944
208,0.0004886600638784495,0.4546120058565154
209,0.0004936977964957532,0.4546120058565154
210,0.0004936977964957532,0.4548865300146413
211,0.0004987355291130568,0.4548865300146413
212,0.0004987355291130568,0.4554355783308931
213,0.0005037732617303604,0.4554355783308931
214,0.0005037732617303604,0.4561676427525622
215,0.000508810994347664,0.4561676427525622
216,0.000508810994347664,0.45625915080527085
217,0.0005138487269649676,0.45625915080527085
218,0.0005138487269649676,0.4567166910688141
219,0.0005188864595822712,0.4567166910688141
220,0.0005188864595822712,0.45744875549048314
221,0.0005239241921995748,0.45744875549048314
222,0.0005239241921995748,0.45900439238653
223,0.0005289619248168785,0.45900439238653
224,0.0005289619248168785,0.45937042459736455
225,0.000533999657434182,0.45937042459736455
226,0.000533999657434182,0.4594619326500732
227,0.0005390373900514856,0.4594619326500732
228,0.0005390373900514856,0.4601939970717423
229,0.0005440751226687893,0.4601939970717423
230,0.0005440751226687893,0.4620241581259151
231,0.0005491128552860929,0.4620241581259151
232,0.0005491128552860929,0.46220717423133234
233,0.0005541505879033964,0.46220717423133234
234,0.0005541505879033964,0.46531844802342603
235,0.0005591883205207,0.46531844802342603
236,0.0005591883205207,0.4658674963396779
237,0.0005642260531380037,0.4658674963396779
238,0.0005642260531380037,0.4670571010248902
239,0.0005692637857553073,0.4670571010248902
240,0.0005692637857553073,0.46916178623718885
241,0.0005743015183726108,0.46916178623718885
242,0.0005743015183726108,0.46961932650073207
243,0.0005793392509899145,0.46961932650073207
244,0.0005793392509899145,0.47016837481698387
245,0.0005843769836072181,0.47016837481698387
246,0.0005843769836072181,0.4707174231332357
247,0.0005894147162245217,0.4707174231332357
248,0.0005894147162245217,0.4711749633967789
249,0.0005944524488418252,0.4711749633967789
250,0.0005944524488418252,0.4716325036603221
251,0.0005994901814591289,0.4716325036603221
252,0.0005994901814591289,0.47199853587115664
253,0.0006095656466937361,0.47199853587115664
254,0.0006095656466937361,0.4722730600292826
255,0.0006146033793110396,0.4722730600292826
256,0.0006146033793110396,0.47392020497803805
257,0.0006196411119283433,0.47392020497803805
258,0.0006196411119283433,0.4744692532942899
259,0.0006246788445456469,0.4744692532942899
260,0.0006246788445456469,0.47529282576866766
261,0.0006297165771629505,0.47529282576866766
262,0.0006297165771629505,0.4756588579795022
263,0.0006397920423975577,0.4756588579795022
264,0.0006397920423975577,0.4768484626647145
265,0.0006448297750148613,0.4768484626647145
266,0.0006448297750148613,0.47739751098096633
267,0.0006498675076321649,0.47739751098096633
268,0.0006498675076321649,0.47776354319180087
269,0.0006549052402494685,0.47776354319180087
270,0.0006549052402494685,0.4783125915080527
271,0.0006599429728667721,0.4783125915080527
272,0.0006599429728667721,0.47867862371888725
273,0.0006649807054840757,0.47867862371888725
274,0.0006649807054840757,0.4788616398243045
275,0.0006700184381013794,0.4788616398243045
276,0.0006700184381013794,0.4802342606149341
277,0.000675056170718683,0.4802342606149341
278,0.000675056170718683,0.48050878477306
279,0.0006800939033359865,0.48050878477306
280,0.0006800939033359865,0.48243045387994143
281,0.0006901693685705938,0.48243045387994143
282,0.0006901693685705938,0.48279648609077597
283,0.0006952071011878973,0.48279648609077597
284,0.0006952071011878973,0.48371156661786235
285,0.0007052825664225046,0.48371156661786235
286,0.0007052825664225046,0.48462664714494874
287,0.0007103202990398082,0.48462664714494874
288,0.0007103202990398082,0.48499267935578333
289,0.0007153580316571118,0.48499267935578333
290,0.0007153580316571118,0.48581625183016103
291,0.0007203957642744153,0.48581625183016103
292,0.0007203957642744153,0.49130673499267935
293,0.000725433496891719,0.49130673499267935
294,0.000725433496891719,0.4918557833089312
295,0.0007304712295090226,0.4918557833089312
296,0.0007304712295090226,0.4921303074670571
297,0.0007355089621263262,0.4921303074670571
298,0.0007355089621263262,0.49222181551976574
299,0.0007405466947436298,0.49222181551976574
300,0.0007405466947436298,0.492404831625183
301,0.0007455844273609334,0.492404831625183
302,0.0007455844273609334,0.49258784773060027
303,0.000750622159978237,0.49258784773060027
304,0.000750622159978237,0.4937774524158126
305,0.0007556598925955406,0.4937774524158126
306,0.0007556598925955406,0.4939604685212299
307,0.0007606976252128442,0.4939604685212299
308,0.0007606976252128442,0.49487554904831627
309,0.0007657353578301478,0.49487554904831627
310,0.0007657353578301478,0.4968887262079063
311,0.0007707730904474514,0.4968887262079063
312,0.0007707730904474514,0.4983528550512445
313,0.0007758108230647551,0.4983528550512445
314,0.0007758108230647551,0.4985358711566618
315,0.0007808485556820586,0.4985358711566618
316,0.0007808485556820586,0.4987188872620791
317,0.0007959617535339695,0.4987188872620791
318,0.0007959617535339695,0.49917642752562225
319,0.000800999486151273,0.49917642752562225
320,0.000800999486151273,0.4993594436310395
321,0.0008110749513858803,0.4993594436310395
322,0.0008110749513858803,0.5007320644216691
323,0.000826188149237791,0.5007320644216691
324,0.000826188149237791,0.5008235724743777
325,0.0008312258818550947,0.5008235724743777
326,0.0008312258818550947,0.5023792093704246
327,0.0008362636144723983,0.5023792093704246
328,0.0008362636144723983,0.5035688140556369
329,0.0008413013470897018,0.5035688140556369
330,0.0008413013470897018,0.5041178623718887
331,0.0008463390797070055,0.5041178623718887
332,0.0008463390797070055,0.5046669106881405
333,0.0008513768123243091,0.5046669106881405
334,0.0008513768123243091,0.5048499267935578
335,0.0008564145449416127,0.5048499267935578
336,0.0008564145449416127,0.5050329428989752
337,0.0008614522775589162,0.5050329428989752
338,0.0008614522775589162,0.5051244509516838
339,0.0008664900101762199,0.5051244509516838
340,0.0008664900101762199,0.5052159590043924
341,0.0008765654754108271,0.5052159590043924
342,0.0008765654754108271,0.5053989751098097
343,0.0008816032080281306,0.5053989751098097
344,0.0008816032080281306,0.505581991215227
345,0.0008866409406454343,0.505581991215227
346,0.0008866409406454343,0.5060395314787701
347,0.0008916786732627379,0.5060395314787701
348,0.0008916786732627379,0.5062225475841874
349,0.0009017541384973452,0.5062225475841874
350,0.0009017541384973452,0.506314055636896
351,0.0009067918711146487,0.506314055636896
352,0.0009067918711146487,0.5071376281112738
353,0.0009118296037319523,0.5071376281112738
354,0.0009118296037319523,0.5084187408491947
355,0.0009168673363492559,0.5084187408491947
356,0.0009168673363492559,0.5089677891654466
357,0.0009269428015838631,0.5089677891654466
358,0.0009269428015838631,0.5098828696925329
359,0.0009319805342011667,0.5098828696925329
360,0.0009319805342011667,0.5099743777452416
361,0.0009521314646703811,0.5099743777452416
362,0.0009521314646703811,0.5104319180087847
363,0.0009571691972876848,0.5104319180087847
364,0.0009571691972876848,0.5120790629575402
365,0.0009622069299049884,0.5120790629575402
366,0.0009622069299049884,0.5121705710102489
367,0.0009672446625222919,0.5121705710102489
368,0.0009672446625222919,0.5124450951683748
369,0.0009722823951395956,0.5124450951683748
370,0.0009722823951395956,0.5125366032210834
371,0.000977320127756899,0.5125366032210834
372,0.000977320127756899,0.5128111273792094
373,0.0009873955929915064,0.5128111273792094
374,0.0009873955929915064,0.5135431918008785
375,0.00099243332560881,0.5135431918008785
376,0.00099243332560881,0.5136346998535871
377,0.0009974710582261136,0.5136346998535871
378,0.0009974710582261136,0.5145497803806734
379,0.0010075465234607207,0.5145497803806734
380,0.0010075465234607207,0.5147327964860908
381,0.0010125842560780244,0.5147327964860908
382,0.0010125842560780244,0.5148243045387995
383,0.001017621988695328,0.5148243045387995
384,0.001017621988695328,0.5155563689604685
385,0.0010226597213126316,0.5155563689604685
386,0.0010226597213126316,0.5158308931185944
387,0.0010276974539299352,0.5158308931185944
388,0.0010276974539299352,0.5160139092240117
389,0.0010327351865472387,0.5160139092240117
390,0.0010327351865472387,0.5163799414348462
391,0.001042810651781846,0.5163799414348462
392,0.001042810651781846,0.5165629575402635
393,0.0010478483843991495,0.5165629575402635
394,0.0010478483843991495,0.5180270863836017
395,0.0010528861170164532,0.5180270863836017
396,0.0010528861170164532,0.5183931185944363
397,0.0010629615822510604,0.5183931185944363
398,0.0010629615822510604,0.5186676427525623
399,0.001067999314868364,0.5186676427525623
400,0.001067999314868364,0.5187591508052709
401,0.0010730370474856677,0.5187591508052709
402,0.0010730370474856677,0.5193997071742313
403,0.0010780747801029712,0.5193997071742313
404,0.0010780747801029712,0.5200402635431918
405,0.0010831125127202749,0.5200402635431918
406,0.0010831125127202749,0.5201317715959004
407,0.0010881502453375786,0.5201317715959004
408,0.0010881502453375786,0.5210468521229868
409,0.0010982257105721857,0.5210468521229868
410,0.0010982257105721857,0.5215959004392386
411,0.0011032634431894892,0.5215959004392386
412,0.0011032634431894892,0.5224194729136163
413,0.0011083011758067929,0.5224194729136163
414,0.0011083011758067929,0.522785505124451
415,0.0011183766410414,0.522785505124451
416,0.0011183766410414,0.5233345534407028
417,0.0011183766410414,0.52351756954612
418,0.0011183766410414,0.5238836017569546
419,0.0011234143736587037,0.5238836017569546
420,0.0011234143736587037,0.5249816983894583
421,0.0011284521062760074,0.5249816983894583
422,0.0011284521062760074,0.5252562225475842
423,0.0011334898388933108,0.5252562225475842
424,0.0011334898388933108,0.5253477306002928
425,0.0011536407693625253,0.5253477306002928
426,0.0011536407693625253,0.5261713030746705
427,0.001158678501979829,0.5261713030746705
428,0.001158678501979829,0.5262628111273792
429,0.0011637162345971325,0.5262628111273792
430,0.0011637162345971325,0.5263543191800878
431,0.0011788294324490433,0.5263543191800878
432,0.0011788294324490433,0.5283674963396779
433,0.001183867165066347,0.5283674963396779
434,0.001183867165066347,0.529099560761347
435,0.0011889048976836505,0.529099560761347
436,0.0011889048976836505,0.5291910688140556
437,0.0011939426303009541,0.5291910688140556
438,0.0011939426303009541,0.5292825768667643
439,0.0012040180955355613,0.5292825768667643
440,0.0012040180955355613,0.5294655929721815
441,0.001209055828152865,0.5294655929721815
442,0.001209055828152865,0.5299231332357247
443,0.0012140935607701687,0.5299231332357247
444,0.0012140935607701687,0.5312957540263543
445,0.0012191312933874721,0.5312957540263543
446,0.0012191312933874721,0.532119326500732
447,0.0012241690260047758,0.532119326500732
448,0.0012241690260047758,0.5328513909224012
449,0.0012292067586220793,0.5328513909224012
450,0.0012292067586220793,0.5329428989751098
451,0.001234244491239383,0.5329428989751098
452,0.001234244491239383,0.5330344070278185
453,0.0012392822238566866,0.5330344070278185
454,0.0012392822238566866,0.5339494875549048
455,0.00124431995647399,0.5339494875549048
456,0.00124431995647399,0.5343155197657394
457,0.0012493576890912938,0.5343155197657394
458,0.0012493576890912938,0.5344070278184481
459,0.001259433154325901,0.5344070278184481
460,0.001259433154325901,0.5345900439238653
461,0.0012695086195605083,0.5345900439238653
462,0.0012695086195605083,0.534681551976574
463,0.0012745463521778118,0.534681551976574
464,0.0012745463521778118,0.5347730600292826
465,0.0012795840847951154,0.5347730600292826
466,0.0012795840847951154,0.5348645680819912
467,0.0012846218174124191,0.5348645680819912
468,0.0012846218174124191,0.5349560761346999
469,0.0012896595500297226,0.5349560761346999
470,0.0012896595500297226,0.5353221083455344
471,0.0012946972826470263,0.5353221083455344
472,0.0012946972826470263,0.5361456808199122
473,0.0013047727478816334,0.5361456808199122
474,0.0013047727478816334,0.5365117130307467
475,0.0013148482131162406,0.5365117130307467
476,0.0013148482131162406,0.5369692532942899
477,0.0013198859457335442,0.5369692532942899
478,0.0013198859457335442,0.5375183016105417
479,0.001324923678350848,0.5375183016105417
480,0.001324923678350848,0.5376098096632503
481,0.0013299614109681514,0.5376098096632503
482,0.0013299614109681514,0.5380673499267935
483,0.001334999143585455,0.5380673499267935
484,0.001334999143585455,0.5381588579795022
485,0.0013400368762027587,0.5381588579795022
486,0.0013400368762027587,0.53898243045388
487,0.0013450746088200622,0.53898243045388
488,0.0013450746088200622,0.539714494875549
489,0.0013551500740546696,0.539714494875549
490,0.0013551500740546696,0.5406295754026355
491,0.001360187806671973,0.5406295754026355
492,0.001360187806671973,0.5407210834553441
493,0.0013652255392892767,0.5407210834553441
494,0.0013652255392892767,0.5408125915080527
495,0.0013702632719065802,0.5408125915080527
496,0.0013702632719065802,0.5413616398243045
497,0.0013803387371411876,0.5413616398243045
498,0.0013803387371411876,0.541727672035139
499,0.001385376469758491,0.541727672035139
500,0.001385376469758491,0.5420021961932651
501,0.0013904142023757947,0.5420021961932651
502,0.0013904142023757947,0.5421852122986823
503,0.0013904142023757947,0.5425512445095169
504,0.0014004896676104018,0.5425512445095169
505,0.0014004896676104018,0.5432833089311859
506,0.0014055274002277055,0.5432833089311859
507,0.0014055274002277055,0.5441068814055637
508,0.0014105651328450092,0.5441068814055637
509,0.0014105651328450092,0.5444729136163983
510,0.0014156028654623127,0.5444729136163983
511,0.0014156028654623127,0.5448389458272328
512,0.00142567833069692,0.5448389458272328
513,0.00142567833069692,0.5452049780380673
514,0.0014307160633142235,0.5452049780380673
515,0.0014307160633142235,0.545296486090776
516,0.0014357537959315272,0.545296486090776
517,0.0014357537959315272,0.5454795021961932
518,0.0014407915285488306,0.5454795021961932
519,0.0014407915285488306,0.5456625183016105
520,0.0014458292611661343,0.5456625183016105
521,0.0014458292611661343,0.5467606149341142
522,0.001450866993783438,0.5467606149341142
523,0.001450866993783438,0.5469436310395315
524,0.0014559047264007415,0.5469436310395315
525,0.0014559047264007415,0.5470351390922401
526,0.0014609424590180452,0.5470351390922401
527,0.0014609424590180452,0.5474926793557833
528,0.0014659801916353488,0.5474926793557833
529,0.0014659801916353488,0.5481332357247438
530,0.0014710179242526523,0.5481332357247438
531,0.0014710179242526523,0.5483162518301611
532,0.001476055656869956,0.5483162518301611
533,0.001476055656869956,0.5486822840409956
534,0.0014810933894872597,0.5486822840409956
535,0.0014810933894872597,0.5487737920937042
536,0.0014861311221045631,0.5487737920937042
537,0.0014861311221045631,0.5488653001464129
538,0.0014911688547218668,0.5488653001464129
539,0.0014911688547218668,0.5489568081991215
540,0.0014962065873391703,0.5489568081991215
541,0.0014962065873391703,0.549322840409956
542,0.001511319785191081,0.549322840409956
543,0.001511319785191081,0.5497803806734992
544,0.0015163575178083848,0.5497803806734992
545,0.0015163575178083848,0.5500549048316252
546,0.0015213952504256885,0.5500549048316252
547,0.0015213952504256885,0.5502379209370425
548,0.001526432983042992,0.5502379209370425
549,0.001526432983042992,0.5510614934114202
550,0.0015314707156602956,0.5510614934114202
551,0.0015314707156602956,0.5511530014641288
552,0.0015365084482775993,0.5511530014641288
553,0.0015365084482775993,0.5513360175695461
554,0.0015415461808949028,0.5513360175695461
555,0.0015415461808949028,0.551610541727672
556,0.0015465839135122064,0.551610541727672
557,0.0015465839135122064,0.5517020497803806
558,0.0015516216461295101,0.5517020497803806
559,0.0015516216461295101,0.5517935578330894
560,0.0015566593787468136,0.5517935578330894
561,0.0015566593787468136,0.5520680819912153
562,0.0015616971113641173,0.5520680819912153
563,0.0015616971113641173,0.5521595900439239
564,0.0015717725765987244,0.5521595900439239
565,0.0015717725765987244,0.5526171303074671
566,0.001576810309216028,0.5526171303074671
567,0.001576810309216028,0.5532576866764275
568,0.0015868857744506353,0.5532576866764275
569,0.0015868857744506353,0.5533491947291361
570,0.001591923507067939,0.5533491947291361
571,0.001591923507067939,0.5549963396778916
572,0.0015969612396852424,0.5549963396778916
573,0.0015969612396852424,0.5593887262079063
574,0.001601998972302546,0.5593887262079063
575,0.001601998972302546,0.5597547584187409
576,0.0016070367049198498,0.5597547584187409
577,0.0016070367049198498,0.5601207906295754
578,0.001617112170154457,0.5601207906295754
579,0.001617112170154457,0.56048682284041
580,0.0016221499027717606,0.56048682284041
581,0.0016221499027717606,0.5606698389458272
582,0.001627187635389064,0.5606698389458272
583,0.001627187635389064,0.5611273792093704
584,0.0016322253680063677,0.5611273792093704
585,0.0016322253680063677,0.561218887262079
586,0.0016423008332409749,0.561218887262079
587,0.0016423008332409749,0.5615849194729137
588,0.0016473385658582786,0.5615849194729137
589,0.0016473385658582786,0.5616764275256223
590,0.001652376298475582,0.5616764275256223
591,0.001652376298475582,0.5627745241581259
592,0.0016574140310928857,0.5627745241581259
593,0.0016574140310928857,0.5635065885797951
594,0.0016624517637101894,0.5635065885797951
595,0.0016624517637101894,0.5638726207906296
596,0.0016674894963274929,0.5638726207906296
597,0.0016674894963274929,0.5644216691068814
598,0.0016826026941794037,0.5644216691068814
599,0.0016826026941794037,0.5646046852122987
600,0.001692678159414011,0.5646046852122987
601,0.001692678159414011,0.5648792093704246
602,0.0016977158920313145,0.5648792093704246
603,0.0016977158920313145,0.5662518301610542
604,0.0017027536246486182,0.5662518301610542
605,0.0017027536246486182,0.5664348462664714
606,0.0017077913572659217,0.5664348462664714
607,0.0017077913572659217,0.5665263543191801
608,0.001717866822500529,0.5665263543191801
609,0.001717866822500529,0.5668923865300146
610,0.0017229045551178325,0.5668923865300146
611,0.0017229045551178325,0.5671669106881405
612,0.0017329800203524399,0.5671669106881405
613,0.0017329800203524399,0.5675329428989752
614,0.001743055485587047,0.5675329428989752
615,0.001743055485587047,0.5676244509516838
616,0.0017480932182043507,0.5676244509516838
617,0.0017480932182043507,0.5684480234260615
618,0.0017531309508216541,0.5684480234260615
619,0.0017531309508216541,0.5685395314787701
620,0.0017581686834389578,0.5685395314787701
621,0.0017581686834389578,0.5686310395314788
622,0.0017632064160562613,0.5686310395314788
623,0.0017632064160562613,0.568814055636896
624,0.0017783196139081721,0.568814055636896
625,0.0017783196139081721,0.5689970717423133
626,0.0017833573465254758,0.5689970717423133
627,0.0017833573465254758,0.5694546120058566
628,0.0017883950791427795,0.5694546120058566
629,0.0017883950791427795,0.5696376281112738
630,0.0017984705443773866,0.5696376281112738
631,0.0017984705443773866,0.5697291361639825
632,0.0018035082769946903,0.5697291361639825
633,0.0018035082769946903,0.5700036603221084
634,0.0018085460096119938,0.5700036603221084
635,0.0018085460096119938,0.570095168374817
636,0.0018186214748466011,0.570095168374817
637,0.0018186214748466011,0.5709187408491947
638,0.0018236592074639046,0.5709187408491947
639,0.0018236592074639046,0.5719253294289898
640,0.0018286969400812083,0.5719253294289898
641,0.0018286969400812083,0.5723828696925329
642,0.0018337346726985118,0.5723828696925329
643,0.0018337346726985118,0.5724743777452416
644,0.0018387724053158154,0.5724743777452416
645,0.0018387724053158154,0.5727489019033675
646,0.0018438101379331191,0.5727489019033675
647,0.0018438101379331191,0.5728404099560761
648,0.0018538856031677263,0.5728404099560761
649,0.0018538856031677263,0.5730234260614934
650,0.0018639610684023334,0.5730234260614934
651,0.0018639610684023334,0.5736639824304539
652,0.001868998801019637,0.5736639824304539
653,0.001868998801019637,0.574396046852123
654,0.0018740365336369408,0.574396046852123
655,0.0018740365336369408,0.5744875549048316
656,0.0018790742662542442,0.5744875549048316
657,0.0018790742662542442,0.5745790629575402
658,0.001894187464106155,0.5745790629575402
659,0.001894187464106155,0.5747620790629575
660,0.0019042629293407622,0.5747620790629575
661,0.0019042629293407622,0.5748535871156661
662,0.001909300661958066,0.5748535871156661
663,0.001909300661958066,0.5759516837481699
664,0.001919376127192673,0.5759516837481699
665,0.001919376127192673,0.5765922401171303
666,0.0019294515924272804,0.5765922401171303
667,0.0019294515924272804,0.5766837481698389
668,0.0019344893250445839,0.5766837481698389
669,0.0019344893250445839,0.5771412884333821
670,0.0019395270576618876,0.5771412884333821
671,0.0019395270576618876,0.5773243045387995
672,0.0019445647902791912,0.5773243045387995
673,0.0019445647902791912,0.5782393850658858
674,0.0019496025228964947,0.5782393850658858
675,0.0019496025228964947,0.5784224011713031
676,0.001954640255513798,0.5784224011713031
677,0.001954640255513798,0.5786054172767203
678,0.001959677988131102,0.5786054172767203
679,0.001959677988131102,0.5790629575402635
680,0.0019647157207484055,0.5790629575402635
681,0.0019647157207484055,0.5794289897510981
682,0.001969753453365709,0.5794289897510981
683,0.001969753453365709,0.5797950219619327
684,0.001974791185983013,0.5797950219619327
685,0.001974791185983013,0.5804355783308931
686,0.0019798289186003164,0.5804355783308931
687,0.0019798289186003164,0.5808016105417276
688,0.00198486665121762,0.5808016105417276
689,0.00198486665121762,0.5808931185944363
690,0.001994942116452227,0.5808931185944363
691,0.001994942116452227,0.5810761346998536
692,0.0019999798490695306,0.5810761346998536
693,0.0019999798490695306,0.5818081991215227
694,0.0020050175816868345,0.5818081991215227
695,0.0020050175816868345,0.5825402635431918
696,0.002010055314304138,0.5825402635431918
697,0.002010055314304138,0.5842789165446559
698,0.0020150930469214415,0.5842789165446559
699,0.0020150930469214415,0.5847364568081991
700,0.0020201307795387454,0.5847364568081991
701,0.0020201307795387454,0.5849194729136163
702,0.002025168512156049,0.5849194729136163
703,0.002025168512156049,0.5851024890190337
704,0.0020302062447733523,0.5851024890190337
705,0.0020302062447733523,0.5854685212298683
706,0.0020402817100079597,0.5854685212298683
707,0.0020402817100079597,0.5856515373352855
708,0.002045319442625263,0.5856515373352855
709,0.002045319442625263,0.5862005856515373
710,0.002050357175242567,0.5862005856515373
711,0.002050357175242567,0.5866581259150805
712,0.0020553949078598705,0.5866581259150805
713,0.0020553949078598705,0.5870241581259151
714,0.002060432640477174,0.5870241581259151
715,0.002060432640477174,0.5871156661786238
716,0.0020705081057117813,0.5871156661786238
717,0.0020705081057117813,0.5876647144948756
718,0.0020805835709463883,0.5876647144948756
719,0.0020805835709463883,0.5881222547584187
720,0.0020906590361809956,0.5881222547584187
721,0.0020906590361809956,0.5883967789165446
722,0.002095696768798299,0.5883967789165446
723,0.002095696768798299,0.5884882869692533
724,0.002100734501415603,0.5884882869692533
725,0.002100734501415603,0.5885797950219619
726,0.0021057722340329064,0.5885797950219619
727,0.0021057722340329064,0.5888543191800878
728,0.002115847699267514,0.5888543191800878
729,0.002115847699267514,0.5891288433382138
730,0.0021208854318848173,0.5891288433382138
731,0.0021208854318848173,0.589586383601757
732,0.0021259231645021207,0.589586383601757
733,0.0021259231645021207,0.5898609077598829
734,0.002135998629736728,0.5898609077598829
735,0.002135998629736728,0.5899524158125915
736,0.0021410363623540316,0.5899524158125915
737,0.0021410363623540316,0.5900439238653001
738,0.0021460740949713355,0.5900439238653001
739,0.0021460740949713355,0.5904099560761347
740,0.002151111827588639,0.5904099560761347
741,0.002151111827588639,0.5908674963396779
742,0.0021561495602059424,0.5908674963396779
743,0.0021561495602059424,0.5917825768667643
744,0.0021662250254405498,0.5917825768667643
745,0.0021662250254405498,0.5919655929721815
746,0.0021712627580578532,0.5919655929721815
747,0.0021712627580578532,0.5920571010248902
748,0.002176300490675157,0.5920571010248902
749,0.002176300490675157,0.592606149341142
750,0.002191413688527068,0.592606149341142
751,0.002191413688527068,0.5931551976573939
752,0.0022065268863789783,0.5931551976573939
753,0.0022065268863789783,0.5932467057101025
754,0.0022115646189962822,0.5932467057101025
755,0.0022115646189962822,0.5939787701317716
756,0.0022166023516135857,0.5939787701317716
757,0.0022166023516135857,0.5942532942898975
758,0.002226677816848193,0.5942532942898975
759,0.002226677816848193,0.5943448023426061
760,0.0022317155494654965,0.5943448023426061
761,0.0022317155494654965,0.5947108345534406
762,0.0022367532820828,0.5947108345534406
763,0.0022367532820828,0.5952598828696926
764,0.0022468287473174074,0.5952598828696926
765,0.0022468287473174074,0.5954428989751098
766,0.0022569042125520147,0.5954428989751098
767,0.0022569042125520147,0.5955344070278185
768,0.002261941945169318,0.5955344070278185
769,0.002261941945169318,0.5956259150805271
770,0.0022720174104039256,0.5956259150805271
771,0.0022720174104039256,0.595900439238653
772,0.002277055143021229,0.595900439238653
773,0.002277055143021229,0.5962664714494875
774,0.0022820928756385325,0.5962664714494875
775,0.0022820928756385325,0.5969985358711567
776,0.0022871306082558364,0.5969985358711567
777,0.0022871306082558364,0.5970900439238653
778,0.00229216834087314,0.5970900439238653
779,0.00229216834087314,0.597181551976574
780,0.0023072815387250507,0.597181551976574
781,0.0023072815387250507,0.5975475841874085
782,0.002312319271342354,0.5975475841874085
783,0.002312319271342354,0.5978221083455344
784,0.0023223947365769615,0.5978221083455344
785,0.0023223947365769615,0.597913616398243
786,0.0023324702018115684,0.597913616398243
787,0.0023324702018115684,0.5985541727672035
788,0.0023375079344288723,0.5985541727672035
789,0.0023375079344288723,0.5986456808199122
790,0.002352621132280783,0.5986456808199122
791,0.002352621132280783,0.5989202049780381
792,0.0023576588648980866,0.5989202049780381
793,0.0023576588648980866,0.5991032210834554
794,0.00236269659751539,0.5991032210834554
795,0.00236269659751539,0.5997437774524158
796,0.002367734330132694,0.5997437774524158
797,0.002367734330132694,0.5999267935578331
798,0.0023727720627499975,0.5999267935578331
799,0.0023727720627499975,0.6001098096632503
800,0.002377809795367301,0.6001098096632503
801,0.002377809795367301,0.6002928257686676
802,0.002382847527984605,0.6002928257686676
803,0.002382847527984605,0.6005673499267935
804,0.0023929229932192118,0.6005673499267935
805,0.0023929229932192118,0.6006588579795022
806,0.0024080361910711226,0.6006588579795022
807,0.0024080361910711226,0.6020314787701317
808,0.0024130739236884265,0.6020314787701317
809,0.0024130739236884265,0.602214494875549
810,0.0024281871215403373,0.602214494875549
811,0.0024281871215403373,0.6023975109809663
812,0.0024332248541576408,0.6023975109809663
813,0.0024332248541576408,0.6028550512445096
814,0.0024382625867749442,0.6028550512445096
815,0.0024382625867749442,0.6031295754026355
816,0.002453375784626855,0.6031295754026355
817,0.002453375784626855,0.6032210834553441
818,0.0024584135172441585,0.6032210834553441
819,0.0024584135172441585,0.6033125915080527
820,0.0024836021803306767,0.6033125915080527
821,0.0024836021803306767,0.60349560761347
822,0.00248863991294798,0.60349560761347
823,0.00248863991294798,0.6038616398243045
824,0.0024987153781825876,0.6038616398243045
825,0.0024987153781825876,0.6040446559297218
826,0.002503753110799891,0.6040446559297218
827,0.002503753110799891,0.604227672035139
828,0.002518866308651802,0.604227672035139
829,0.002518866308651802,0.6043191800878477
830,0.002528941773886409,0.6043191800878477
831,0.002528941773886409,0.6045937042459737
832,0.0025339795065037127,0.6045937042459737
833,0.0025339795065037127,0.6051427525622255
834,0.0025390172391210166,0.6051427525622255
835,0.0025390172391210166,0.6059663250366032
836,0.0025490927043556235,0.6059663250366032
837,0.0025490927043556235,0.6063323572474377
838,0.0025541304369729274,0.6063323572474377
839,0.0025541304369729274,0.6064238653001464
840,0.002559168169590231,0.6064238653001464
841,0.002559168169590231,0.606789897510981
842,0.0025642059022075343,0.606789897510981
843,0.0025642059022075343,0.6068814055636896
844,0.0025692436348248382,0.6068814055636896
845,0.0025692436348248382,0.6070644216691069
846,0.0025742813674421417,0.6070644216691069
847,0.0025742813674421417,0.6071559297218155
848,0.002579319100059445,0.6071559297218155
849,0.002579319100059445,0.6075219619326501
850,0.002584356832676749,0.6075219619326501
851,0.002584356832676749,0.6078879941434846
852,0.0025893945652940525,0.6078879941434846
853,0.0025893945652940525,0.6081625183016105
854,0.002594432297911356,0.6081625183016105
855,0.002594432297911356,0.6087115666178624
856,0.0025994700305286595,0.6087115666178624
857,0.0025994700305286595,0.6088945827232797
858,0.0026045077631459634,0.6088945827232797
859,0.0026045077631459634,0.6090775988286969
860,0.002609545495763267,0.6090775988286969
861,0.002609545495763267,0.6092606149341142
862,0.002619620960997874,0.6092606149341142
863,0.002619620960997874,0.6095351390922401
864,0.0026246586936151776,0.6095351390922401
865,0.0026246586936151776,0.609809663250366
866,0.002634734158849785,0.609809663250366
867,0.002634734158849785,0.6099011713030746
868,0.002644809624084392,0.6099011713030746
869,0.002644809624084392,0.6101756954612005
870,0.0026548850893189993,0.6101756954612005
871,0.0026548850893189993,0.6105417276720352
872,0.0026800737524055175,0.6105417276720352
873,0.0026800737524055175,0.6107247437774525
874,0.0026901492176401244,0.6107247437774525
875,0.0026901492176401244,0.6108162518301611
876,0.0026951869502574283,0.6108162518301611
877,0.0026951869502574283,0.6109077598828697
878,0.002700224682874732,0.6109077598828697
879,0.002700224682874732,0.6109992679355783
880,0.0027052624154920353,0.6109992679355783
881,0.0027052624154920353,0.611090775988287
882,0.002710300148109339,0.611090775988287
883,0.002710300148109339,0.6111822840409956
884,0.0027153378807266426,0.6111822840409956
885,0.0027153378807266426,0.611822840409956
886,0.0027254133459612495,0.611822840409956
887,0.0027254133459612495,0.6119143484626647
888,0.0027455642764304643,0.6119143484626647
889,0.0027455642764304643,0.6121888726207906
890,0.002760677474282375,0.6121888726207906
891,0.002760677474282375,0.6122803806734992
892,0.002770752939516982,0.6122803806734992
893,0.002770752939516982,0.6124633967789166
894,0.002775790672134286,0.6124633967789166
895,0.002775790672134286,0.6132869692532943
896,0.0027808284047515894,0.6132869692532943
897,0.0027808284047515894,0.6133784773060029
898,0.0027909038699861968,0.6133784773060029
899,0.0027909038699861968,0.6135614934114202
900,0.0027959416026035002,0.6135614934114202
901,0.0027959416026035002,0.6136530014641288
902,0.0028009793352208037,0.6136530014641288
903,0.0028009793352208037,0.6140190336749634
904,0.0028060170678381076,0.6140190336749634
905,0.0028060170678381076,0.6145680819912153
906,0.002811054800455411,0.6145680819912153
907,0.002811054800455411,0.6146595900439239
908,0.0028160925330727145,0.6146595900439239
909,0.0028160925330727145,0.6147510980966325
910,0.0028211302656900184,0.6147510980966325
911,0.0028211302656900184,0.6148426061493412
912,0.002826167998307322,0.6148426061493412
913,0.002826167998307322,0.6149341142020498
914,0.0028312057309246253,0.6149341142020498
915,0.0028312057309246253,0.6152086383601757
916,0.0028362434635419292,0.6152086383601757
917,0.0028362434635419292,0.615391654465593
918,0.0028412811961592327,0.615391654465593
919,0.0028412811961592327,0.6154831625183016
920,0.00285135666139384,0.6154831625183016
921,0.00285135666139384,0.6157576866764275
922,0.0028563943940111435,0.6157576866764275
923,0.0028563943940111435,0.6158491947291361
924,0.002861432126628447,0.6158491947291361
925,0.002861432126628447,0.6160322108345534
926,0.0028664698592457505,0.6160322108345534
927,0.0028664698592457505,0.616398243045388
928,0.0028715075918630544,0.616398243045388
929,0.0028715075918630544,0.6164897510980967
930,0.002876545324480358,0.6164897510980967
931,0.002876545324480358,0.6166727672035139
932,0.0028815830570976613,0.6166727672035139
933,0.0028815830570976613,0.6171303074670571
934,0.002886620789714965,0.6171303074670571
935,0.002886620789714965,0.6175878477306003
936,0.0028916585223322687,0.6175878477306003
937,0.0028916585223322687,0.6180453879941434
938,0.002901733987566876,0.6180453879941434
939,0.002901733987566876,0.6181368960468521
940,0.0029067717201841795,0.6181368960468521
941,0.0029067717201841795,0.6183199121522694
942,0.002911809452801483,0.6183199121522694
943,0.002911809452801483,0.618685944363104
944,0.002916847185418787,0.618685944363104
945,0.002916847185418787,0.6189604685212299
946,0.0029218849180360903,0.6189604685212299
947,0.0029218849180360903,0.6191434846266471
948,0.0029269226506533938,0.6191434846266471
949,0.0029269226506533938,0.6192349926793558
950,0.0029319603832706977,0.6192349926793558
951,0.0029319603832706977,0.6196010248901903
952,0.0029420358485053046,0.6196010248901903
953,0.0029420358485053046,0.6197840409956076
954,0.0029470735811226085,0.6197840409956076
955,0.0029470735811226085,0.6200585651537335
956,0.0029571490463572154,0.6200585651537335
957,0.0029571490463572154,0.6201500732064422
958,0.0029621867789745193,0.6201500732064422
959,0.0029621867789745193,0.6209736456808199
960,0.002967224511591823,0.6209736456808199
961,0.002967224511591823,0.6212481698389458
962,0.0029722622442091263,0.6212481698389458
963,0.0029722622442091263,0.6213396778916545
964,0.00297729997682643,0.6213396778916545
965,0.00297729997682643,0.6215226939970717
966,0.0029823377094437336,0.6215226939970717
967,0.0029823377094437336,0.6218887262079063
968,0.0029924131746783406,0.6218887262079063
969,0.0029924131746783406,0.6220717423133236
970,0.003002488639912948,0.6220717423133236
971,0.003002488639912948,0.6224377745241582
972,0.0030075263725302514,0.6224377745241582
973,0.0030075263725302514,0.6226207906295754
974,0.0030125641051475553,0.6226207906295754
975,0.0030125641051475553,0.6228038067349927
976,0.0030176018377648588,0.6228038067349927
977,0.0030176018377648588,0.62298682284041
978,0.0030327150356167696,0.62298682284041
979,0.0030327150356167696,0.6231698389458272
980,0.003042790500851377,0.6231698389458272
981,0.003042790500851377,0.6234443631039531
982,0.0030478282334686804,0.6234443631039531
983,0.0030478282334686804,0.6236273792093704
984,0.003052865966085984,0.6236273792093704
985,0.003052865966085984,0.623718887262079
986,0.0030579036987032878,0.623718887262079
987,0.0030579036987032878,0.6239934114202049
988,0.0030629414313205912,0.6239934114202049
989,0.0030629414313205912,0.6242679355783309
990,0.0030730168965551986,0.6242679355783309
991,0.0030730168965551986,0.6243594436310396
992,0.0030881300944071094,0.6243594436310396
993,0.0030881300944071094,0.6246339677891655
994,0.003093167827024413,0.6246339677891655
995,0.003093167827024413,0.6251830161054173
996,0.0031082810248763237,0.6251830161054173
997,0.0031082810248763237,0.6258235724743777
998,0.003118356490110931,0.6258235724743777
999,0.003118356490110931,0.6259150805270863
1000,0.0031334696879628415,0.6259150805270863
1001,0.0031334696879628415,0.626281112737921
1002,0.0031385074205801454,0.626281112737921
1003,0.0031385074205801454,0.6264641288433382
1004,0.003143545153197449,0.6264641288433382
1005,0.003143545153197449,0.6265556368960469
1006,0.0031485828858147523,0.6265556368960469
1007,0.0031485828858147523,0.6266471449487555
1008,0.0031586583510493597,0.6266471449487555
1009,0.0031586583510493597,0.6268301610541728
1010,0.0031737715489012705,0.6268301610541728
1011,0.0031737715489012705,0.6269216691068814
1012,0.003183847014135878,0.6269216691068814
1013,0.003183847014135878,0.6271046852122987
1014,0.003193922479370485,0.6271046852122987
1015,0.003193922479370485,0.6271961932650073
1016,0.003203997944605092,0.6271961932650073
1017,0.003203997944605092,0.6273792093704246
1018,0.0032140734098396995,0.6273792093704246
1019,0.0032140734098396995,0.6276537335285505
1020,0.003219111142457003,0.6276537335285505
1021,0.003219111142457003,0.6282027818448024
1022,0.0032241488750743065,0.6282027818448024
1023,0.0032241488750743065,0.6284773060029283
1024,0.0032291866076916103,0.6284773060029283
1025,0.0032291866076916103,0.6288433382137628
1026,0.003244299805543521,0.6288433382137628
1027,0.003244299805543521,0.6290263543191801
1028,0.0032493375381608246,0.6290263543191801
1029,0.0032493375381608246,0.6291178623718887
1030,0.003254375270778128,0.6291178623718887
1031,0.003254375270778128,0.6293923865300146
1032,0.0032594130033954316,0.6293923865300146
1033,0.0032594130033954316,0.6294838945827232
1034,0.0032644507360127355,0.6294838945827232
1035,0.0032644507360127355,0.6295754026354319
1036,0.003269488468630039,0.6295754026354319
1037,0.003269488468630039,0.6298499267935578
1038,0.0032795639338646463,0.6298499267935578
1039,0.0032795639338646463,0.6302159590043924
1040,0.0032896393990992532,0.6302159590043924
1041,0.0032896393990992532,0.630581991215227
1042,0.003294677131716557,0.630581991215227
1043,0.003294677131716557,0.6306734992679356
1044,0.003309790329568468,0.6306734992679356
1045,0.003309790329568468,0.6307650073206442
1046,0.0033148280621857714,0.6307650073206442
1047,0.0033148280621857714,0.6308565153733529
1048,0.003319865794803075,0.6308565153733529
1049,0.003319865794803075,0.6321376281112738
1050,0.0033299412600376822,0.6321376281112738
1051,0.0033299412600376822,0.6323206442166911
1052,0.0033349789926549857,0.6323206442166911
1053,0.0033349789926549857,0.6327781844802343
1054,0.003345054457889593,0.6327781844802343
1055,0.003345054457889593,0.6333272327964861
1056,0.003360167655741504,0.6333272327964861
1057,0.003360167655741504,0.633601756954612
1058,0.0033652053883588074,0.633601756954612
1059,0.0033652053883588074,0.6336932650073206
1060,0.0033702431209761113,0.6336932650073206
1061,0.0033702431209761113,0.6343338213762811
1062,0.003380318586210718,0.6343338213762811
1063,0.003380318586210718,0.6350658857979502
1064,0.003385356318828022,0.6350658857979502
1065,0.003385356318828022,0.6351573938506588
1066,0.0033903940514453256,0.6351573938506588
1067,0.0033903940514453256,0.6354319180087847
1068,0.003395431784062629,0.6354319180087847
1069,0.003395431784062629,0.6355234260614934
1070,0.0034004695166799325,0.6355234260614934
1071,0.0034004695166799325,0.6360724743777453
1072,0.0034055072492972364,0.6360724743777453
1073,0.0034055072492972364,0.6362554904831625
1074,0.0034155827145318433,0.6362554904831625
1075,0.0034155827145318433,0.6368045387994143
1076,0.0034206204471491472,0.6368045387994143
1077,0.0034206204471491472,0.636896046852123
1078,0.0034256581797664507,0.636896046852123
1079,0.0034256581797664507,0.6369875549048316
1080,0.003435733645001058,0.6369875549048316
1081,0.003435733645001058,0.6370790629575402
1082,0.0034407713776183615,0.6370790629575402
1083,0.0034407713776183615,0.6374450951683748
1084,0.003445809110235665,0.6374450951683748
1085,0.003445809110235665,0.637902635431918
1086,0.003450846842852969,0.637902635431918
1087,0.003450846842852969,0.6380856515373353
1088,0.003460922308087576,0.6380856515373353
1089,0.003460922308087576,0.638177159590044
1090,0.0034659600407048797,0.638177159590044
1091,0.0034659600407048797,0.6382686676427526
1092,0.0034760355059394866,0.6382686676427526
1093,0.0034760355059394866,0.6385431918008785
1094,0.003486110971174094,0.6385431918008785
1095,0.003486110971174094,0.6387262079062958
1096,0.0034961864364087014,0.6387262079062958
1097,0.0034961864364087014,0.6388177159590044
1098,0.003501224169026005,0.6388177159590044
1099,0.003501224169026005,0.6392752562225475
1100,0.003511299634260612,0.6392752562225475
1101,0.003511299634260612,0.6393667642752562
1102,0.0035163373668779157,0.6393667642752562
1103,0.0035163373668779157,0.6395497803806734
1104,0.003521375099495219,0.6395497803806734
1105,0.003521375099495219,0.6396412884333821
1106,0.0035264128321125226,0.6396412884333821
1107,0.0035264128321125226,0.6398243045387995
1108,0.0035314505647298265,0.6398243045387995
1109,0.0035314505647298265,0.6399158125915081
1110,0.0035415260299644334,0.6399158125915081
1111,0.0035415260299644334,0.640190336749634
1112,0.0035465637625817373,0.640190336749634
1113,0.0035465637625817373,0.6405563689604685
1114,0.0035516014951990408,0.6405563689604685
1115,0.0035516014951990408,0.6408308931185944
1116,0.003561676960433648,0.6408308931185944
1117,0.003561676960433648,0.6411054172767203
1118,0.0035667146930509516,0.6411054172767203
1119,0.0035667146930509516,0.641196925329429
1120,0.003571752425668255,0.641196925329429
1121,0.003571752425668255,0.6415629575402635
1122,0.003586865623520166,0.6415629575402635
1123,0.003586865623520166,0.6416544655929722
1124,0.00359190335613747,0.6416544655929722
1125,0.00359190335613747,0.6419289897510981
1126,0.003612054286606684,0.6419289897510981
1127,0.003612054286606684,0.6420204978038068
1128,0.0036221297518412915,0.6420204978038068
1129,0.0036221297518412915,0.642203513909224
1130,0.0036372429496932023,0.642203513909224
1131,0.0036372429496932023,0.6424780380673499
1132,0.003647318414927809,0.6424780380673499
1133,0.003647318414927809,0.6426610541727672
1134,0.003652356147545113,0.6426610541727672
1135,0.003652356147545113,0.6427525622254758
1136,0.0036573938801624166,0.6427525622254758
1137,0.0036573938801624166,0.6428440702781845
1138,0.00366243161277972,0.6428440702781845
1139,0.00366243161277972,0.643210102489019
1140,0.0036725070780143274,0.643210102489019
1141,0.0036725070780143274,0.6433016105417276
1142,0.003677544810631631,0.6433016105417276
1143,0.003677544810631631,0.6434846266471449
1144,0.0036825825432489343,0.6434846266471449
1145,0.0036825825432489343,0.6435761346998536
1146,0.003697695741100845,0.6435761346998536
1147,0.003697695741100845,0.6439421669106882
1148,0.003702733473718149,0.6439421669106882
1149,0.003702733473718149,0.6443081991215227
1150,0.0037077712063354525,0.6443081991215227
1151,0.0037077712063354525,0.6443997071742313
1152,0.0037228844041873634,0.6443997071742313
1153,0.0037228844041873634,0.64449121522694
1154,0.003727922136804667,0.64449121522694
1155,0.003727922136804667,0.6447657393850659
1156,0.0037329598694219707,0.6447657393850659
1157,0.0037329598694219707,0.6451317715959004
1158,0.003737997602039274,0.6451317715959004
1159,0.003737997602039274,0.645223279648609
1160,0.0037430353346565776,0.645223279648609
1161,0.0037430353346565776,0.6453147877013177
1162,0.0037480730672738815,0.6453147877013177
1163,0.0037480730672738815,0.6454978038067349
1164,0.0037631862651257924,0.6454978038067349
1165,0.0037631862651257924,0.6455893118594437
1166,0.0037732617303603993,0.6455893118594437
1167,0.0037732617303603993,0.6464128843338214
1168,0.00378837492821231,0.6464128843338214
1169,0.00378837492821231,0.6473279648609077
1170,0.0037934126608296136,0.6473279648609077
1171,0.0037934126608296136,0.6476939970717424
1172,0.0037984503934469175,0.6476939970717424
1173,0.0037984503934469175,0.647785505124451
1174,0.003803488126064221,0.647785505124451
1175,0.003803488126064221,0.6480600292825769
1176,0.0038085258586815244,0.6480600292825769
1177,0.0038085258586815244,0.6481515373352855
1178,0.003818601323916132,0.6481515373352855
1179,0.003818601323916132,0.648792093704246
1180,0.0038236390565334353,0.648792093704246
1181,0.0038236390565334353,0.6491581259150805
1182,0.003828676789150739,0.6491581259150805
1183,0.003828676789150739,0.6493411420204978
1184,0.0038337145217680426,0.6493411420204978
1185,0.0038337145217680426,0.6496156661786238
1186,0.003838752254385346,0.6496156661786238
1187,0.003838752254385346,0.6497071742313324
1188,0.003853865452237257,0.6497071742313324
1189,0.003853865452237257,0.6498901903367497
1190,0.003858903184854561,0.6498901903367497
1191,0.003858903184854561,0.6507137628111274
1192,0.0038689786500891677,0.6507137628111274
1193,0.0038689786500891677,0.6511713030746705
1194,0.0038740163827064716,0.6511713030746705
1195,0.0038740163827064716,0.6513543191800878
1196,0.0038840918479410786,0.6513543191800878
1197,0.0038840918479410786,0.6515373352855052
1198,0.0038891295805583825,0.6515373352855052
1199,0.0038891295805583825,0.6517203513909224
1200,0.0038992050457929894,0.6517203513909224
1201,0.0038992050457929894,0.6518118594436311
1202,0.0039143182436449,0.6518118594436311
1203,0.0039143182436449,0.6522693997071742
1204,0.003929431441496811,0.6522693997071742
1205,0.003929431441496811,0.6523609077598829
1206,0.003939506906731418,0.6523609077598829
1207,0.003939506906731418,0.6524524158125915
1208,0.003944544639348722,0.6524524158125915
1209,0.003944544639348722,0.6525439238653001
1210,0.003949582371966026,0.6525439238653001
1211,0.003949582371966026,0.6526354319180088
1212,0.003954620104583329,0.6526354319180088
1213,0.003954620104583329,0.6527269399707174
1214,0.003964695569817937,0.6527269399707174
1215,0.003964695569817937,0.6532759882869692
1216,0.0039747710350525435,0.6532759882869692
1217,0.0039747710350525435,0.6538250366032211
1218,0.0039848465002871505,0.6538250366032211
1219,0.0039848465002871505,0.654099560761347
1220,0.003989884232904454,0.654099560761347
1221,0.003989884232904454,0.6541910688140556
1222,0.003999959698139061,0.6541910688140556
1223,0.003999959698139061,0.6544655929721815
1224,0.004004997430756365,0.6544655929721815
1225,0.004004997430756365,0.6546486090775988
1226,0.004015072895990972,0.6546486090775988
1227,0.004015072895990972,0.6548316251830161
1228,0.004020110628608276,0.6548316251830161
1229,0.004020110628608276,0.655106149341142
1230,0.00402514836122558,0.655106149341142
1231,0.00402514836122558,0.6551976573938506
1232,0.004035223826460187,0.6551976573938506
1233,0.004035223826460187,0.655380673499268
1234,0.004050337024312098,0.655380673499268
1235,0.004050337024312098,0.6559297218155198
1236,0.004055374756929402,0.6559297218155198
1237,0.004055374756929402,0.6560212298682284
1238,0.0040654502221640085,0.6560212298682284
1239,0.0040654502221640085,0.656112737920937
1240,0.004070487954781312,0.656112737920937
1241,0.004070487954781312,0.6562042459736457
1242,0.0040755256873986154,0.6562042459736457
1243,0.0040755256873986154,0.656387262079063
1244,0.004085601152633223,0.656387262079063
1245,0.004085601152633223,0.6569363103953147
1246,0.004090638885250526,0.6569363103953147
1247,0.004090638885250526,0.657119326500732
1248,0.00409567661786783,0.657119326500732
1249,0.00409567661786783,0.6572108345534406
1250,0.004100714350485134,0.6572108345534406
1251,0.004100714350485134,0.6573023426061494
1252,0.004115827548337045,0.6573023426061494
1253,0.004115827548337045,0.657393850658858
1254,0.004120865280954348,0.657393850658858
1255,0.004120865280954348,0.6575768667642753
1256,0.004125903013571652,0.6575768667642753
1257,0.004125903013571652,0.6576683748169839
1258,0.004130940746188955,0.6576683748169839
1259,0.004130940746188955,0.6577598828696926
1260,0.004135978478806259,0.6577598828696926
1261,0.004135978478806259,0.6579428989751098
1262,0.004146053944040866,0.6579428989751098
1263,0.004146053944040866,0.6582174231332357
1264,0.00415109167665817,0.6582174231332357
1265,0.00415109167665817,0.6584919472913616
1266,0.0041561294092754735,0.6584919472913616
1267,0.0041561294092754735,0.6586749633967789
1268,0.00416620487451008,0.6586749633967789
1269,0.00416620487451008,0.6587664714494875
1270,0.004171242607127384,0.6587664714494875
1271,0.004171242607127384,0.6593155197657394
1272,0.004176280339744687,0.6593155197657394
1273,0.004176280339744687,0.6594070278184481
1274,0.004186355804979295,0.6594070278184481
1275,0.004186355804979295,0.6597730600292826
1276,0.004201469002831206,0.6597730600292826
1277,0.004201469002831206,0.6599560761346999
1278,0.004216582200683117,0.6599560761346999
1279,0.004216582200683117,0.6600475841874085
1280,0.00422161993330042,0.6600475841874085
1281,0.00422161993330042,0.6601390922401171
1282,0.004231695398535028,0.6601390922401171
1283,0.004231695398535028,0.660413616398243
1284,0.004236733131152331,0.660413616398243
1285,0.004236733131152331,0.6605051244509517
1286,0.0042417708637696346,0.6605051244509517
1287,0.0042417708637696346,0.6606881405563689
1288,0.004261921794238849,0.6606881405563689
1289,0.004261921794238849,0.6607796486090776
1290,0.004271997259473456,0.6607796486090776
1291,0.004271997259473456,0.6608711566617862
1292,0.00427703499209076,0.6608711566617862
1293,0.00427703499209076,0.6610541727672035
1294,0.004287110457325367,0.6610541727672035
1295,0.004287110457325367,0.6613286969253295
1296,0.004292148189942671,0.6613286969253295
1297,0.004292148189942671,0.6616032210834554
1298,0.004302223655177278,0.6616032210834554
1299,0.004302223655177278,0.661694729136164
1300,0.004307261387794582,0.661694729136164
1301,0.004307261387794582,0.6619692532942899
1302,0.004312299120411885,0.6619692532942899
1303,0.004312299120411885,0.6621522693997072
1304,0.004322374585646493,0.6621522693997072
1305,0.004322374585646493,0.6625183016105417
1306,0.004327412318263796,0.6625183016105417
1307,0.004327412318263796,0.6630673499267935
1308,0.0043324500508810995,0.6630673499267935
1309,0.0043324500508810995,0.6633418740849195
1310,0.0043425255161157065,0.6633418740849195
1311,0.0043425255161157065,0.6636163982430454
1312,0.00434756324873301,0.6636163982430454
1313,0.00434756324873301,0.6637994143484627
1314,0.004352600981350314,0.6637994143484627
1315,0.004352600981350314,0.6641654465592972
1316,0.004357638713967617,0.6641654465592972
1317,0.004357638713967617,0.6642569546120058
1318,0.004362676446584921,0.6642569546120058
1319,0.004362676446584921,0.6643484626647145
1320,0.004367714179202225,0.6643484626647145
1321,0.004367714179202225,0.6645314787701317
1322,0.004372751911819528,0.6645314787701317
1323,0.004372751911819528,0.6648060029282576
1324,0.004377789644436832,0.6648060029282576
1325,0.004377789644436832,0.6649890190336749
1326,0.004382827377054136,0.6649890190336749
1327,0.004382827377054136,0.6651720351390923
1328,0.004397940574906046,0.6651720351390923
1329,0.004397940574906046,0.6652635431918009
1330,0.00440297830752335,0.6652635431918009
1331,0.00440297830752335,0.6654465592972182
1332,0.004413053772757957,0.6654465592972182
1333,0.004413053772757957,0.6659040995607614
1334,0.0044231292379925645,0.6659040995607614
1335,0.0044231292379925645,0.66599560761347
1336,0.0044281669706098675,0.66599560761347
1337,0.0044281669706098675,0.6660871156661786
1338,0.004433204703227171,0.6660871156661786
1339,0.004433204703227171,0.6661786237188873
1340,0.004438242435844475,0.6661786237188873
1341,0.004438242435844475,0.6662701317715959
1342,0.004453355633696386,0.6662701317715959
1343,0.004453355633696386,0.6663616398243045
1344,0.004458393366313689,0.6663616398243045
1345,0.004458393366313689,0.6668191800878477
1346,0.004463431098930993,0.6668191800878477
1347,0.004463431098930993,0.6669106881405563
1348,0.004468468831548297,0.6669106881405563
1349,0.004468468831548297,0.6670937042459737
1350,0.004478544296782904,0.6670937042459737
1351,0.004478544296782904,0.6671852122986823
1352,0.004483582029400208,0.6671852122986823
1353,0.004483582029400208,0.667276720351391
1354,0.004493657494634815,0.667276720351391
1355,0.004493657494634815,0.6673682284040996
1356,0.0045138084251040295,0.6673682284040996
1357,0.0045138084251040295,0.6675512445095169
1358,0.00452892162295594,0.6675512445095169
1359,0.00452892162295594,0.6676427525622255
1360,0.004533959355573243,0.6676427525622255
1361,0.004533959355573243,0.6677342606149341
1362,0.004544034820807851,0.6677342606149341
1363,0.004544034820807851,0.6678257686676428
1364,0.004554110286042458,0.6678257686676428
1365,0.004554110286042458,0.6679172767203514
1366,0.004559148018659762,0.6679172767203514
1367,0.004559148018659762,0.66800878477306
1368,0.004569223483894369,0.66800878477306
1369,0.004569223483894369,0.6681918008784773
1370,0.004579298949128976,0.6681918008784773
1371,0.004579298949128976,0.6682833089311859
1372,0.00458433668174628,0.6682833089311859
1373,0.00458433668174628,0.6683748169838946
1374,0.004589374414363584,0.6683748169838946
1375,0.004589374414363584,0.6686493411420205
1376,0.0045994498795981905,0.6686493411420205
1377,0.0045994498795981905,0.6687408491947291
1378,0.004624638542684708,0.6687408491947291
1379,0.004624638542684708,0.6689238653001464
1380,0.004629676275302012,0.6689238653001464
1381,0.004629676275302012,0.6695644216691069
1382,0.004639751740536619,0.6695644216691069
1383,0.004639751740536619,0.6696559297218155
1384,0.004644789473153923,0.6696559297218155
1385,0.004644789473153923,0.670296486090776
1386,0.004649827205771226,0.670296486090776
1387,0.004649827205771226,0.6704795021961932
1388,0.004659902671005834,0.6704795021961932
1389,0.004659902671005834,0.6705710102489019
1390,0.004664940403623137,0.6705710102489019
1391,0.004664940403623137,0.6707540263543191
1392,0.004669978136240441,0.6707540263543191
1393,0.004669978136240441,0.6711200585651538
1394,0.004675015868857745,0.6711200585651538
1395,0.004675015868857745,0.671303074670571
1396,0.004685091334092352,0.671303074670571
1397,0.004685091334092352,0.6715775988286969
1398,0.0047002045319442624,0.6715775988286969
1399,0.0047002045319442624,0.6716691068814056
1400,0.004705242264561566,0.6716691068814056
1401,0.004705242264561566,0.6718521229868228
1402,0.004740506392882691,0.6718521229868228
1403,0.004740506392882691,0.6719436310395315
1404,0.004745544125499995,0.6719436310395315
1405,0.004745544125499995,0.6724926793557833
1406,0.004755619590734602,0.6724926793557833
1407,0.004755619590734602,0.6727672035139092
1408,0.004760657323351906,0.6727672035139092
1409,0.004760657323351906,0.6728587115666179
1410,0.00476569505596921,0.6728587115666179
1411,0.00476569505596921,0.6729502196193266
1412,0.004775770521203817,0.6729502196193266
1413,0.004775770521203817,0.6734077598828697
1414,0.0047808082538211205,0.6734077598828697
1415,0.0047808082538211205,0.6734992679355783
1416,0.004795921451673031,0.6734992679355783
1417,0.004795921451673031,0.6736822840409956
1418,0.004800959184290334,0.6736822840409956
1419,0.004800959184290334,0.6738653001464129
1420,0.004821110114759549,0.6738653001464129
1421,0.004821110114759549,0.6741398243045388
1422,0.004826147847376853,0.6741398243045388
1423,0.004826147847376853,0.6742313323572474
1424,0.004841261045228764,0.6742313323572474
1425,0.004841261045228764,0.674322840409956
1426,0.004851336510463371,0.674322840409956
1427,0.004851336510463371,0.6744143484626647
1428,0.0048714874409325854,0.6744143484626647
1429,0.0048714874409325854,0.6745058565153733
1430,0.0048765251735498885,0.6745058565153733
1431,0.0048765251735498885,0.674597364568082
1432,0.004881562906167192,0.674597364568082
1433,0.004881562906167192,0.6747803806734992
1434,0.004886600638784496,0.6747803806734992
1435,0.004886600638784496,0.674871888726208
1436,0.004891638371401799,0.674871888726208
1437,0.004891638371401799,0.6753294289897511
1438,0.004896676104019103,0.6753294289897511
1439,0.004896676104019103,0.6754209370424598
1440,0.004901713836636407,0.6754209370424598
1441,0.004901713836636407,0.675603953147877
1442,0.004911789301871014,0.675603953147877
1443,0.004911789301871014,0.6756954612005857
1444,0.004916827034488317,0.6756954612005857
1445,0.004916827034488317,0.6757869692532943
1446,0.004921864767105621,0.6757869692532943
1447,0.004921864767105621,0.6758784773060029
1448,0.004926902499722925,0.6758784773060029
1449,0.004926902499722925,0.6759699853587116
1450,0.004936977964957532,0.6759699853587116
1451,0.004936977964957532,0.6760614934114202
1452,0.004947053430192139,0.6760614934114202
1453,0.004947053430192139,0.6761530014641288
1454,0.004952091162809443,0.6761530014641288
1455,0.004952091162809443,0.6764275256222547
1456,0.0049571288954267465,0.6764275256222547
1457,0.0049571288954267465,0.676610541727672
1458,0.0049621666280440496,0.676610541727672
1459,0.0049621666280440496,0.6767020497803806
1460,0.0049672043606613535,0.6767020497803806
1461,0.0049672043606613535,0.6769765739385066
1462,0.004972242093278657,0.6769765739385066
1463,0.004972242093278657,0.6772510980966325
1464,0.00497727982589596,0.6772510980966325
1465,0.00497727982589596,0.6773426061493412
1466,0.004992393023747871,0.6773426061493412
1467,0.004992393023747871,0.677891654465593
1468,0.005007506221599782,0.677891654465593
1469,0.005007506221599782,0.6779831625183016
1470,0.005012543954217086,0.6779831625183016
1471,0.005012543954217086,0.6785322108345534
1472,0.005022619419451693,0.6785322108345534
1473,0.005022619419451693,0.6788067349926794
1474,0.005027657152068997,0.6788067349926794
1475,0.005027657152068997,0.6789897510980967
1476,0.005032694884686301,0.6789897510980967
1477,0.005032694884686301,0.6790812591508053
1478,0.005037732617303604,0.6790812591508053
1479,0.005037732617303604,0.6792642752562226
1480,0.005072996745624729,0.6792642752562226
1481,0.005072996745624729,0.6793557833089312
1482,0.005083072210859336,0.6793557833089312
1483,0.005083072210859336,0.6795387994143485
1484,0.00508810994347664,0.6795387994143485
1485,0.00508810994347664,0.6797218155197657
1486,0.005103223141328551,0.6797218155197657
1487,0.005103223141328551,0.6800878477306003
1488,0.005113298606563158,0.6800878477306003
1489,0.005113298606563158,0.6801793557833089
1490,0.005118336339180462,0.6801793557833089
1491,0.005118336339180462,0.6803623718887262
1492,0.0051435250022669795,0.6803623718887262
1493,0.0051435250022669795,0.6805453879941434
1494,0.005148562734884283,0.6805453879941434
1495,0.005148562734884283,0.6807284040995608
1496,0.005153600467501587,0.6807284040995608
1497,0.005153600467501587,0.6812774524158126
1498,0.005163675932736194,0.6812774524158126
1499,0.005163675932736194,0.6813689604685212
1500,0.005168713665353498,0.6813689604685212
1501,0.005168713665353498,0.6814604685212299
1502,0.005173751397970801,0.6814604685212299
1503,0.005173751397970801,0.6815519765739385
1504,0.005178789130588105,0.6815519765739385
1505,0.005178789130588105,0.6816434846266471
1506,0.005183826863205408,0.6816434846266471
1507,0.005183826863205408,0.6818265007320644
1508,0.005188864595822712,0.6818265007320644
1509,0.005188864595822712,0.681918008784773
1510,0.005193902328440016,0.681918008784773
1511,0.005193902328440016,0.6823755490483162
1512,0.00521405325890923,0.6823755490483162
1513,0.00521405325890923,0.6824670571010248
1514,0.005219090991526534,0.6824670571010248
1515,0.005219090991526534,0.6825585651537335
1516,0.0052241287241438375,0.6825585651537335
1517,0.0052241287241438375,0.6826500732064422
1518,0.005249317387230355,0.6826500732064422
1519,0.005249317387230355,0.6829245973645681
1520,0.005259392852464962,0.6829245973645681
1521,0.005259392852464962,0.6833821376281113
1522,0.005264430585082266,0.6833821376281113
1523,0.005264430585082266,0.6837481698389458
1524,0.00526946831769957,0.6837481698389458
1525,0.00526946831769957,0.6838396778916545
1526,0.005274506050316873,0.6838396778916545
1527,0.005274506050316873,0.6843887262079063
1528,0.005279543782934177,0.6843887262079063
1529,0.005279543782934177,0.6844802342606149
1530,0.005309770178637999,0.6844802342606149
1531,0.005309770178637999,0.6845717423133236
1532,0.0053198456438726055,0.6845717423133236
1533,0.0053198456438726055,0.6846632503660323
1534,0.0053248833764899094,0.6846632503660323
1535,0.0053248833764899094,0.6847547584187409
1536,0.005329921109107213,0.6847547584187409
1537,0.005329921109107213,0.6848462664714495
1538,0.005350072039576427,0.6848462664714495
1539,0.005350072039576427,0.6849377745241582
1540,0.005355109772193731,0.6849377745241582
1541,0.005355109772193731,0.6850292825768668
1542,0.005360147504811035,0.6850292825768668
1543,0.005360147504811035,0.6851207906295754
1544,0.005380298435280249,0.6851207906295754
1545,0.005380298435280249,0.6852122986822841
1546,0.005390373900514857,0.6852122986822841
1547,0.005390373900514857,0.6853953147877013
1548,0.005400449365749464,0.6853953147877013
1549,0.005400449365749464,0.6855783308931186
1550,0.005420600296218678,0.6855783308931186
1551,0.005420600296218678,0.6856698389458272
1552,0.005430675761453285,0.6856698389458272
1553,0.005430675761453285,0.6858528550512445
1554,0.005440751226687892,0.6858528550512445
1555,0.005440751226687892,0.6859443631039531
1556,0.005445788959305196,0.6859443631039531
1557,0.005445788959305196,0.6864019033674963
1558,0.005455864424539803,0.6864019033674963
1559,0.005455864424539803,0.6865849194729137
1560,0.005460902157157107,0.6865849194729137
1561,0.005460902157157107,0.6867679355783309
1562,0.00546593988977441,0.6867679355783309
1563,0.00546593988977441,0.6870424597364568
1564,0.005481053087626321,0.6870424597364568
1565,0.005481053087626321,0.6871339677891655
1566,0.005496166285478232,0.6871339677891655
1567,0.005496166285478232,0.6872254758418741
1568,0.005506241750712839,0.6872254758418741
1569,0.005506241750712839,0.6874084919472914
1570,0.00552135494856475,0.6874084919472914
1571,0.00552135494856475,0.6877745241581259
1572,0.005526392681182053,0.6877745241581259
1573,0.005526392681182053,0.6878660322108345
1574,0.005531430413799357,0.6878660322108345
1575,0.005531430413799357,0.6879575402635432
1576,0.005536468146416661,0.6879575402635432
1577,0.005536468146416661,0.6880490483162518
1578,0.005546543611651268,0.6880490483162518
1579,0.005546543611651268,0.6885980966325037
1580,0.005561656809503179,0.6885980966325037
1581,0.005561656809503179,0.6886896046852123
1582,0.005571732274737786,0.6886896046852123
1583,0.005571732274737786,0.6889641288433382
1584,0.00557677000735509,0.6889641288433382
1585,0.00557677000735509,0.6891471449487555
1586,0.0055868454725896965,0.6891471449487555
1587,0.0055868454725896965,0.6892386530014641
1588,0.005601958670441607,0.6892386530014641
1589,0.005601958670441607,0.6893301610541728
1590,0.005606996403058911,0.6893301610541728
1591,0.005606996403058911,0.6894216691068814
1592,0.005617071868293518,0.6894216691068814
1593,0.005617071868293518,0.68951317715959
1594,0.005622109600910822,0.68951317715959
1595,0.005622109600910822,0.6896961932650073
1596,0.005627147333528126,0.6896961932650073
1597,0.005627147333528126,0.6898792093704246
1598,0.005632185066145429,0.6898792093704246
1599,0.005632185066145429,0.6899707174231332
1600,0.005637222798762733,0.6899707174231332
1601,0.005637222798762733,0.6901537335285505
1602,0.00564729826399734,0.6901537335285505
1603,0.00564729826399734,0.6903367496339677
1604,0.005652335996614644,0.6903367496339677
1605,0.005652335996614644,0.6907027818448024
1606,0.005667449194466555,0.6907027818448024
1607,0.005667449194466555,0.690794289897511
1608,0.005687600124935769,0.690794289897511
1609,0.005687600124935769,0.6908857979502196
1610,0.005692637857553072,0.6908857979502196
1611,0.005692637857553072,0.6911603221083455
1612,0.00570271332278768,0.6911603221083455
1613,0.00570271332278768,0.6913433382137628
1614,0.005732939718491501,0.6913433382137628
1615,0.005732939718491501,0.6917093704245973
1616,0.005737977451108805,0.6917093704245973
1617,0.005737977451108805,0.691800878477306
1618,0.005743015183726109,0.691800878477306
1619,0.005743015183726109,0.6920754026354319
1620,0.005763166114195323,0.6920754026354319
1621,0.005763166114195323,0.6922584187408491
1622,0.005778279312047233,0.6922584187408491
1623,0.005778279312047233,0.6925329428989752
1624,0.005783317044664537,0.6925329428989752
1625,0.005783317044664537,0.6926244509516838
1626,0.005788354777281841,0.6926244509516838
1627,0.005788354777281841,0.6927159590043924
1628,0.005793392509899144,0.6927159590043924
1629,0.005793392509899144,0.6928074670571011
1630,0.005798430242516448,0.6928074670571011
1631,0.005798430242516448,0.6928989751098097
1632,0.005818581172985663,0.6928989751098097
1633,0.005818581172985663,0.6932650073206442
1634,0.00582865663822027,0.6932650073206442
1635,0.00582865663822027,0.6933565153733529
1636,0.005838732103454877,0.6933565153733529
1637,0.005838732103454877,0.6939055636896047
1638,0.005843769836072181,0.6939055636896047
1639,0.005843769836072181,0.6943631039531479
1640,0.0058488075686894845,0.6943631039531479
1641,0.0058488075686894845,0.6944546120058566
1642,0.0058538453013067876,0.6944546120058566
1643,0.0058538453013067876,0.6945461200585652
1644,0.005863920766541395,0.6945461200585652
1645,0.005863920766541395,0.6946376281112738
1646,0.005868958499158698,0.6946376281112738
1647,0.005868958499158698,0.6949121522693997
1648,0.005873996231776002,0.6949121522693997
1649,0.005873996231776002,0.6950036603221084
1650,0.005879033964393306,0.6950036603221084
1651,0.005879033964393306,0.695095168374817
1652,0.005889109429627913,0.695095168374817
1653,0.005889109429627913,0.6951866764275256
1654,0.00589918489486252,0.6951866764275256
1655,0.00589918489486252,0.6952781844802343
1656,0.005924373557949039,0.6952781844802343
1657,0.005924373557949039,0.6955527086383602
1658,0.0059394867558009495,0.6955527086383602
1659,0.0059394867558009495,0.6959187408491947
1660,0.005949562221035556,0.6959187408491947
1661,0.005949562221035556,0.6960102489019033
1662,0.005974750884122074,0.6960102489019033
1663,0.005974750884122074,0.696101756954612
1664,0.005979788616739378,0.696101756954612
1665,0.005979788616739378,0.6962847730600292
1666,0.005994901814591289,0.6962847730600292
1667,0.005994901814591289,0.696376281112738
1668,0.005999939547208592,0.696376281112738
1669,0.005999939547208592,0.6965592972181552
1670,0.006015052745060503,0.6965592972181552
1671,0.006015052745060503,0.6967423133235725
1672,0.006040241408147021,0.6967423133235725
1673,0.006040241408147021,0.6968338213762811
1674,0.006050316873381628,0.6968338213762811
1675,0.006050316873381628,0.6969253294289898
1676,0.006065430071233539,0.6969253294289898
1677,0.006065430071233539,0.6970168374816984
1678,0.00608054326908545,0.6970168374816984
1679,0.00608054326908545,0.6971998535871157
1680,0.006085581001702754,0.6971998535871157
1681,0.006085581001702754,0.6973828696925329
1682,0.006090618734320057,0.6973828696925329
1683,0.006090618734320057,0.6975658857979502
1684,0.006095656466937361,0.6975658857979502
1685,0.006095656466937361,0.6977489019033675
1686,0.006105731932171968,0.6977489019033675
1687,0.006105731932171968,0.698114934114202
1688,0.006110769664789272,0.698114934114202
1689,0.006110769664789272,0.6982064421669106
1690,0.0061158073974065755,0.6982064421669106
1691,0.0061158073974065755,0.698389458272328
1692,0.006120845130023879,0.698389458272328
1693,0.006120845130023879,0.6984809663250366
1694,0.006135958327875789,0.6984809663250366
1695,0.006135958327875789,0.6985724743777453
1696,0.0061510715257277,0.6985724743777453
1697,0.0061510715257277,0.6986639824304539
1698,0.006156109258345004,0.6986639824304539
1699,0.006156109258345004,0.6988469985358712
1700,0.006171222456196915,0.6988469985358712
1701,0.006171222456196915,0.6989385065885798
1702,0.006181297921431522,0.6989385065885798
1703,0.006181297921431522,0.6990300146412884
1704,0.006186335654048826,0.6990300146412884
1705,0.006186335654048826,0.6991215226939971
1706,0.006196411119283433,0.6991215226939971
1707,0.006196411119283433,0.6992130307467057
1708,0.006201448851900737,0.6992130307467057
1709,0.006201448851900737,0.6993045387994143
1710,0.0062064865845180405,0.6993045387994143
1711,0.0062064865845180405,0.6994875549048316
1712,0.0062115243171353435,0.6994875549048316
1713,0.0062115243171353435,0.6995790629575402
1714,0.006226637514987254,0.6995790629575402
1715,0.006226637514987254,0.6996705710102489
1716,0.006231675247604558,0.6996705710102489
1717,0.006231675247604558,0.6997620790629575
1718,0.006236712980221862,0.6997620790629575
1719,0.006236712980221862,0.6998535871156661
1720,0.00626190164330838,0.6998535871156661
1721,0.00626190164330838,0.6999450951683748
1722,0.006271977108542987,0.6999450951683748
1723,0.006271977108542987,0.7002196193265008
1724,0.006287090306394898,0.7002196193265008
1725,0.006287090306394898,0.7003111273792094
1726,0.006297165771629505,0.7003111273792094
1727,0.006297165771629505,0.7004941434846267
1728,0.006307241236864112,0.7004941434846267
1729,0.006307241236864112,0.7005856515373353
1730,0.006317316702098719,0.7005856515373353
1731,0.006317316702098719,0.7007686676427526
1732,0.006322354434716023,0.7007686676427526
1733,0.006322354434716023,0.7008601756954612
1734,0.006327392167333326,0.7008601756954612
1735,0.006327392167333326,0.7009516837481699
1736,0.00633242989995063,0.7009516837481699
1737,0.00633242989995063,0.7010431918008785
1738,0.006342505365185237,0.7010431918008785
1739,0.006342505365185237,0.7013177159590044
1740,0.006347543097802541,0.7013177159590044
1741,0.006347543097802541,0.7016837481698389
1742,0.006352580830419845,0.7016837481698389
1743,0.006352580830419845,0.7018667642752562
1744,0.006367694028271756,0.7018667642752562
1745,0.006367694028271756,0.7019582723279648
1746,0.006372731760889059,0.7019582723279648
1747,0.006372731760889059,0.7025073206442167
1748,0.006377769493506363,0.7025073206442167
1749,0.006377769493506363,0.7025988286969254
1750,0.0063928826913582735,0.7025988286969254
1751,0.0063928826913582735,0.7027818448023426
1752,0.006397920423975577,0.7027818448023426
1753,0.006397920423975577,0.7031478770131772
1754,0.006407995889210184,0.7031478770131772
1755,0.006407995889210184,0.7032393850658858
1756,0.006418071354444791,0.7032393850658858
1757,0.006418071354444791,0.7034224011713031
1758,0.006423109087062095,0.7034224011713031
1759,0.006423109087062095,0.7035139092240117
1760,0.006433184552296702,0.7035139092240117
1761,0.006433184552296702,0.703696925329429
1762,0.00644326001753131,0.703696925329429
1763,0.00644326001753131,0.7040629575402635
1764,0.006448297750148613,0.7040629575402635
1765,0.006448297750148613,0.7041544655929722
1766,0.006453335482765917,0.7041544655929722
1767,0.006453335482765917,0.7042459736456809
1768,0.006458373215383221,0.7042459736456809
1769,0.006458373215383221,0.7043374816983895
1770,0.006463410948000524,0.7043374816983895
1771,0.006463410948000524,0.7047950219619327
1772,0.0064785241458524346,0.7047950219619327
1773,0.0064785241458524346,0.7048865300146413
1774,0.0064835618784697385,0.7048865300146413
1775,0.0064835618784697385,0.7051610541727672
1776,0.006493637343704345,0.7051610541727672
1777,0.006493637343704345,0.7052525622254758
1778,0.006498675076321649,0.7052525622254758
1779,0.006498675076321649,0.7053440702781845
1780,0.00651378827417356,0.7053440702781845
1781,0.00651378827417356,0.7056185944363104
1782,0.006518826006790863,0.7056185944363104
1783,0.006518826006790863,0.705710102489019
1784,0.006523863739408167,0.705710102489019
1785,0.006523863739408167,0.7058931185944363
1786,0.006528901472025471,0.7058931185944363
1787,0.006528901472025471,0.7059846266471449
1788,0.006533939204642774,0.7059846266471449
1789,0.006533939204642774,0.7060761346998536
1790,0.006538976937260078,0.7060761346998536
1791,0.006538976937260078,0.7063506588579795
1792,0.006549052402494685,0.7063506588579795
1793,0.006549052402494685,0.7066251830161054
1794,0.006559127867729293,0.7066251830161054
1795,0.006559127867729293,0.7068081991215227
1796,0.0065692033329638995,0.7068081991215227
1797,0.0065692033329638995,0.7070827232796486
1798,0.006574241065581203,0.7070827232796486
1799,0.006574241065581203,0.7073572474377745
1800,0.00658431653081581,0.7073572474377745
1801,0.00658431653081581,0.7075402635431918
1802,0.006594391996050417,0.7075402635431918
1803,0.006594391996050417,0.7076317715959004
1804,0.006599429728667721,0.7076317715959004
1805,0.006599429728667721,0.7078147877013177
1806,0.006604467461285025,0.7078147877013177
1807,0.006604467461285025,0.7079978038067349
1808,0.006614542926519632,0.7079978038067349
1809,0.006614542926519632,0.7080893118594437
1810,0.006619580659136936,0.7080893118594437
1811,0.006619580659136936,0.7081808199121523
1812,0.006624618391754239,0.7081808199121523
1813,0.006624618391754239,0.708272327964861
1814,0.006634693856988847,0.708272327964861
1815,0.006634693856988847,0.7083638360175696
1816,0.006649807054840758,0.7083638360175696
1817,0.006649807054840758,0.7086383601756955
1818,0.006654844787458061,0.7086383601756955
1819,0.006654844787458061,0.7088213762811127
1820,0.006664920252692668,0.7088213762811127
1821,0.006664920252692668,0.7091874084919473
1822,0.006690108915779186,0.7091874084919473
1823,0.006690108915779186,0.7092789165446559
1824,0.006705222113631097,0.7092789165446559
1825,0.006705222113631097,0.7093704245973645
1826,0.006715297578865704,0.7093704245973645
1827,0.006715297578865704,0.7094619326500732
1828,0.006745523974569526,0.7094619326500732
1829,0.006745523974569526,0.7095534407027818
1830,0.0067505617071868295,0.7095534407027818
1831,0.0067505617071868295,0.7099194729136163
1832,0.006755599439804133,0.7099194729136163
1833,0.006755599439804133,0.7100109809663251
1834,0.00676567490503874,0.7100109809663251
1835,0.00676567490503874,0.7101939970717424
1836,0.006770712637656044,0.7101939970717424
1837,0.006770712637656044,0.7103770131771596
1838,0.006785825835507954,0.7103770131771596
1839,0.006785825835507954,0.7104685212298683
1840,0.006790863568125258,0.7104685212298683
1841,0.006790863568125258,0.7105600292825769
1842,0.006795901300742562,0.7105600292825769
1843,0.006795901300742562,0.7106515373352855
1844,0.006805976765977169,0.7106515373352855
1845,0.006805976765977169,0.7107430453879942
1846,0.006811014498594473,0.7107430453879942
1847,0.006811014498594473,0.7108345534407028
1848,0.00682108996382908,0.7108345534407028
1849,0.00682108996382908,0.7109260614934114
1850,0.006851316359532901,0.7109260614934114
1851,0.006851316359532901,0.71101756954612
1852,0.006856354092150205,0.71101756954612
1853,0.006856354092150205,0.7111090775988287
1854,0.006866429557384812,0.7111090775988287
1855,0.006866429557384812,0.711292093704246
1856,0.006876505022619419,0.711292093704246
1857,0.006876505022619419,0.7113836017569546
1858,0.00689161822047133,0.7113836017569546
1859,0.00689161822047133,0.7114751098096632
1860,0.006896655953088634,0.7114751098096632
1861,0.006896655953088634,0.7115666178623719
1862,0.006916806883557849,0.7115666178623719
1863,0.006916806883557849,0.7116581259150805
1864,0.006921844616175152,0.7116581259150805
1865,0.006921844616175152,0.7117496339677891
1866,0.00694703327926167,0.7117496339677891
1867,0.00694703327926167,0.7118411420204978
1868,0.006952071011878973,0.7118411420204978
1869,0.006952071011878973,0.7119326500732065
1870,0.006967184209730884,0.7119326500732065
1871,0.006967184209730884,0.7120241581259151
1872,0.006982297407582795,0.7120241581259151
1873,0.006982297407582795,0.7121156661786238
1874,0.007012523803286617,0.7121156661786238
1875,0.007012523803286617,0.7122071742313324
1876,0.0070175615359039205,0.7122071742313324
1877,0.0070175615359039205,0.712298682284041
1878,0.007022599268521224,0.712298682284041
1879,0.007022599268521224,0.7124816983894583
1880,0.007027637001138527,0.7124816983894583
1881,0.007027637001138527,0.7125732064421669
1882,0.007037712466373135,0.7125732064421669
1883,0.007037712466373135,0.7126647144948756
1884,0.007042750198990438,0.7126647144948756
1885,0.007042750198990438,0.7128477306002928
1886,0.007047787931607742,0.7128477306002928
1887,0.007047787931607742,0.7129392386530015
1888,0.007057863396842349,0.7129392386530015
1889,0.007057863396842349,0.7130307467057101
1890,0.00707297659469426,0.7130307467057101
1891,0.00707297659469426,0.7131222547584187
1892,0.007083052059928867,0.7131222547584187
1893,0.007083052059928867,0.7132137628111274
1894,0.007093127525163475,0.7132137628111274
1895,0.007093127525163475,0.713305270863836
1896,0.0071032029903980816,0.713305270863836
1897,0.0071032029903980816,0.7133967789165446
1898,0.0071082407230153855,0.7133967789165446
1899,0.0071082407230153855,0.7134882869692533
1900,0.007118316188249992,0.7134882869692533
1901,0.007118316188249992,0.7135797950219619
1902,0.00714350485133651,0.7135797950219619
1903,0.00714350485133651,0.7139458272327965
1904,0.007153580316571118,0.7139458272327965
1905,0.007153580316571118,0.7141288433382138
1906,0.007158618049188421,0.7141288433382138
1907,0.007158618049188421,0.7142203513909224
1908,0.007163655781805725,0.7142203513909224
1909,0.007163655781805725,0.7144033674963397
1910,0.00719891991012685,0.7144033674963397
1911,0.00719891991012685,0.7144948755490483
1912,0.0072039576427441535,0.7144948755490483
1913,0.0072039576427441535,0.714586383601757
1914,0.007208995375361457,0.714586383601757
1915,0.007208995375361457,0.7146778916544656
1916,0.007224108573213368,0.7146778916544656
1917,0.007224108573213368,0.7147693997071742
1918,0.007239221771065279,0.7147693997071742
1919,0.007239221771065279,0.7148609077598829
1920,0.007244259503682583,0.7148609077598829
1921,0.007244259503682583,0.7149524158125915
1922,0.007249297236299886,0.7149524158125915
1923,0.007249297236299886,0.7150439238653001
1924,0.007259372701534494,0.7150439238653001
1925,0.007259372701534494,0.7151354319180088
1926,0.007269448166769101,0.7151354319180088
1927,0.007269448166769101,0.7152269399707174
1928,0.007279523632003708,0.7152269399707174
1929,0.007279523632003708,0.715318448023426
1930,0.007299674562472922,0.715318448023426
1931,0.007299674562472922,0.7154099560761347
1932,0.007304712295090226,0.7154099560761347
1933,0.007304712295090226,0.7155014641288433
1934,0.007309750027707529,0.7155014641288433
1935,0.007309750027707529,0.7156844802342606
1936,0.007329900958176744,0.7156844802342606
1937,0.007329900958176744,0.7158674963396779
1938,0.007339976423411351,0.7158674963396779
1939,0.007339976423411351,0.7162335285505125
1940,0.007350051888645958,0.7162335285505125
1941,0.007350051888645958,0.7163250366032211
1942,0.007355089621263262,0.7163250366032211
1943,0.007355089621263262,0.7164165446559297
1944,0.007360127353880566,0.7164165446559297
1945,0.007360127353880566,0.7166910688140556
1946,0.007365165086497869,0.7166910688140556
1947,0.007365165086497869,0.7167825768667643
1948,0.007370202819115173,0.7167825768667643
1949,0.007370202819115173,0.7168740849194729
1950,0.0073752405517324765,0.7168740849194729
1951,0.0073752405517324765,0.7172401171303074
1952,0.007400429214818994,0.7172401171303074
1953,0.007400429214818994,0.7173316251830161
1954,0.007405466947436298,0.7173316251830161
1955,0.007405466947436298,0.7175146412884333
1956,0.007410504680053601,0.7175146412884333
1957,0.007410504680053601,0.717606149341142
1958,0.007415542412670905,0.717606149341142
1959,0.007415542412670905,0.7177891654465594
1960,0.007425617877905512,0.7177891654465594
1961,0.007425617877905512,0.7179721815519766
1962,0.007440731075757423,0.7179721815519766
1963,0.007440731075757423,0.7180636896046853
1964,0.007455844273609334,0.7180636896046853
1965,0.007455844273609334,0.7182467057101025
1966,0.0074608820062266375,0.7182467057101025
1967,0.0074608820062266375,0.718612737920937
1968,0.007475995204078548,0.718612737920937
1969,0.007475995204078548,0.7187042459736457
1970,0.007481032936695852,0.7187042459736457
1971,0.007481032936695852,0.718887262079063
1972,0.007486070669313155,0.718887262079063
1973,0.007486070669313155,0.7194363103953147
1974,0.007496146134547763,0.7194363103953147
1975,0.007496146134547763,0.719619326500732
1976,0.007501183867165066,0.719619326500732
1977,0.007501183867165066,0.7198023426061494
1978,0.007516297065016977,0.7198023426061494
1979,0.007516297065016977,0.719893850658858
1980,0.007521334797634281,0.719893850658858
1981,0.007521334797634281,0.7199853587115667
1982,0.007526372530251585,0.7199853587115667
1983,0.007526372530251585,0.7208089311859444
1984,0.007541485728103496,0.7208089311859444
1985,0.007541485728103496,0.7209919472913616
1986,0.007546523460720799,0.7209919472913616
1987,0.007546523460720799,0.7210834553440703
1988,0.0075515611933381025,0.7210834553440703
1989,0.0075515611933381025,0.7211749633967789
1990,0.007556598925955406,0.7211749633967789
1991,0.007556598925955406,0.7212664714494875
1992,0.007566674391190013,0.7212664714494875
1993,0.007566674391190013,0.7214494875549048
1994,0.007571712123807317,0.7214494875549048
1995,0.007571712123807317,0.7216325036603221
1996,0.007591863054276531,0.7216325036603221
1997,0.007591863054276531,0.7217240117130308
1998,0.007596900786893835,0.7217240117130308
1999,0.007596900786893835,0.7220900439238653
2000,0.007612013984745746,0.7220900439238653
2001,0.007612013984745746,0.722181551976574
2002,0.007617051717363049,0.722181551976574
2003,0.007617051717363049,0.7222730600292826
2004,0.007627127182597657,0.7222730600292826
2005,0.007627127182597657,0.7224560761346999
2006,0.00763216491521496,0.7224560761346999
2007,0.00763216491521496,0.7226390922401171
2008,0.007677504508770692,0.7226390922401171
2009,0.007677504508770692,0.7227306002928258
2010,0.007682542241387996,0.7227306002928258
2011,0.007682542241387996,0.722913616398243
2012,0.007692617706622603,0.722913616398243
2013,0.007692617706622603,0.7230966325036603
2014,0.007697655439239907,0.7230966325036603
2015,0.007697655439239907,0.7232796486090776
2016,0.007712768637091818,0.7232796486090776
2017,0.007712768637091818,0.7235541727672035
2018,0.007717806369709122,0.7235541727672035
2019,0.007717806369709122,0.7236456808199122
2020,0.0077329195675610325,0.7236456808199122
2021,0.0077329195675610325,0.7238286969253295
2022,0.007742995032795639,0.7238286969253295
2023,0.007742995032795639,0.7240117130307467
2024,0.007748032765412943,0.7240117130307467
2025,0.007748032765412943,0.724194729136164
2026,0.007753070498030246,0.724194729136164
2027,0.007753070498030246,0.7243777452415813
2028,0.007763145963264854,0.7243777452415813
2029,0.007763145963264854,0.7244692532942899
2030,0.007783296893734068,0.7244692532942899
2031,0.007783296893734068,0.7247437774524158
2032,0.007788334626351372,0.7247437774524158
2033,0.007788334626351372,0.7250183016105417
2034,0.007793372358968676,0.7250183016105417
2035,0.007793372358968676,0.7251098096632503
2036,0.007803447824203283,0.7251098096632503
2037,0.007803447824203283,0.725201317715959
2038,0.007808485556820587,0.725201317715959
2039,0.007808485556820587,0.7252928257686676
2040,0.00781352328943789,0.7252928257686676
2041,0.00781352328943789,0.7254758418740849
2042,0.007853825150376319,0.7254758418740849
2043,0.007853825150376319,0.7255673499267935
2044,0.007858862882993622,0.7255673499267935
2045,0.007858862882993622,0.7258418740849195
2046,0.007863900615610925,0.7258418740849195
2047,0.007863900615610925,0.7261163982430454
2048,0.00786893834822823,0.7261163982430454
2049,0.00786893834822823,0.72648243045388
2050,0.007879013813462836,0.72648243045388
2051,0.007879013813462836,0.7265739385065886
2052,0.007894127011314747,0.7265739385065886
2053,0.007894127011314747,0.7266654465592972
2054,0.007899164743932052,0.7266654465592972
2055,0.007899164743932052,0.7267569546120058
2056,0.007919315674401265,0.7267569546120058
2057,0.007919315674401265,0.7268484626647145
2058,0.007929391139635873,0.7268484626647145
2059,0.007929391139635873,0.7270314787701317
2060,0.007934428872253176,0.7270314787701317
2061,0.007934428872253176,0.7273975109809663
2062,0.007944504337487784,0.7273975109809663
2063,0.007944504337487784,0.7274890190336749
2064,0.007949542070105087,0.7274890190336749
2065,0.007949542070105087,0.7275805270863837
2066,0.00795457980272239,0.7275805270863837
2067,0.00795457980272239,0.7278550512445096
2068,0.007959617535339695,0.7278550512445096
2069,0.007959617535339695,0.7279465592972182
2070,0.007984806198426212,0.7279465592972182
2071,0.007984806198426212,0.7280380673499268
2072,0.007989843931043517,0.7280380673499268
2073,0.007989843931043517,0.7281295754026355
2074,0.007999919396278123,0.7281295754026355
2075,0.007999919396278123,0.7282210834553441
2076,0.008020070326747338,0.7282210834553441
2077,0.008020070326747338,0.7283125915080527
2078,0.008030145791981944,0.7283125915080527
2079,0.008030145791981944,0.7284040995607614
2080,0.008040221257216552,0.7284040995607614
2081,0.008040221257216552,0.72849560761347
2082,0.008045258989833855,0.72849560761347
2083,0.008045258989833855,0.7285871156661786
2084,0.008055334455068463,0.7285871156661786
2085,0.008055334455068463,0.7287701317715959
2086,0.00806540992030307,0.7287701317715959
2087,0.00806540992030307,0.7289531478770132
2088,0.008110749513858803,0.7289531478770132
2089,0.008110749513858803,0.7290446559297218
2090,0.008115787246476106,0.7290446559297218
2091,0.008115787246476106,0.7291361639824304
2092,0.00812082497909341,0.7291361639824304
2093,0.00812082497909341,0.7294106881405563
2094,0.008140975909562625,0.7294106881405563
2095,0.008140975909562625,0.7295021961932651
2096,0.008146013642179928,0.7295021961932651
2097,0.008146013642179928,0.7295937042459737
2098,0.008166164572649142,0.7295937042459737
2099,0.008166164572649142,0.7296852122986823
2100,0.00817624003788375,0.7296852122986823
2101,0.00817624003788375,0.729776720351391
2102,0.008181277770501053,0.729776720351391
2103,0.008181277770501053,0.7298682284040996
2104,0.008186315503118357,0.7298682284040996
2105,0.008186315503118357,0.7299597364568082
2106,0.00819135323573566,0.7299597364568082
2107,0.00819135323573566,0.7300512445095169
2108,0.008211504166204874,0.7300512445095169
2109,0.008211504166204874,0.7301427525622255
2110,0.008251806027143304,0.7301427525622255
2111,0.008251806027143304,0.7302342606149341
2112,0.008271956957612518,0.7302342606149341
2113,0.008271956957612518,0.7303257686676428
2114,0.008287070155464428,0.7303257686676428
2115,0.008287070155464428,0.7306002928257687
2116,0.008297145620699036,0.7306002928257687
2117,0.008297145620699036,0.7307833089311859
2118,0.008312258818550947,0.7307833089311859
2119,0.008312258818550947,0.7308748169838946
2120,0.008327372016402858,0.7308748169838946
2121,0.008327372016402858,0.7309663250366032
2122,0.008342485214254769,0.7309663250366032
2123,0.008342485214254769,0.7314238653001464
2124,0.008352560679489375,0.7314238653001464
2125,0.008352560679489375,0.7316983894582724
2126,0.008377749342575893,0.7316983894582724
2127,0.008377749342575893,0.7318814055636896
2128,0.008392862540427804,0.7318814055636896
2129,0.008392862540427804,0.7319729136163983
2130,0.008402938005662412,0.7319729136163983
2131,0.008402938005662412,0.7320644216691069
2132,0.008423088936131626,0.7320644216691069
2133,0.008423088936131626,0.7321559297218155
2134,0.00844323986660084,0.7321559297218155
2135,0.00844323986660084,0.7325219619326501
2136,0.008448277599218144,0.7325219619326501
2137,0.008448277599218144,0.7326134699853587
2138,0.008453315331835447,0.7326134699853587
2139,0.008453315331835447,0.7327049780380673
2140,0.008463390797070055,0.7327049780380673
2141,0.008463390797070055,0.732796486090776
2142,0.008468428529687358,0.732796486090776
2143,0.008468428529687358,0.7329795021961932
2144,0.00849865492539118,0.7329795021961932
2145,0.00849865492539118,0.7330710102489019
2146,0.008508730390625788,0.7330710102489019
2147,0.008508730390625788,0.7332540263543191
2148,0.00851376812324309,0.7332540263543191
2149,0.00851376812324309,0.733803074670571
2150,0.008523843588477699,0.733803074670571
2151,0.008523843588477699,0.7339860907759883
2152,0.008528881321095002,0.7339860907759883
2153,0.008528881321095002,0.7340775988286969
2154,0.008569183182033431,0.7340775988286969
2155,0.008569183182033431,0.7341691068814056
2156,0.008579258647268037,0.7341691068814056
2157,0.008579258647268037,0.7342606149341142
2158,0.008599409577737253,0.7342606149341142
2159,0.008599409577737253,0.7344436310395315
2160,0.008609485042971859,0.7344436310395315
2161,0.008609485042971859,0.7346266471449487
2162,0.008614522775589164,0.7346266471449487
2163,0.008614522775589164,0.734809663250366
2164,0.008629635973441074,0.734809663250366
2165,0.008629635973441074,0.7350841874084919
2166,0.008654824636527591,0.7350841874084919
2167,0.008654824636527591,0.7351756954612005
2168,0.008659862369144896,0.7351756954612005
2169,0.008659862369144896,0.7352672035139092
2170,0.008669937834379502,0.7352672035139092
2171,0.008669937834379502,0.7353587115666179
2172,0.00868001329961411,0.7353587115666179
2173,0.00868001329961411,0.7354502196193266
2174,0.00869512649746602,0.7354502196193266
2175,0.00869512649746602,0.736090775988287
2176,0.008700164230083324,0.736090775988287
2177,0.008700164230083324,0.7361822840409956
2178,0.008705201962700629,0.7361822840409956
2179,0.008705201962700629,0.7364568081991215
2180,0.008710239695317932,0.7364568081991215
2181,0.008710239695317932,0.7365483162518301
2182,0.00872031516055254,0.7365483162518301
2183,0.00872031516055254,0.7366398243045388
2184,0.008730390625787145,0.7366398243045388
2185,0.008730390625787145,0.736822840409956
2186,0.008745503823639056,0.736822840409956
2187,0.008745503823639056,0.7369143484626647
2188,0.008755579288873664,0.7369143484626647
2189,0.008755579288873664,0.737097364568082
2190,0.008760617021490967,0.737097364568082
2191,0.008760617021490967,0.7374633967789166
2192,0.008770692486725575,0.7374633967789166
2193,0.008770692486725575,0.7375549048316252
2194,0.008785805684577486,0.7375549048316252
2195,0.008785805684577486,0.7376464128843339
2196,0.0088059566150467,0.7376464128843339
2197,0.0088059566150467,0.7377379209370425
2198,0.008810994347664003,0.7377379209370425
2199,0.008810994347664003,0.7380124450951684
2200,0.008816032080281307,0.7380124450951684
2201,0.008816032080281307,0.738103953147877
2202,0.00882106981289861,0.738103953147877
2203,0.00882106981289861,0.7381954612005857
2204,0.008836183010750521,0.7381954612005857
2205,0.008836183010750521,0.7384699853587116
2206,0.008841220743367824,0.7384699853587116
2207,0.008841220743367824,0.7385614934114202
2208,0.008846258475985129,0.7385614934114202
2209,0.008846258475985129,0.7387445095168375
2210,0.008886560336923557,0.7387445095168375
2211,0.008886560336923557,0.7388360175695461
2212,0.008896635802158165,0.7388360175695461
2213,0.008896635802158165,0.7394765739385066
2214,0.008906711267392772,0.7394765739385066
2215,0.008906711267392772,0.7395680819912153
2216,0.008916786732627378,0.7395680819912153
2217,0.008916786732627378,0.7397510980966325
2218,0.008936937663096594,0.7397510980966325
2219,0.008936937663096594,0.7398426061493412
2220,0.008941975395713897,0.7398426061493412
2221,0.008941975395713897,0.7400256222547584
2222,0.008967164058800416,0.7400256222547584
2223,0.008967164058800416,0.7401171303074671
2224,0.00898731498926963,0.7401171303074671
2225,0.00898731498926963,0.740391654465593
2226,0.009017541384973451,0.740391654465593
2227,0.009017541384973451,0.7404831625183016
2228,0.009027616850208059,0.7404831625183016
2229,0.009027616850208059,0.7405746705710102
2230,0.00904273004805997,0.7405746705710102
2231,0.00904273004805997,0.7406661786237189
2232,0.00905784324591188,0.7406661786237189
2233,0.00905784324591188,0.7408491947291361
2234,0.009083031908998397,0.7408491947291361
2235,0.009083031908998397,0.7409407027818448
2236,0.009088069641615702,0.7409407027818448
2237,0.009088069641615702,0.741123718887262
2238,0.009093107374233005,0.741123718887262
2239,0.009093107374233005,0.7415812591508053
2240,0.009098145106850308,0.7415812591508053
2241,0.009098145106850308,0.7420387994143485
2242,0.009103182839467613,0.7420387994143485
2243,0.009103182839467613,0.7421303074670571
2244,0.00911325830470222,0.7421303074670571
2245,0.00911325830470222,0.7425878477306003
2246,0.009123333769936827,0.7425878477306003
2247,0.009123333769936827,0.7427708638360175
2248,0.00912837150255413,0.7427708638360175
2249,0.00912837150255413,0.7428623718887262
2250,0.009208975224430989,0.7428623718887262
2251,0.009208975224430989,0.7429538799414348
2252,0.009234163887517506,0.7429538799414348
2253,0.009234163887517506,0.7435029282576867
2254,0.009244239352752114,0.7435029282576867
2255,0.009244239352752114,0.743685944363104
2256,0.009284541213690543,0.743685944363104
2257,0.009284541213690543,0.7438689604685212
2258,0.009289578946307846,0.7438689604685212
2259,0.009289578946307846,0.7440519765739385
2260,0.00930972987677706,0.7440519765739385
2261,0.00930972987677706,0.7442349926793558
2262,0.009319805342011668,0.7442349926793558
2263,0.009319805342011668,0.744418008784773
2264,0.009329880807246274,0.744418008784773
2265,0.009329880807246274,0.7445095168374817
2266,0.00935003173771549,0.7445095168374817
2267,0.00935003173771549,0.7446010248901903
2268,0.009390333598653917,0.7446010248901903
2269,0.009390333598653917,0.7446925329428989
2270,0.009395371331271222,0.7446925329428989
2271,0.009395371331271222,0.7449670571010248
2272,0.009420559994357739,0.7449670571010248
2273,0.009420559994357739,0.7450585651537335
2274,0.009430635459592347,0.7450585651537335
2275,0.009430635459592347,0.7453330893118595
2276,0.00943567319220965,0.7453330893118595
2277,0.00943567319220965,0.7454245973645681
2278,0.009440710924826954,0.7454245973645681
2279,0.009440710924826954,0.7455161054172768
2280,0.009445748657444257,0.7455161054172768
2281,0.009445748657444257,0.7456076134699854
2282,0.009455824122678865,0.7456076134699854
2283,0.009455824122678865,0.7458821376281113
2284,0.009465899587913471,0.7458821376281113
2285,0.009465899587913471,0.7459736456808199
2286,0.009486050518382687,0.7459736456808199
2287,0.009486050518382687,0.7464311859443631
2288,0.009501163716234598,0.7464311859443631
2289,0.009501163716234598,0.7465226939970717
2290,0.009511239181469204,0.7465226939970717
2291,0.009511239181469204,0.7466142020497804
2292,0.009526352379321115,0.7466142020497804
2293,0.009526352379321115,0.7467972181551976
2294,0.009536427844555722,0.7467972181551976
2295,0.009536427844555722,0.7470717423133236
2296,0.009551541042407633,0.7470717423133236
2297,0.009551541042407633,0.7471632503660323
2298,0.009566654240259544,0.7471632503660323
2299,0.009566654240259544,0.7472547584187409
2300,0.009571691972876847,0.7472547584187409
2301,0.009571691972876847,0.7474377745241582
2302,0.009576729705494152,0.7474377745241582
2303,0.009576729705494152,0.7478038067349927
2304,0.009586805170728758,0.7478038067349927
2305,0.009586805170728758,0.7478953147877013
2306,0.009591842903346063,0.7478953147877013
2307,0.009591842903346063,0.74798682284041
2308,0.009611993833815276,0.74798682284041
2309,0.009611993833815276,0.7480783308931186
2310,0.00961703156643258,0.7480783308931186
2311,0.00961703156643258,0.7482613469985359
2312,0.009622069299049884,0.7482613469985359
2313,0.009622069299049884,0.7485358711566618
2314,0.009627107031667187,0.7485358711566618
2315,0.009627107031667187,0.7486273792093704
2316,0.009637182496901795,0.7486273792093704
2317,0.009637182496901795,0.748718887262079
2318,0.009652295694753706,0.748718887262079
2319,0.009652295694753706,0.7488103953147877
2320,0.009657333427371009,0.7488103953147877
2321,0.009657333427371009,0.7490849194729137
2322,0.00967244662522292,0.7490849194729137
2323,0.00967244662522292,0.7493594436310396
2324,0.009682522090457528,0.7493594436310396
2325,0.009682522090457528,0.7494509516837482
2326,0.00968755982307483,0.7494509516837482
2327,0.00968755982307483,0.7496339677891655
2328,0.009692597555692134,0.7496339677891655
2329,0.009692597555692134,0.75
2330,0.009697635288309438,0.75
2331,0.009697635288309438,0.7501830161054173
2332,0.009702673020926741,0.7501830161054173
2333,0.009702673020926741,0.7502745241581259
2334,0.00972786168401326,0.7502745241581259
2335,0.00972786168401326,0.7503660322108345
2336,0.009737937149247866,0.7503660322108345
2337,0.009737937149247866,0.7504575402635432
2338,0.009748012614482474,0.7504575402635432
2339,0.009748012614482474,0.7506405563689604
2340,0.009758088079717082,0.7506405563689604
2341,0.009758088079717082,0.7507320644216691
2342,0.009773201277568993,0.7507320644216691
2343,0.009773201277568993,0.7508235724743777
2344,0.009788314475420903,0.7508235724743777
2345,0.009788314475420903,0.7509150805270863
2346,0.00979838994065551,0.7509150805270863
2347,0.00979838994065551,0.7510065885797951
2348,0.009808465405890117,0.7510065885797951
2349,0.009808465405890117,0.7510980966325037
2350,0.009818540871124725,0.7510980966325037
2351,0.009818540871124725,0.7513726207906296
2352,0.009823578603742028,0.7513726207906296
2353,0.009823578603742028,0.7515556368960469
2354,0.009848767266828545,0.7515556368960469
2355,0.009848767266828545,0.7517386530014641
2356,0.00985380499944585,0.7517386530014641
2357,0.00985380499944585,0.7519216691068814
2358,0.009878993662532367,0.7519216691068814
2359,0.009878993662532367,0.75201317715959
2360,0.009894106860384277,0.75201317715959
2361,0.009894106860384277,0.7522877013177159
2362,0.009899144593001582,0.7522877013177159
2363,0.009899144593001582,0.7523792093704246
2364,0.009909220058236188,0.7523792093704246
2365,0.009909220058236188,0.7524707174231332
2366,0.009924333256088099,0.7524707174231332
2367,0.009924333256088099,0.7525622254758418
2368,0.00993944645394001,0.7525622254758418
2369,0.00993944645394001,0.7527452415812591
2370,0.009949521919174618,0.7527452415812591
2371,0.009949521919174618,0.7528367496339677
2372,0.009969672849643832,0.7528367496339677
2373,0.009969672849643832,0.7529282576866764
2374,0.00997974831487844,0.7529282576866764
2375,0.00997974831487844,0.7530197657393851
2376,0.009984786047495742,0.7530197657393851
2377,0.009984786047495742,0.7531112737920937
2378,0.010009974710582261,0.7531112737920937
2379,0.010009974710582261,0.7532027818448024
2380,0.010030125641051475,0.7532027818448024
2381,0.010030125641051475,0.753294289897511
2382,0.010040201106286083,0.753294289897511
2383,0.010040201106286083,0.7533857979502196
2384,0.010065389769372601,0.7533857979502196
2385,0.010065389769372601,0.7535688140556369
2386,0.010070427501989904,0.7535688140556369
2387,0.010070427501989904,0.7536603221083455
2388,0.010105691630311029,0.7536603221083455
2389,0.010105691630311029,0.7538433382137628
2390,0.010156068956484066,0.7538433382137628
2391,0.010156068956484066,0.7540263543191801
2392,0.01016110668910137,0.7540263543191801
2393,0.01016110668910137,0.7542093704245973
2394,0.010166144421718672,0.7542093704245973
2395,0.010166144421718672,0.754300878477306
2396,0.01017621988695328,0.754300878477306
2397,0.01017621988695328,0.7545754026354319
2398,0.010186295352187888,0.7545754026354319
2399,0.010186295352187888,0.7546669106881405
2400,0.010196370817422494,0.7546669106881405
2401,0.010196370817422494,0.7547584187408491
2402,0.01021652174789171,0.7547584187408491
2403,0.01021652174789171,0.7548499267935578
2404,0.010221559480509013,0.7548499267935578
2405,0.010221559480509013,0.7549414348462665
2406,0.01023163494574362,0.7549414348462665
2407,0.01023163494574362,0.7550329428989752
2408,0.010236672678360923,0.7550329428989752
2409,0.010236672678360923,0.7553074670571011
2410,0.010251785876212834,0.7553074670571011
2411,0.010251785876212834,0.7553989751098097
2412,0.010256823608830137,0.7553989751098097
2413,0.010256823608830137,0.7554904831625183
2414,0.010266899074064745,0.7554904831625183
2415,0.010266899074064745,0.755581991215227
2416,0.01030216320238587,0.755581991215227
2417,0.01030216320238587,0.7557650073206442
2418,0.010307200935003175,0.7557650073206442
2419,0.010307200935003175,0.7558565153733529
2420,0.01031727640023778,0.7558565153733529
2421,0.01031727640023778,0.7559480234260615
2422,0.010352540528558907,0.7559480234260615
2423,0.010352540528558907,0.7560395314787701
2424,0.010362615993793513,0.7560395314787701
2425,0.010362615993793513,0.7562225475841874
2426,0.010367653726410816,0.7562225475841874
2427,0.010367653726410816,0.7564970717423133
2428,0.010387804656880032,0.7564970717423133
2429,0.010387804656880032,0.7565885797950219
2430,0.010412993319966549,0.7565885797950219
2431,0.010412993319966549,0.7566800878477306
2432,0.010423068785201156,0.7566800878477306
2433,0.010423068785201156,0.7567715959004392
2434,0.01044321971567037,0.7567715959004392
2435,0.01044321971567037,0.7568631039531479
2436,0.010468408378756889,0.7568631039531479
2437,0.010468408378756889,0.7569546120058566
2438,0.010473446111374192,0.7569546120058566
2439,0.010473446111374192,0.7570461200585652
2440,0.01052382343754723,0.7570461200585652
2441,0.01052382343754723,0.7574121522693997
2442,0.010549012100633746,0.7574121522693997
2443,0.010549012100633746,0.757595168374817
2444,0.01055404983325105,0.757595168374817
2445,0.01055404983325105,0.7576866764275256
2446,0.010564125298485657,0.7576866764275256
2447,0.010564125298485657,0.7578696925329429
2448,0.010574200763720265,0.7578696925329429
2449,0.010574200763720265,0.7580527086383602
2450,0.010584276228954873,0.7580527086383602
2451,0.010584276228954873,0.7581442166910688
2452,0.010604427159424086,0.7581442166910688
2453,0.010604427159424086,0.7582357247437774
2454,0.010619540357275997,0.7582357247437774
2455,0.010619540357275997,0.7583272327964861
2456,0.010649766752979819,0.7583272327964861
2457,0.010649766752979819,0.758601756954612
2458,0.01066487995083173,0.758601756954612
2459,0.01066487995083173,0.7586932650073206
2460,0.01072029500962207,0.7586932650073206
2461,0.01072029500962207,0.7590592972181552
2462,0.010725332742239373,0.7590592972181552
2463,0.010725332742239373,0.7591508052708639
2464,0.01073540820747398,0.7591508052708639
2465,0.01073540820747398,0.7593338213762811
2466,0.010745483672708587,0.7593338213762811
2467,0.010745483672708587,0.7594253294289898
2468,0.010750521405325892,0.7594253294289898
2469,0.010750521405325892,0.7595168374816984
2470,0.010770672335795105,0.7595168374816984
2471,0.010770672335795105,0.7597913616398243
2472,0.010795860998881624,0.7597913616398243
2473,0.010795860998881624,0.7598828696925329
2474,0.010810974196733535,0.7598828696925329
2475,0.010810974196733535,0.7599743777452416
2476,0.010816011929350838,0.7599743777452416
2477,0.010816011929350838,0.7600658857979502
2478,0.010831125127202749,0.7600658857979502
2479,0.010831125127202749,0.7603404099560761
2480,0.010841200592437357,0.7603404099560761
2481,0.010841200592437357,0.7607064421669106
2482,0.01084623832505466,0.7607064421669106
2483,0.01084623832505466,0.7607979502196194
2484,0.010866389255523873,0.7607979502196194
2485,0.010866389255523873,0.760889458272328
2486,0.010871426988141178,0.760889458272328
2487,0.010871426988141178,0.7609809663250366
2488,0.010881502453375784,0.7609809663250366
2489,0.010881502453375784,0.7614385065885798
2490,0.010886540185993089,0.7614385065885798
2491,0.010886540185993089,0.7616215226939971
2492,0.010891577918610392,0.7616215226939971
2493,0.010891577918610392,0.7617130307467057
2494,0.010896615651227695,0.7617130307467057
2495,0.010896615651227695,0.761896046852123
2496,0.010901653383844998,0.761896046852123
2497,0.010901653383844998,0.7619875549048316
2498,0.010911728849079606,0.7619875549048316
2499,0.010911728849079606,0.7620790629575402
2500,0.010921804314314214,0.7620790629575402
2501,0.010921804314314214,0.7621705710102489
2502,0.010941955244783428,0.7621705710102489
2503,0.010941955244783428,0.7622620790629575
2504,0.01094699297740073,0.7622620790629575
2505,0.01094699297740073,0.7623535871156661
2506,0.010952030710018035,0.7623535871156661
2507,0.010952030710018035,0.7624450951683748
2508,0.010957068442635338,0.7624450951683748
2509,0.010957068442635338,0.7625366032210834
2510,0.010962106175252641,0.7625366032210834
2511,0.010962106175252641,0.762628111273792
2512,0.010967143907869946,0.762628111273792
2513,0.010967143907869946,0.7627196193265008
2514,0.010982257105721857,0.7627196193265008
2515,0.010982257105721857,0.7628111273792094
2516,0.011002408036191071,0.7628111273792094
2517,0.011002408036191071,0.762902635431918
2518,0.011007445768808374,0.762902635431918
2519,0.011007445768808374,0.7629941434846267
2520,0.01102759669927759,0.7629941434846267
2521,0.01102759669927759,0.7630856515373353
2522,0.011052785362364106,0.7630856515373353
2523,0.011052785362364106,0.7633601756954612
2524,0.011062860827598714,0.7633601756954612
2525,0.011062860827598714,0.7634516837481699
2526,0.011067898560216017,0.7634516837481699
2527,0.011067898560216017,0.7636346998535871
2528,0.011072936292833322,0.7636346998535871
2529,0.011072936292833322,0.7637262079062958
2530,0.011103162688537144,0.7637262079062958
2531,0.011103162688537144,0.763909224011713
2532,0.01112835135162366,0.763909224011713
2533,0.01112835135162366,0.7640007320644217
2534,0.011143464549475571,0.7640007320644217
2535,0.011143464549475571,0.7640922401171303
2536,0.011158577747327482,0.7640922401171303
2537,0.011158577747327482,0.7641837481698389
2538,0.011178728677796698,0.7641837481698389
2539,0.011178728677796698,0.7643667642752562
2540,0.011183766410414001,0.7643667642752562
2541,0.011183766410414001,0.7644582723279648
2542,0.011203917340883215,0.7644582723279648
2543,0.011203917340883215,0.7645497803806734
2544,0.011244219201821644,0.7645497803806734
2545,0.011244219201821644,0.7647327964860908
2546,0.011259332399673555,0.7647327964860908
2547,0.011259332399673555,0.7648243045387995
2548,0.011269407864908163,0.7648243045387995
2549,0.011269407864908163,0.7653733528550513
2550,0.011299634260611984,0.7653733528550513
2551,0.011299634260611984,0.7654648609077599
2552,0.011329860656315806,0.7654648609077599
2553,0.011329860656315806,0.7655563689604685
2554,0.01133489838893311,0.7655563689604685
2555,0.01133489838893311,0.7657393850658858
2556,0.01139031344772345,0.7657393850658858
2557,0.01139031344772345,0.7658308931185944
2558,0.01140542664557536,0.7658308931185944
2559,0.01140542664557536,0.7659224011713031
2560,0.011440690773896485,0.7659224011713031
2561,0.011440690773896485,0.766196925329429
2562,0.011450766239131091,0.766196925329429
2563,0.011455803971748396,0.7662884333821376
2564,0.011460841704365699,0.7662884333821376
2565,0.011460841704365699,0.7663799414348462
2566,0.011470917169600307,0.7663799414348462
2567,0.011470917169600307,0.7664714494875549
2568,0.011480992634834913,0.7664714494875549
2569,0.011480992634834913,0.7665629575402635
2570,0.01154648315885986,0.7665629575402635
2571,0.01154648315885986,0.7666544655929722
2572,0.011556558624094467,0.7666544655929722
2573,0.011556558624094467,0.7667459736456809
2574,0.011566634089329075,0.7667459736456809
2575,0.011566634089329075,0.7668374816983895
2576,0.011571671821946378,0.7668374816983895
2577,0.011571671821946378,0.7670204978038068
2578,0.011576709554563682,0.7670204978038068
2579,0.011576709554563682,0.767203513909224
2580,0.011586785019798288,0.767203513909224
2581,0.011586785019798288,0.7672950219619327
2582,0.011627086880736718,0.7672950219619327
2583,0.011627086880736718,0.7673865300146413
2584,0.011647237811205932,0.7673865300146413
2585,0.011647237811205932,0.7676610541727672
2586,0.011652275543823237,0.7676610541727672
2587,0.011652275543823237,0.7677525622254758
2588,0.011662351009057843,0.7677525622254758
2589,0.011662351009057843,0.7678440702781845
2590,0.011677464206909753,0.7678440702781845
2591,0.011677464206909753,0.7679355783308931
2592,0.011687539672144361,0.7679355783308931
2593,0.011687539672144361,0.7680270863836017
2594,0.011692577404761664,0.7680270863836017
2595,0.011692577404761664,0.7681185944363104
2596,0.01172784153308279,0.7681185944363104
2597,0.01172784153308279,0.768210102489019
2598,0.011768143394021218,0.768210102489019
2599,0.011768143394021218,0.7683931185944363
2600,0.011778218859255826,0.7683931185944363
2601,0.011778218859255826,0.7685761346998536
2602,0.011788294324490434,0.7685761346998536
2603,0.011788294324490434,0.7686676427525623
2604,0.01179836978972504,0.7686676427525623
2605,0.01179836978972504,0.7688506588579795
2606,0.011803407522342345,0.7688506588579795
2607,0.011803407522342345,0.7689421669106882
2608,0.011813482987576951,0.7689421669106882
2609,0.011813482987576951,0.7690336749633968
2610,0.011823558452811559,0.7690336749633968
2611,0.011823558452811559,0.7691251830161054
2612,0.011828596185428862,0.7691251830161054
2613,0.011828596185428862,0.7692166910688141
2614,0.011833633918046167,0.7692166910688141
2615,0.011833633918046167,0.7695827232796486
2616,0.01183867165066347,0.7695827232796486
2617,0.01183867165066347,0.7697657393850659
2618,0.011843709383280773,0.7697657393850659
2619,0.011843709383280773,0.7698572474377745
2620,0.011848747115898077,0.7698572474377745
2621,0.011848747115898077,0.7699487554904831
2622,0.011858822581132683,0.7699487554904831
2623,0.011858822581132683,0.7701317715959004
2624,0.011868898046367291,0.7701317715959004
2625,0.011868898046367291,0.770223279648609
2626,0.011873935778984594,0.770223279648609
2627,0.011873935778984594,0.7703147877013177
2628,0.011889048976836505,0.7703147877013177
2629,0.011889048976836505,0.7704062957540263
2630,0.011899124442071113,0.7704062957540263
2631,0.011899124442071113,0.7704978038067349
2632,0.011904162174688416,0.7704978038067349
2633,0.011904162174688416,0.7708638360175696
2634,0.011934388570392238,0.7708638360175696
2635,0.011934388570392238,0.7709553440702782
2636,0.011939426303009542,0.7709553440702782
2637,0.011939426303009542,0.7710468521229868
2638,0.011944464035626845,0.7710468521229868
2639,0.011944464035626845,0.7711383601756955
2640,0.011949501768244148,0.7711383601756955
2641,0.011949501768244148,0.7712298682284041
2642,0.011959577233478756,0.7712298682284041
2643,0.011959577233478756,0.7713213762811127
2644,0.011984765896565273,0.7713213762811127
2645,0.011984765896565273,0.7715959004392386
2646,0.011989803629182578,0.7715959004392386
2647,0.011989803629182578,0.7716874084919473
2648,0.012009954559651792,0.7716874084919473
2649,0.012009954559651792,0.7717789165446559
2650,0.012025067757503703,0.7717789165446559
2651,0.012025067757503703,0.7718704245973645
2652,0.01203514322273831,0.7718704245973645
2653,0.01203514322273831,0.7720534407027818
2654,0.012040180955355613,0.7720534407027818
2655,0.012040180955355613,0.7721449487554904
2656,0.012045218687972916,0.7721449487554904
2657,0.012045218687972916,0.7722364568081991
2658,0.012075445083676738,0.7722364568081991
2659,0.012075445083676738,0.7726024890190337
2660,0.012095596014145954,0.7726024890190337
2661,0.012095596014145954,0.7726939970717424
2662,0.01210567147938056,0.7726939970717424
2663,0.01210567147938056,0.772785505124451
2664,0.012115746944615167,0.772785505124451
2665,0.012115746944615167,0.7728770131771596
2666,0.012125822409849775,0.7728770131771596
2667,0.012125822409849775,0.7729685212298683
2668,0.012130860142467078,0.7729685212298683
2669,0.012130860142467078,0.7730600292825769
2670,0.012156048805553597,0.7730600292825769
2671,0.012156048805553597,0.7731515373352855
2672,0.012171162003405508,0.7731515373352855
2673,0.012171162003405508,0.7733345534407028
2674,0.012181237468640114,0.7733345534407028
2675,0.012181237468640114,0.7734260614934114
