,fpr,tpr
0,0.0,0.0
1,0.0,0.0003403675970047651
2,0.0,0.12049012933968686
3,0.0,0.1211708645336964
4,0.0,0.15214431586113003
5,1.7075919538267136e-05,0.15214431586113003
6,1.7075919538267136e-05,0.21068754254594962
7,3.415183907653427e-05,0.21068754254594962
8,3.415183907653427e-05,0.27399591558883596
9,5.1227758614801405e-05,0.27399591558883596
10,5.1227758614801405e-05,0.3270932607215793
11,6.830367815306854e-05,0.3270932607215793
12,6.830367815306854e-05,0.33934649421375085
13,8.537959769133568e-05,0.33934649421375085
14,8.537959769133568e-05,0.3410483321987747
15,0.00010245551722960281,0.3410483321987747
16,0.00010245551722960281,0.35398230088495575
17,0.00011953143676786995,0.35398230088495575
18,0.00011953143676786995,0.3648740639891082
19,0.0001366073563061371,0.3648740639891082
20,0.0001366073563061371,0.3876786929884275
21,0.00015368327584440423,0.3876786929884275
22,0.00015368327584440423,0.3907420013614704
23,0.00017075919538267137,0.3907420013614704
24,0.00017075919538267137,0.41252552756977534
25,0.00018783511492093848,0.41252552756977534
26,0.00018783511492093848,0.42852280462899933
27,0.00020491103445920562,0.42852280462899933
28,0.00020491103445920562,0.4472430224642614
29,0.00022198695399747276,0.4472430224642614
30,0.00022198695399747276,0.4618788291354663
31,0.0002390628735357399,0.4618788291354663
32,0.0002390628735357399,0.471068754254595
33,0.000256138793074007,0.471068754254595
34,0.000256138793074007,0.4714091218515997
35,0.0002732147126122742,0.4714091218515997
36,0.0002732147126122742,0.478216473791695
37,0.0002902906321505413,0.478216473791695
38,0.0002902906321505413,0.48059904697072836
39,0.00030736655168880846,0.48059904697072836
40,0.00030736655168880846,0.4857045609257999
41,0.00032444247122707557,0.4857045609257999
42,0.00032444247122707557,0.4901293396868618
43,0.00034151839076534274,0.4901293396868618
44,0.00034151839076534274,0.4931926480599047
45,0.00035859431030360985,0.4931926480599047
46,0.00035859431030360985,0.4982981620149762
47,0.00037567022984187696,0.4982981620149762
48,0.00037567022984187696,0.5054458815520763
49,0.00039274614938014413,0.5054458815520763
50,0.00039274614938014413,0.5071477195371
51,0.00040982206891841124,0.5071477195371
52,0.00040982206891841124,0.5098706603131382
53,0.0004268979884566784,0.5098706603131382
54,0.0004268979884566784,0.510211027910143
55,0.0004439739079949455,0.510211027910143
56,0.0004439739079949455,0.511572498298162
57,0.0004781257470714798,0.511572498298162
58,0.0004781257470714798,0.5153165418652145
59,0.0004952016666097469,0.5153165418652145
60,0.0004952016666097469,0.5176991150442478
61,0.000512277586148014,0.5176991150442478
62,0.000512277586148014,0.5200816882232812
63,0.0005293535056862812,0.5200816882232812
64,0.0005293535056862812,0.5296119809394145
65,0.0005464294252245484,0.5296119809394145
66,0.0005464294252245484,0.5299523485364194
67,0.0005805812643010826,0.5299523485364194
68,0.0005805812643010826,0.5309734513274337
69,0.0005976571838393497,0.5309734513274337
70,0.0005976571838393497,0.5313138189244384
71,0.0006147331033776169,0.5313138189244384
72,0.0006147331033776169,0.5350578624914908
73,0.000631809022915884,0.5350578624914908
74,0.000631809022915884,0.537780803267529
75,0.0006488849424541511,0.537780803267529
76,0.0006488849424541511,0.5384615384615384
77,0.0006659608619924183,0.5384615384615384
78,0.0006659608619924183,0.5415248468345814
79,0.0006830367815306855,0.5415248468345814
80,0.0006830367815306855,0.546289993192648
81,0.0007001127010689526,0.546289993192648
82,0.0007001127010689526,0.5476514635806671
83,0.0007171886206072197,0.5476514635806671
84,0.0007171886206072197,0.5490129339686862
85,0.0007342645401454868,0.5490129339686862
86,0.0007342645401454868,0.5510551395507147
87,0.0007513404596837539,0.5510551395507147
88,0.0007513404596837539,0.5513955071477196
89,0.0007684163792220211,0.5513955071477196
90,0.0007684163792220211,0.552076242341729
91,0.0007854922987602883,0.552076242341729
92,0.0007854922987602883,0.5530973451327433
93,0.0008196441378368225,0.5530973451327433
94,0.0008196441378368225,0.5537780803267529
95,0.0008367200573750896,0.5537780803267529
96,0.0008367200573750896,0.5541184479237576
97,0.0008708718964516239,0.5541184479237576
98,0.0008708718964516239,0.5544588155207624
99,0.000887947815989891,0.5544588155207624
100,0.000887947815989891,0.556501021102791
101,0.0009050237355281582,0.556501021102791
102,0.0009050237355281582,0.5602450646698435
103,0.0009391755746046925,0.5602450646698435
104,0.0009391755746046925,0.5605854322668482
105,0.0009562514941429596,0.5605854322668482
106,0.0009562514941429596,0.562287270251872
107,0.0009733274136812267,0.562287270251872
108,0.0009733274136812267,0.5639891082368959
109,0.001007479252757761,0.5639891082368959
110,0.001007479252757761,0.5643294758339006
111,0.001024555172296028,0.5643294758339006
112,0.001024555172296028,0.5697753573859768
113,0.0010416310918342953,0.5697753573859768
114,0.0010416310918342953,0.5721579305650102
115,0.0010587070113725625,0.5721579305650102
116,0.0010587070113725625,0.5769230769230769
117,0.0010757829309108295,0.5769230769230769
118,0.0010757829309108295,0.5776038121170864
119,0.0010928588504490967,0.5776038121170864
120,0.0010928588504490967,0.5796460176991151
121,0.001127010689525631,0.5796460176991151
122,0.001127010689525631,0.5813478556841388
123,0.0011440866090638982,0.5813478556841388
124,0.0011440866090638982,0.5830496936691627
125,0.0011611625286021652,0.5830496936691627
126,0.0011611625286021652,0.5837304288631723
127,0.0011782384481404324,0.5837304288631723
128,0.0011782384481404324,0.5864533696392104
129,0.0011953143676786994,0.5864533696392104
130,0.0011953143676786994,0.588495575221239
131,0.0012123902872169666,0.588495575221239
132,0.0012123902872169666,0.5915588835942818
133,0.0012294662067552338,0.5915588835942818
134,0.0012294662067552338,0.597004765146358
135,0.0012465421262935008,0.597004765146358
136,0.0012465421262935008,0.5976855003403676
137,0.001263618045831768,0.5976855003403676
138,0.001263618045831768,0.5987066031313819
139,0.0012806939653700353,0.5987066031313819
140,0.0012806939653700353,0.600068073519401
141,0.0012977698849083023,0.600068073519401
142,0.0012977698849083023,0.6004084411164057
143,0.0013319217239848365,0.6004084411164057
144,0.0013319217239848365,0.6007488087134105
145,0.0013489976435231037,0.6007488087134105
146,0.0013489976435231037,0.6038121170864533
147,0.0014002254021379052,0.6038121170864533
148,0.0014002254021379052,0.6044928522804629
149,0.0014173013216761722,0.6044928522804629
150,0.0014173013216761722,0.6048332198774676
151,0.0014514531607527066,0.6048332198774676
152,0.0014514531607527066,0.6058543226684819
153,0.0015539086779823093,0.6058543226684819
154,0.0015539086779823093,0.6061946902654868
155,0.0015709845975205765,0.6061946902654868
156,0.0015709845975205765,0.6065350578624915
157,0.0015880605170588435,0.6065350578624915
158,0.0015880605170588435,0.6089176310415249
159,0.001622212356135378,0.6089176310415249
160,0.001622212356135378,0.6106194690265486
161,0.001639288275673645,0.6106194690265486
162,0.001639288275673645,0.6126616746085772
163,0.0016563641952119122,0.6126616746085772
164,0.0016563641952119122,0.6140231449965963
165,0.0016905160342884464,0.6140231449965963
166,0.0016905160342884464,0.6157249829816202
167,0.0017075919538267136,0.6157249829816202
168,0.0017075919538267136,0.6160653505786249
169,0.0017246678733649806,0.6160653505786249
170,0.0017246678733649806,0.6164057181756297
171,0.0017417437929032479,0.6164057181756297
172,0.0017417437929032479,0.6167460857726345
173,0.001758819712441515,0.6167460857726345
174,0.001758819712441515,0.6170864533696392
175,0.0017929715515180493,0.6170864533696392
176,0.0017929715515180493,0.6177671885636488
177,0.0018271233905945835,0.6177671885636488
178,0.0018271233905945835,0.623213070115725
179,0.0018441993101328507,0.623213070115725
180,0.0018441993101328507,0.6235534377127298
181,0.0018612752296711178,0.6235534377127298
182,0.0018612752296711178,0.6238938053097345
183,0.001878351149209385,0.6238938053097345
184,0.001878351149209385,0.6245745405037441
185,0.001895427068747652,0.6245745405037441
186,0.001895427068747652,0.6255956432947584
187,0.0019125029882859192,0.6255956432947584
188,0.0019125029882859192,0.6259360108917631
189,0.0019295789078241864,0.6259360108917631
190,0.0019295789078241864,0.6266167460857727
191,0.0019466548273624534,0.6266167460857727
192,0.0019466548273624534,0.6269571136827774
193,0.0019637307469007204,0.6269571136827774
194,0.0019637307469007204,0.6283185840707964
195,0.001997882585977255,0.6283185840707964
196,0.001997882585977255,0.630360789652825
197,0.002014958505515522,0.630360789652825
198,0.002014958505515522,0.6320626276378489
199,0.0020320344250537893,0.6320626276378489
200,0.0020320344250537893,0.6324029952348537
201,0.0020832621836685905,0.6324029952348537
202,0.0020832621836685905,0.6330837304288631
203,0.0021003381032068578,0.6330837304288631
204,0.0021003381032068578,0.6341048332198774
205,0.002117414022745125,0.6341048332198774
206,0.002117414022745125,0.6368277739959156
207,0.0021344899422833918,0.6368277739959156
208,0.0021344899422833918,0.6375085091899251
209,0.002151565861821659,0.6375085091899251
210,0.002151565861821659,0.6388699795779442
211,0.002168641781359926,0.6388699795779442
212,0.002168641781359926,0.639210347174949
213,0.0021857177008981934,0.639210347174949
214,0.0021857177008981934,0.640571817562968
215,0.0022027936204364607,0.640571817562968
216,0.0022027936204364607,0.6436351259360109
217,0.0022369454595129947,0.6436351259360109
218,0.0022369454595129947,0.6439754935330156
219,0.0022881732181277963,0.6439754935330156
220,0.0022881732181277963,0.6446562287270252
221,0.002305249137666063,0.6446562287270252
222,0.002305249137666063,0.64499659632403
223,0.0023223250572043303,0.64499659632403
224,0.0023223250572043303,0.6456773315180395
225,0.0023394009767425976,0.6456773315180395
226,0.0023394009767425976,0.646358066712049
227,0.002373552815819132,0.646358066712049
228,0.002373552815819132,0.6470388019060586
229,0.0023906287353573988,0.6470388019060586
230,0.0023906287353573988,0.6480599046970729
231,0.002407704654895666,0.6480599046970729
232,0.002407704654895666,0.6484002722940776
233,0.0024247805744339332,0.6484002722940776
234,0.0024247805744339332,0.6487406398910823
235,0.0024418564939722004,0.6487406398910823
236,0.0024418564939722004,0.6501021102791015
237,0.0024589324135104677,0.6501021102791015
238,0.0024589324135104677,0.6507828454731109
239,0.002476008333048735,0.6507828454731109
240,0.002476008333048735,0.65214431586113
241,0.0024930842525870017,0.65214431586113
242,0.0024930842525870017,0.6531654186521443
243,0.002510160172125269,0.6531654186521443
244,0.002510160172125269,0.6545268890401634
245,0.002527236091663536,0.6545268890401634
246,0.002527236091663536,0.6552076242341729
247,0.0025443120112018033,0.6552076242341729
248,0.0025443120112018033,0.6555479918311776
249,0.0025784638502783373,0.6555479918311776
250,0.0025784638502783373,0.6562287270251872
251,0.002612615689354872,0.6562287270251872
252,0.002612615689354872,0.6565690946221919
253,0.002629691608893139,0.6565690946221919
254,0.002629691608893139,0.6569094622191968
255,0.0026467675284314062,0.6569094622191968
256,0.0026467675284314062,0.6592920353982301
257,0.002663843447969673,0.6592920353982301
258,0.002663843447969673,0.6596324029952348
259,0.0026809193675079402,0.6596324029952348
260,0.0026809193675079402,0.6599727705922396
261,0.0026979952870462075,0.6599727705922396
262,0.0026979952870462075,0.6603131381892444
263,0.002732147126122742,0.6603131381892444
264,0.002732147126122742,0.6640571817562968
265,0.0027492230456610087,0.6640571817562968
266,0.0027492230456610087,0.6647379169503064
267,0.0028004508042758103,0.6647379169503064
268,0.0028004508042758103,0.6650782845473111
269,0.0028175267238140776,0.6650782845473111
270,0.0028175267238140776,0.6657590197413207
271,0.0028346026433523444,0.6657590197413207
272,0.0028346026433523444,0.6678012253233492
273,0.002868754482428879,0.6678012253233492
274,0.002868754482428879,0.6688223281143635
275,0.002885830401967146,0.6688223281143635
276,0.002885830401967146,0.6695030633083731
277,0.0029029063215054132,0.6695030633083731
278,0.0029029063215054132,0.6701837985023825
279,0.00291998224104368,0.6701837985023825
280,0.00291998224104368,0.6712049012933968
281,0.0029370581605819472,0.6712049012933968
282,0.0029370581605819472,0.6715452688904017
283,0.0029541340801202145,0.6715452688904017
284,0.0029541340801202145,0.6718856364874064
285,0.002988285919196749,0.6718856364874064
286,0.002988285919196749,0.6722260040844111
287,0.0030053618387350157,0.6722260040844111
288,0.0030053618387350157,0.673927842069435
289,0.003022437758273283,0.673927842069435
290,0.003022437758273283,0.6742682096664397
291,0.00303951367781155,0.6742682096664397
292,0.00303951367781155,0.6749489448604493
293,0.0030736655168880846,0.6749489448604493
294,0.0030736655168880846,0.6756296800544588
295,0.0030907414364263514,0.6756296800544588
296,0.0030907414364263514,0.6759700476514636
297,0.003141969195041153,0.6759700476514636
298,0.003141969195041153,0.6766507828454731
299,0.0031590451145794203,0.6766507828454731
300,0.0031590451145794203,0.6769911504424779
301,0.003176121034117687,0.6769911504424779
302,0.003176121034117687,0.6776718856364874
303,0.0031931969536559543,0.6776718856364874
304,0.0031931969536559543,0.6780122532334921
305,0.0032102728731942215,0.6780122532334921
306,0.0032102728731942215,0.678352620830497
307,0.0032273487927324887,0.678352620830497
308,0.0032273487927324887,0.6786929884275017
309,0.003244424712270756,0.6786929884275017
310,0.003244424712270756,0.6793737236215113
311,0.0032615006318090227,0.6793737236215113
312,0.0032615006318090227,0.6800544588155207
313,0.00327857655134729,0.6800544588155207
314,0.00327857655134729,0.6807351940095303
315,0.003295652470885557,0.6807351940095303
316,0.003295652470885557,0.6817562968005446
317,0.003381032068576893,0.6817562968005446
318,0.003381032068576893,0.6820966643975493
319,0.0034322598271916945,0.6820966643975493
320,0.0034322598271916945,0.684138869979578
321,0.0034493357467299613,0.684138869979578
322,0.0034493357467299613,0.6844792375765827
323,0.0034664116662682285,0.6844792375765827
324,0.0034664116662682285,0.686861810755616
325,0.0034834875858064957,0.686861810755616
326,0.0034834875858064957,0.6875425459496256
327,0.003500563505344763,0.6875425459496256
328,0.003500563505344763,0.6892443839346494
329,0.003551791263959564,0.6892443839346494
330,0.003551791263959564,0.6902654867256637
331,0.0035688671834978314,0.6902654867256637
332,0.0035688671834978314,0.6906058543226685
333,0.003603019022574366,0.6906058543226685
334,0.003603019022574366,0.6909462219196733
335,0.0036371708616509,0.6909462219196733
336,0.0036371708616509,0.6916269571136828
337,0.0037225504593422355,0.6916269571136828
338,0.0037225504593422355,0.6929884275017019
339,0.0037396263788805027,0.6929884275017019
340,0.0037396263788805027,0.6933287950987066
341,0.003773778217957037,0.6933287950987066
342,0.003773778217957037,0.6936691626957113
343,0.003790854137495304,0.6936691626957113
344,0.003790854137495304,0.6946902654867256
345,0.0038420818961101056,0.6946902654867256
346,0.0038420818961101056,0.6957113682777399
347,0.003859157815648373,0.6957113682777399
348,0.003859157815648373,0.697072838665759
349,0.0038762337351866396,0.697072838665759
350,0.0038762337351866396,0.6980939414567733
351,0.003910385574263174,0.6980939414567733
352,0.003910385574263174,0.6984343090537781
353,0.003927461493801441,0.6984343090537781
354,0.003927461493801441,0.6987746766507829
355,0.003961613332877975,0.6987746766507829
356,0.003961613332877975,0.6994554118447924
357,0.003978689252416243,0.6994554118447924
358,0.003978689252416243,0.6997957794417972
359,0.004029917011031044,0.6997957794417972
360,0.004029917011031044,0.7004765146358066
361,0.004064068850107579,0.7004765146358066
362,0.004064068850107579,0.7008168822328115
363,0.00411529660872238,0.7008168822328115
364,0.00411529660872238,0.7021783526208305
365,0.0042006762064137155,0.7021783526208305
366,0.0042006762064137155,0.7045609257998638
367,0.0042689798845667835,0.7045609257998638
368,0.0042689798845667835,0.7052416609938734
369,0.004286055804105051,0.7052416609938734
370,0.004286055804105051,0.7055820285908782
371,0.004303131723643318,0.7055820285908782
372,0.004303131723643318,0.7059223961878829
373,0.004320207643181586,0.7059223961878829
374,0.004320207643181586,0.7062627637848877
375,0.004337283562719852,0.7062627637848877
376,0.004337283562719852,0.7066031313818925
377,0.004371435401796387,0.7066031313818925
378,0.004371435401796387,0.7072838665759019
379,0.004388511321334654,0.7072838665759019
380,0.004388511321334654,0.7079646017699115
381,0.004439739079949455,0.7079646017699115
382,0.004439739079949455,0.7086453369639211
383,0.0044568149994877225,0.7086453369639211
384,0.0044568149994877225,0.7103471749489448
385,0.004473890919025989,0.7103471749489448
386,0.004473890919025989,0.7110279101429544
387,0.004490966838564257,0.7110279101429544
388,0.004490966838564257,0.7127297481279782
389,0.004508042758102524,0.7127297481279782
390,0.004508042758102524,0.713070115724983
391,0.004576346436255593,0.713070115724983
392,0.004576346436255593,0.7134104833219878
393,0.0045934223557938594,0.7134104833219878
394,0.0045934223557938594,0.7137508509189925
395,0.004627574194870394,0.7137508509189925
396,0.004627574194870394,0.7140912185159973
397,0.004644650114408661,0.7140912185159973
398,0.004644650114408661,0.7144315861130021
399,0.004695877873023462,0.7144315861130021
400,0.004695877873023462,0.7147719537100068
401,0.004730029712099996,0.7147719537100068
402,0.004730029712099996,0.7151123213070115
403,0.004747105631638264,0.7151123213070115
404,0.004747105631638264,0.7157930565010211
405,0.004764181551176531,0.7157930565010211
406,0.004764181551176531,0.7161334240980258
407,0.004815409309791332,0.7161334240980258
408,0.004815409309791332,0.7164737916950307
409,0.0048324852293296,0.7164737916950307
410,0.0048324852293296,0.7168141592920354
411,0.0048495611488678664,0.7168141592920354
412,0.0048495611488678664,0.7178352620830497
413,0.004866637068406134,0.7178352620830497
414,0.004866637068406134,0.718856364874064
415,0.00495201666609747,0.718856364874064
416,0.00495201666609747,0.7195371000680735
417,0.0049690925856357366,0.7195371000680735
418,0.0049690925856357366,0.7198774676650783
419,0.004986168505174003,0.7198774676650783
420,0.004986168505174003,0.720217835262083
421,0.0051056999419418735,0.720217835262083
422,0.0051056999419418735,0.7212389380530974
423,0.005122775861480141,0.7212389380530974
424,0.005122775861480141,0.7219196732471069
425,0.005139851781018408,0.7219196732471069
426,0.005139851781018408,0.7222600408441117
427,0.005156927700556675,0.7222600408441117
428,0.005156927700556675,0.7226004084411164
429,0.005208155459171477,0.7226004084411164
430,0.005208155459171477,0.7229407760381211
431,0.00524230729824801,0.7229407760381211
432,0.00524230729824801,0.7239618788291354
433,0.005259383217786278,0.7239618788291354
434,0.005259383217786278,0.724642614023145
435,0.005276459137324545,0.724642614023145
436,0.005276459137324545,0.7253233492171546
437,0.005327686895939346,0.7253233492171546
438,0.005327686895939346,0.726004084411164
439,0.0053618387350158805,0.726004084411164
440,0.0053618387350158805,0.7270251872021783
441,0.005395990574092415,0.7270251872021783
442,0.005395990574092415,0.7280462899931927
443,0.005413066493630682,0.7280462899931927
444,0.005413066493630682,0.7287270251872022
445,0.005430142413168949,0.7287270251872022
446,0.005430142413168949,0.729067392784207
447,0.005498446091322017,0.729067392784207
448,0.005498446091322017,0.7294077603812117
449,0.005515522010860285,0.7294077603812117
450,0.005515522010860285,0.7307692307692307
451,0.005532597930398552,0.7307692307692307
452,0.005532597930398552,0.7311095983662356
453,0.005566749769475086,0.7311095983662356
454,0.005566749769475086,0.7314499659632403
455,0.005600901608551621,0.7314499659632403
456,0.005600901608551621,0.7324710687542546
457,0.0056179775280898875,0.7324710687542546
458,0.0056179775280898875,0.7328114363512593
459,0.005703357125781223,0.7328114363512593
460,0.005703357125781223,0.7338325391422736
461,0.005754584884396024,0.7338325391422736
462,0.005754584884396024,0.7341729067392784
463,0.005771660803934292,0.7341729067392784
464,0.005771660803934292,0.7345132743362832
465,0.005788736723472559,0.7345132743362832
466,0.005788736723472559,0.7355343771272975
467,0.0058058126430108265,0.7355343771272975
468,0.0058058126430108265,0.7365554799183118
469,0.0058741163211638945,0.7365554799183118
470,0.0058741163211638945,0.7372362151123213
471,0.005925344079778696,0.7372362151123213
472,0.005925344079778696,0.7379169503063309
473,0.006010723677470031,0.7379169503063309
474,0.006010723677470031,0.7382573179033356
475,0.0060619514360848335,0.7382573179033356
476,0.0060619514360848335,0.7389380530973452
477,0.0060790273556231,0.7389380530973452
478,0.0060790273556231,0.7396187882913546
479,0.0061302551142379015,0.7396187882913546
480,0.0061302551142379015,0.7406398910823689
481,0.006181482872852703,0.7406398910823689
482,0.006181482872852703,0.7409802586793737
483,0.006266862470544038,0.7409802586793737
484,0.006266862470544038,0.742001361470388
485,0.006283938390082306,0.742001361470388
486,0.006283938390082306,0.7423417290673928
487,0.006403469826850176,0.7423417290673928
488,0.006403469826850176,0.7433628318584071
489,0.006488849424541512,0.7433628318584071
490,0.006488849424541512,0.7437031994554119
491,0.006505925344079779,0.7437031994554119
492,0.006505925344079779,0.7443839346494214
493,0.006523001263618045,0.7443839346494214
494,0.006523001263618045,0.7447243022464262
495,0.006540077183156313,0.7447243022464262
496,0.006540077183156313,0.7450646698434309
497,0.006591304941771114,0.7450646698434309
498,0.006591304941771114,0.7464261402314499
499,0.006625456780847649,0.7464261402314499
500,0.006625456780847649,0.7471068754254595
501,0.0066425327003859155,0.7471068754254595
502,0.0066425327003859155,0.7474472430224642
503,0.006659608619924183,0.7474472430224642
504,0.006659608619924183,0.7481279782164738
505,0.006710836378538984,0.7481279782164738
506,0.006710836378538984,0.7484683458134785
507,0.006727912298077251,0.7484683458134785
508,0.006727912298077251,0.7491490810074881
509,0.00679621597623032,0.7491490810074881
510,0.00679621597623032,0.7501701837985024
511,0.006813291895768587,0.7501701837985024
512,0.006813291895768587,0.7505105513955072
513,0.0068303678153068545,0.7505105513955072
514,0.0068303678153068545,0.7508509189925119
515,0.0068986714934599225,0.7508509189925119
516,0.0068986714934599225,0.7515316541865215
517,0.006949899252074725,0.7515316541865215
518,0.006949899252074725,0.7518720217835262
519,0.007018202930227793,0.7518720217835262
520,0.007018202930227793,0.7522123893805309
521,0.00703527884976606,0.7522123893805309
522,0.00703527884976606,0.7525527569775358
523,0.007052354769304327,0.7525527569775358
524,0.007052354769304327,0.7532334921715452
525,0.0070865066083808615,0.7532334921715452
526,0.0070865066083808615,0.7535738597685501
527,0.007103582527919128,0.7535738597685501
528,0.007103582527919128,0.7542545949625595
529,0.007120658447457396,0.7542545949625595
530,0.007120658447457396,0.7545949625595644
531,0.007137734366995663,0.7545949625595644
532,0.007137734366995663,0.7552756977535738
533,0.007171886206072197,0.7552756977535738
534,0.007171886206072197,0.7556160653505786
535,0.0072743417233018,0.7556160653505786
536,0.0072743417233018,0.7559564329475834
537,0.007325569481916601,0.7559564329475834
538,0.007325569481916601,0.7562968005445881
539,0.007359721320993135,0.7562968005445881
540,0.007359721320993135,0.7566371681415929
541,0.007376797240531403,0.7566371681415929
542,0.007376797240531403,0.7569775357385977
543,0.007445100918684471,0.7569775357385977
544,0.007445100918684471,0.7573179033356024
545,0.007462176838222739,0.7573179033356024
546,0.007462176838222739,0.7576582709326072
547,0.007496328677299272,0.7576582709326072
548,0.007496328677299272,0.757998638529612
549,0.00751340459683754,0.757998638529612
550,0.00751340459683754,0.7586793737236215
551,0.007530480516375807,0.7586793737236215
552,0.007530480516375807,0.7590197413206263
553,0.007547556435914074,0.7590197413206263
554,0.007547556435914074,0.7593601089176311
555,0.007581708274990608,0.7593601089176311
556,0.007581708274990608,0.7600408441116405
557,0.007598784194528876,0.7600408441116405
558,0.007598784194528876,0.7603812117086454
559,0.007650011953143677,0.7603812117086454
560,0.007650011953143677,0.7607215793056501
561,0.007667087872681944,0.7607215793056501
562,0.007667087872681944,0.7610619469026548
563,0.007701239711758478,0.7610619469026548
564,0.007701239711758478,0.7614023144996597
565,0.007718315631296746,0.7614023144996597
566,0.007718315631296746,0.7617426820966644
567,0.007854922987602882,0.7617426820966644
568,0.007854922987602882,0.7620830496936691
569,0.00792322666575595,0.7620830496936691
570,0.00792322666575595,0.7634445200816882
571,0.007940302585294217,0.7634445200816882
572,0.007940302585294217,0.763784887678693
573,0.007957378504832486,0.763784887678693
574,0.007957378504832486,0.7641252552756977
575,0.007974454424370753,0.7641252552756977
576,0.007974454424370753,0.7644656228727025
577,0.00799153034390902,0.7644656228727025
578,0.00799153034390902,0.765146358066712
579,0.008025682182985553,0.765146358066712
580,0.008025682182985553,0.7665078284547311
581,0.008042758102523822,0.7665078284547311
582,0.008042758102523822,0.7668481960517358
583,0.008076909941600355,0.7668481960517358
584,0.008076909941600355,0.7671885636487407
585,0.008179365458829958,0.7671885636487407
586,0.008179365458829958,0.7685500340367597
587,0.008213517297906493,0.7685500340367597
588,0.008213517297906493,0.7688904016337644
589,0.00823059321744476,0.7688904016337644
590,0.00823059321744476,0.7692307692307693
591,0.008401352412827431,0.7692307692307693
592,0.008401352412827431,0.769571136827774
593,0.008435504251903965,0.769571136827774
594,0.008435504251903965,0.7699115044247787
595,0.008452580171442231,0.7699115044247787
596,0.008452580171442231,0.7716133424098026
597,0.0084696560909805,0.7716133424098026
598,0.0084696560909805,0.7719537100068073
599,0.00858918752774837,0.7719537100068073
600,0.00858918752774837,0.7726344452008169
601,0.008623339366824903,0.7726344452008169
602,0.008623339366824903,0.7729748127978217
603,0.008640415286363171,0.7729748127978217
604,0.008640415286363171,0.773995915588836
605,0.008674567125439705,0.773995915588836
606,0.008674567125439705,0.7750170183798503
607,0.008691643044977972,0.7750170183798503
608,0.008691643044977972,0.7760381211708646
609,0.008742870803592774,0.7760381211708646
610,0.008742870803592774,0.7770592239618789
611,0.00882825040128411,0.7770592239618789
612,0.00882825040128411,0.7773995915588836
613,0.00887947815989891,0.7773995915588836
614,0.00887947815989891,0.7780803267528931
615,0.008896554079437178,0.7780803267528931
616,0.008896554079437178,0.7784206943498979
617,0.008930705918513712,0.7784206943498979
618,0.008930705918513712,0.7787610619469026
619,0.008947781838051979,0.7787610619469026
620,0.008947781838051979,0.7791014295439074
621,0.009101465113896383,0.7791014295439074
622,0.009101465113896383,0.7794417971409122
623,0.009152692872511185,0.7794417971409122
624,0.009152692872511185,0.779782164737917
625,0.009186844711587719,0.779782164737917
626,0.009186844711587719,0.7808032675289313
627,0.009220996550664252,0.7808032675289313
628,0.009220996550664252,0.781143635125936
629,0.009289300228817321,0.781143635125936
630,0.009289300228817321,0.7814840027229408
631,0.009323452067893857,0.7814840027229408
632,0.009323452067893857,0.7818243703199456
633,0.009374679826508657,0.7818243703199456
634,0.009374679826508657,0.7821647379169503
635,0.009391755746046924,0.7821647379169503
636,0.009391755746046924,0.782505105513955
637,0.009408831665585192,0.782505105513955
638,0.009408831665585192,0.7828454731109599
639,0.009425907585123459,0.7828454731109599
640,0.009425907585123459,0.7831858407079646
641,0.009442983504661726,0.7831858407079646
642,0.009442983504661726,0.7835262083049693
643,0.009579590860967864,0.7835262083049693
644,0.009579590860967864,0.7838665759019742
645,0.00959666678050613,0.7838665759019742
646,0.00959666678050613,0.7845473110959836
647,0.00964789453912093,0.7845473110959836
648,0.00964789453912093,0.7852280462899932
649,0.009699122297735733,0.7852280462899932
650,0.009699122297735733,0.7859087814840027
651,0.009716198217274,0.7859087814840027
652,0.009716198217274,0.7862491490810075
653,0.009733274136812268,0.7862491490810075
654,0.009733274136812268,0.7865895166780122
655,0.009784501895427069,0.7865895166780122
656,0.009784501895427069,0.7872702518720218
657,0.009852805573580137,0.7872702518720218
658,0.009852805573580137,0.7876106194690266
659,0.009869881493118404,0.7876106194690266
660,0.009869881493118404,0.7889720898570456
661,0.009886957412656671,0.7889720898570456
662,0.009886957412656671,0.7906739278420695
663,0.009989412929886275,0.7906739278420695
664,0.009989412929886275,0.7910142954390742
665,0.010006488849424542,0.7910142954390742
666,0.010006488849424542,0.7920353982300885
667,0.010074792527577611,0.7920353982300885
668,0.010074792527577611,0.7923757658270932
669,0.010091868447115878,0.7923757658270932
670,0.010091868447115878,0.7927161334240981
671,0.010108944366654144,0.7927161334240981
672,0.010108944366654144,0.7930565010211028
673,0.010126020286192411,0.7930565010211028
674,0.010126020286192411,0.7937372362151123
675,0.010143096205730678,0.7937372362151123
676,0.010143096205730678,0.7940776038121171
677,0.010160172125268947,0.7940776038121171
678,0.010160172125268947,0.7954390742001362
679,0.010228475803422014,0.7954390742001362
680,0.010228475803422014,0.7961198093941457
681,0.010245551722960282,0.7961198093941457
682,0.010245551722960282,0.7964601769911505
683,0.010330931320651618,0.7964601769911505
684,0.010330931320651618,0.7968005445881552
685,0.010399234998804685,0.7968005445881552
686,0.010399234998804685,0.7971409121851599
687,0.01043338683788122,0.7971409121851599
688,0.01043338683788122,0.7974812797821648
689,0.01050169051603429,0.7974812797821648
690,0.01050169051603429,0.7978216473791695
691,0.010569994194187356,0.7978216473791695
692,0.010569994194187356,0.7981620149761742
693,0.010621221952802158,0.7981620149761742
694,0.010621221952802158,0.7985023825731791
695,0.010638297872340425,0.7985023825731791
696,0.010638297872340425,0.7991831177671885
697,0.010655373791878692,0.7991831177671885
698,0.010655373791878692,0.7995234853641934
699,0.010706601550493494,0.7995234853641934
700,0.010706601550493494,0.7998638529611981
701,0.010723677470031761,0.7998638529611981
702,0.010723677470031761,0.8005445881552076
703,0.010757829309108296,0.8005445881552076
704,0.010757829309108296,0.8012253233492171
705,0.010826132987261363,0.8012253233492171
706,0.010826132987261363,0.8015656909462219
707,0.010843208906799632,0.8015656909462219
708,0.010843208906799632,0.8022464261402315
709,0.010877360745876165,0.8022464261402315
710,0.010877360745876165,0.8025867937372362
711,0.010894436665414432,0.8025867937372362
712,0.010894436665414432,0.802927161334241
713,0.01103104402172057,0.802927161334241
714,0.01103104402172057,0.8032675289312458
715,0.011048119941258837,0.8032675289312458
716,0.011048119941258837,0.8036078965282505
717,0.011133499538950173,0.8036078965282505
718,0.011133499538950173,0.8039482641252553
719,0.011167651378026706,0.8039482641252553
720,0.011167651378026706,0.8042886317222601
721,0.011253030975718042,0.8042886317222601
722,0.011253030975718042,0.8046289993192648
723,0.01127010689525631,0.8046289993192648
724,0.01127010689525631,0.8053097345132744
725,0.011287182814794577,0.8053097345132744
726,0.011287182814794577,0.8059904697072838
727,0.011304258734332844,0.8059904697072838
728,0.011304258734332844,0.8066712049012934
729,0.01132133465387111,0.8066712049012934
730,0.01132133465387111,0.8070115724982981
731,0.011338410573409377,0.8070115724982981
732,0.011338410573409377,0.8076923076923077
733,0.011475017929715515,0.8076923076923077
734,0.011475017929715515,0.8083730428863172
735,0.01156039752740685,0.8083730428863172
736,0.01156039752740685,0.808713410483322
737,0.011577473446945118,0.808713410483322
738,0.011577473446945118,0.8090537780803267
739,0.011748232642327789,0.8090537780803267
740,0.011748232642327789,0.8097345132743363
741,0.011901915918172194,0.8097345132743363
742,0.011901915918172194,0.810074880871341
743,0.01198729551586353,0.810074880871341
744,0.01198729551586353,0.8107556160653506
745,0.012021447354940063,0.8107556160653506
746,0.012021447354940063,0.8114363512593601
747,0.012038523274478331,0.8114363512593601
748,0.012038523274478331,0.8121170864533697
749,0.012055599194016598,0.8121170864533697
750,0.012055599194016598,0.8124574540503744
751,0.012243434308937536,0.8124574540503744
752,0.012243434308937536,0.8127978216473791
753,0.012260510228475803,0.8127978216473791
754,0.012260510228475803,0.8134785568413887
755,0.01239711758478194,0.8134785568413887
756,0.01239711758478194,0.8138189244383934
757,0.012414193504320208,0.8138189244383934
758,0.012414193504320208,0.814499659632403
759,0.01246542126293501,0.814499659632403
760,0.01246542126293501,0.8151803948264126
761,0.012499573102011543,0.8151803948264126
762,0.012499573102011543,0.8155207624234173
763,0.01251664902154981,0.8155207624234173
764,0.01251664902154981,0.815861130020422
765,0.012533724941088077,0.815861130020422
766,0.012533724941088077,0.8165418652144316
767,0.012550800860626345,0.8165418652144316
768,0.012550800860626345,0.8168822328114363
769,0.012619104538779412,0.8168822328114363
770,0.012619104538779412,0.8172226004084411
771,0.012653256377855948,0.8172226004084411
772,0.012653256377855948,0.8175629680054459
773,0.01275571189508555,0.8175629680054459
774,0.01275571189508555,0.8179033356024507
775,0.012789863734162084,0.8179033356024507
776,0.012789863734162084,0.8185840707964602
777,0.01282401557323862,0.8185840707964602
778,0.01282401557323862,0.818924438393465
779,0.012841091492776886,0.818924438393465
780,0.012841091492776886,0.8192648059904697
781,0.012858167412315153,0.8192648059904697
782,0.012858167412315153,0.8196051735874744
783,0.01287524333185342,0.8196051735874744
784,0.01287524333185342,0.820285908781484
785,0.012892319251391688,0.820285908781484
786,0.012892319251391688,0.8206262763784887
787,0.012926471090468222,0.8206262763784887
788,0.012926471090468222,0.8209666439754936
789,0.012943547010006488,0.8209666439754936
790,0.012943547010006488,0.8213070115724983
791,0.012977698849083024,0.8213070115724983
792,0.012977698849083024,0.821647379169503
793,0.013028926607697824,0.821647379169503
794,0.013028926607697824,0.8219877467665079
795,0.01304600252723609,0.8219877467665079
796,0.01304600252723609,0.8223281143635126
797,0.01306307844677436,0.8223281143635126
798,0.01306307844677436,0.8226684819605173
799,0.013080154366312626,0.8226684819605173
800,0.013080154366312626,0.8230088495575221
801,0.01311430620538916,0.8230088495575221
802,0.01311430620538916,0.8233492171545269
803,0.013182609883542229,0.8233492171545269
804,0.013182609883542229,0.8236895847515316
805,0.013250913561695297,0.8236895847515316
806,0.013250913561695297,0.8240299523485364
807,0.013267989481233564,0.8240299523485364
808,0.013267989481233564,0.8250510551395507
809,0.013319217239848366,0.8250510551395507
810,0.013319217239848366,0.8257317903335603
811,0.0133533690789249,0.8257317903335603
812,0.0133533690789249,0.826072157930565
813,0.013421672757077969,0.826072157930565
814,0.013421672757077969,0.8270932607215793
815,0.013438748676616236,0.8270932607215793
816,0.013438748676616236,0.827433628318584
817,0.013455824596154502,0.827433628318584
818,0.013455824596154502,0.8277739959155889
819,0.013558280113384105,0.8277739959155889
820,0.013558280113384105,0.8287950987066032
821,0.013746115228305045,0.8287950987066032
822,0.013746115228305045,0.8291354663036079
823,0.013780267067381578,0.8291354663036079
824,0.013780267067381578,0.8294758339006126
825,0.013814418906458114,0.8294758339006126
826,0.013814418906458114,0.8298162014976175
827,0.01383149482599638,0.8298162014976175
828,0.01383149482599638,0.8301565690946222
829,0.014173013216761723,0.8301565690946222
830,0.014173013216761723,0.8304969366916269
831,0.014463303848912264,0.8304969366916269
832,0.014463303848912264,0.8308373042886317
833,0.014497455687988799,0.8308373042886317
834,0.014497455687988799,0.8311776718856365
835,0.014531607527065333,0.8311776718856365
836,0.014531607527065333,0.8315180394826412
837,0.01478774632013934,0.8315180394826412
838,0.01478774632013934,0.831858407079646
839,0.014975581435060278,0.831858407079646
840,0.014975581435060278,0.8321987746766508
841,0.014992657354598544,0.8321987746766508
842,0.014992657354598544,0.8325391422736556
843,0.01502680919367508,0.8325391422736556
844,0.01502680919367508,0.8328795098706603
845,0.015146340630442949,0.8328795098706603
846,0.015146340630442949,0.8332198774676651
847,0.015163416549981216,0.8332198774676651
848,0.015163416549981216,0.8335602450646699
849,0.015214644308596018,0.8335602450646699
850,0.015214644308596018,0.8339006126616746
851,0.015334175745363887,0.8339006126616746
852,0.015334175745363887,0.8342409802586793
853,0.01538540350397869,0.8342409802586793
854,0.01538540350397869,0.8345813478556842
855,0.015419555343055223,0.8345813478556842
856,0.015419555343055223,0.8352620830496936
857,0.015453707182131758,0.8352620830496936
858,0.015453707182131758,0.8356024506466985
859,0.015470783101670025,0.8356024506466985
860,0.015470783101670025,0.8359428182437032
861,0.015522010860284827,0.8359428182437032
862,0.015522010860284827,0.8362831858407079
863,0.015641542297052696,0.8362831858407079
864,0.015641542297052696,0.8366235534377128
865,0.0157439978142823,0.8366235534377128
866,0.0157439978142823,0.8369639210347175
867,0.0157952255728971,0.8369639210347175
868,0.0157952255728971,0.8376446562287271
869,0.015863529251050168,0.8376446562287271
870,0.015863529251050168,0.8379850238257318
871,0.015880605170588435,0.8379850238257318
872,0.015880605170588435,0.8383253914227365
873,0.015965984768279772,0.8383253914227365
874,0.015965984768279772,0.8386657590197413
875,0.01598306068781804,0.8386657590197413
876,0.01598306068781804,0.8390061266167461
877,0.016085516205047643,0.8390061266167461
878,0.016085516205047643,0.8393464942137508
879,0.01620504764181551,0.8393464942137508
880,0.01620504764181551,0.8396868618107556
881,0.016222123561353777,0.8396868618107556
882,0.016222123561353777,0.8400272294077604
883,0.01634165499812165,0.8400272294077604
884,0.01634165499812165,0.8403675970047652
885,0.01640995867627472,0.8403675970047652
886,0.01640995867627472,0.8407079646017699
887,0.01651241419350432,0.8407079646017699
888,0.01651241419350432,0.8410483321987747
889,0.016546566032580853,0.8410483321987747
890,0.016546566032580853,0.8413886997957795
891,0.01656364195211912,0.8413886997957795
892,0.01656364195211912,0.8417290673927842
893,0.01668317338888699,0.8417290673927842
894,0.01668317338888699,0.8420694349897889
895,0.016717325227963525,0.8420694349897889
896,0.016717325227963525,0.8427501701837985
897,0.016853932584269662,0.8427501701837985
898,0.016853932584269662,0.8430905377808032
899,0.01716129913595847,0.8430905377808032
900,0.01716129913595847,0.8434309053778081
901,0.017195450975035005,0.8434309053778081
902,0.017195450975035005,0.8441116405718175
903,0.017212526894573272,0.8441116405718175
904,0.017212526894573272,0.8444520081688224
905,0.01729790649226461,0.8444520081688224
906,0.01729790649226461,0.8447923757658271
907,0.017383286089955943,0.8447923757658271
908,0.017383286089955943,0.8451327433628318
909,0.01740036200949421,0.8451327433628318
910,0.01740036200949421,0.8454731109598366
911,0.017417437929032477,0.8454731109598366
912,0.017417437929032477,0.8458134785568414
913,0.017536969365800348,0.8458134785568414
914,0.017536969365800348,0.8461538461538461
915,0.017690652641644752,0.8461538461538461
916,0.017690652641644752,0.8464942137508509
917,0.017793108158874357,0.8464942137508509
918,0.017793108158874357,0.8468345813478557
919,0.017844335917489157,0.8468345813478557
920,0.017844335917489157,0.8471749489448605
921,0.018032171032410095,0.8471749489448605
922,0.018032171032410095,0.8475153165418652
923,0.018083398791024895,0.8475153165418652
924,0.018083398791024895,0.84785568413887
925,0.018168778388716233,0.84785568413887
926,0.018168778388716233,0.8485364193328795
927,0.018561524538096376,0.8485364193328795
928,0.018561524538096376,0.8488767869298843
929,0.018578600457634643,0.8488767869298843
930,0.018578600457634643,0.8492171545268891
931,0.01890304292886172,0.8492171545268891
932,0.01890304292886172,0.8495575221238938
933,0.018920118848399985,0.8495575221238938
934,0.018920118848399985,0.8498978897208985
935,0.018988422526553056,0.8498978897208985
936,0.01902257436562959,0.8498978897208985
937,0.019312864997780132,0.8498978897208985
938,0.019312864997780132,0.8502382573179034
939,0.019415320515009733,0.8502382573179034
940,0.019415320515009733,0.8505786249149081
941,0.019432396434548,0.8505786249149081
942,0.019432396434548,0.8509189925119128
943,0.019517776032239337,0.8509189925119128
944,0.019517776032239337,0.8512593601089177
945,0.019534851951777604,0.8512593601089177
946,0.019534851951777604,0.8515997277059224
947,0.019569003790854137,0.8515997277059224
948,0.019569003790854137,0.8519400953029271
949,0.019876370342542946,0.8519400953029271
950,0.019876370342542946,0.852280462899932
951,0.01997882585977255,0.852280462899932
952,0.01997882585977255,0.8526208304969367
953,0.020200812813770022,0.8526208304969367
954,0.020200812813770022,0.8529611980939414
955,0.020525255284997098,0.8529611980939414
956,0.020525255284997098,0.8533015656909462
957,0.020542331204535365,0.8533015656909462
958,0.020542331204535365,0.853641933287951
959,0.020593558963150165,0.853641933287951
960,0.020593558963150165,0.8539823008849557
961,0.020678938560841503,0.8539823008849557
962,0.020678938560841503,0.8543226684819605
963,0.02069601448037977,0.8543226684819605
964,0.02069601448037977,0.8546630360789653
965,0.020764318158532837,0.8546630360789653
966,0.020764318158532837,0.85500340367597
967,0.020781394078071103,0.85500340367597
968,0.020781394078071103,0.8553437712729748
969,0.020815545917147637,0.8553437712729748
970,0.020815545917147637,0.8556841388699796
971,0.020832621836685907,0.8556841388699796
972,0.020832621836685907,0.8560245064669844
973,0.020849697756224174,0.8560245064669844
974,0.020849697756224174,0.8563648740639891
975,0.021088760629759912,0.8563648740639891
976,0.02110583654929818,0.8567052416609938
977,0.02117414022745125,0.8567052416609938
978,0.02117414022745125,0.8570456092579987
979,0.02127659574468085,0.8570456092579987
980,0.02127659574468085,0.8573859768550034
981,0.021293671664219117,0.8573859768550034
982,0.021293671664219117,0.8577263444520081
983,0.02141320310098699,0.8577263444520081
984,0.02141320310098699,0.858066712049013
985,0.021430279020525255,0.858066712049013
986,0.021430279020525255,0.8584070796460177
987,0.02163519005498446,0.8584070796460177
988,0.02163519005498446,0.8587474472430224
989,0.021771797411290598,0.8587474472430224
990,0.021771797411290598,0.8590878148400273
991,0.02180594925036713,0.8590878148400273
992,0.02180594925036713,0.859428182437032
993,0.021874252928520202,0.859428182437032
994,0.021874252928520202,0.8597685500340367
995,0.02199378436528807,0.8597685500340367
996,0.02199378436528807,0.8601089176310415
997,0.022010860284826336,0.8601089176310415
998,0.022010860284826336,0.8604492852280463
999,0.022045012123902873,0.8604492852280463
1000,0.022045012123902873,0.860789652825051
1001,0.022147467641132474,0.860789652825051
1002,0.022147467641132474,0.8611300204220558
1003,0.02223284723882381,0.8611300204220558
1004,0.02223284723882381,0.8614703880190606
1005,0.022335302756053412,0.8614703880190606
1006,0.022335302756053412,0.8618107556160653
1007,0.022488986031897817,0.8618107556160653
1008,0.02252313787097435,0.8618107556160653
1009,0.02252313787097435,0.8621511232130701
1010,0.02254021379051262,0.8621511232130701
1011,0.02254021379051262,0.8624914908100749
1012,0.02264266930774222,0.8624914908100749
1013,0.02264266930774222,0.8628318584070797
1014,0.022659745227280488,0.8628318584070797
1015,0.022659745227280488,0.8631722260040844
1016,0.02277927666404836,0.8631722260040844
1017,0.02277927666404836,0.8635125936010892
1018,0.022813428503124893,0.8635125936010892
1019,0.022813428503124893,0.863852961198094
1020,0.022881732181277963,0.863852961198094
1021,0.022881732181277963,0.8641933287950987
1022,0.02318909873296677,0.8641933287950987
1023,0.02318909873296677,0.8645336963921034
1024,0.023206174652505036,0.8645336963921034
1025,0.023206174652505036,0.8648740639891083
1026,0.023291554250196373,0.8648740639891083
1027,0.023291554250196373,0.865214431586113
1028,0.02337693384788771,0.865214431586113
1029,0.02337693384788771,0.8655547991831177
1030,0.023394009767425977,0.8655547991831177
1031,0.023394009767425977,0.8658951667801226
1032,0.02342816160650251,0.8658951667801226
1033,0.02342816160650251,0.8662355343771273
1034,0.023650148560499983,0.8662355343771273
1035,0.023650148560499983,0.866575901974132
1036,0.023701376319114783,0.866575901974132
1037,0.023701376319114783,0.8669162695711369
1038,0.023752604077729587,0.8669162695711369
1039,0.023752604077729587,0.8675970047651463
1040,0.02383798367542092,0.8675970047651463
1041,0.02383798367542092,0.8679373723621511
1042,0.023889211434035725,0.8679373723621511
1043,0.023889211434035725,0.8682777399591559
1044,0.024059970629418396,0.8682777399591559
1045,0.024059970629418396,0.8686181075561606
1046,0.024299033502954134,0.8686181075561606
1047,0.024299033502954134,0.8689584751531654
1048,0.024469792698336806,0.8689584751531654
1049,0.024469792698336806,0.8692988427501702
1050,0.024691779652334277,0.8692988427501702
1051,0.024691779652334277,0.869639210347175
1052,0.02479423516956388,0.869639210347175
1053,0.02479423516956388,0.8699795779441797
1054,0.02481131108910215,0.8699795779441797
1055,0.02481131108910215,0.8703199455411845
1056,0.024879614767255216,0.8703199455411845
1057,0.024879614767255216,0.8706603131381893
1058,0.025084525801714424,0.8706603131381893
1059,0.025084525801714424,0.871000680735194
1060,0.025357740514326696,0.871000680735194
1061,0.025357740514326696,0.8713410483321987
1062,0.025579727468324168,0.8713410483321987
1063,0.025579727468324168,0.8716814159292036
1064,0.02563095522693897,0.8716814159292036
1065,0.02563095522693897,0.872362151123213
1066,0.025733410744168572,0.872362151123213
1067,0.025733410744168572,0.8727025187202179
1068,0.025972473617704314,0.8727025187202179
1069,0.025972473617704314,0.8733832539142273
1070,0.02634814384754619,0.8733832539142273
1071,0.02634814384754619,0.8737236215112322
1072,0.02658720672108193,0.8737236215112322
1073,0.02658720672108193,0.8740639891082369
1074,0.026604282640620196,0.8740639891082369
1075,0.026604282640620196,0.8744043567052416
1076,0.026775041836002867,0.8744043567052416
1077,0.026775041836002867,0.8750850918992512
1078,0.02692872511184727,0.8750850918992512
1079,0.02692872511184727,0.8754254594962559
1080,0.02696287695092381,0.8754254594962559
1081,0.02696287695092381,0.8757658270932607
1082,0.026997028790000342,0.8757658270932607
1083,0.026997028790000342,0.8761061946902655
1084,0.027099484307229943,0.8761061946902655
1085,0.027099484307229943,0.876786929884275
1086,0.027150712065844747,0.876786929884275
1087,0.027150712065844747,0.8771272974812798
1088,0.027321471261227418,0.8771272974812798
1089,0.027321471261227418,0.8778080326752893
1090,0.02737269901984222,0.8778080326752893
1091,0.02737269901984222,0.8781484002722941
1092,0.027458078617533556,0.8781484002722941
1093,0.027458078617533556,0.8784887678692989
1094,0.0277995970082989,0.8784887678692989
1095,0.0277995970082989,0.8791695030633083
1096,0.027833748847375432,0.8791695030633083
1097,0.027833748847375432,0.8795098706603132
1098,0.0278508247669137,0.8795098706603132
1099,0.0278508247669137,0.8808713410483322
1100,0.02802158396229637,0.8808713410483322
1101,0.02802158396229637,0.8812117086453369
1102,0.02819234315767904,0.8812117086453369
1103,0.02819234315767904,0.8818924438393465
1104,0.028226494996755575,0.8818924438393465
1105,0.028226494996755575,0.8822328114363512
1106,0.028414330111676513,0.8822328114363512
1107,0.028414330111676513,0.8829135466303608
1108,0.028704620743827056,0.8829135466303608
1109,0.028704620743827056,0.8835942818243703
1110,0.028807076261056656,0.8835942818243703
1111,0.028807076261056656,0.8842750170183798
1112,0.028926607697824527,0.8842750170183798
1113,0.028926607697824527,0.8852961198093942
1114,0.029199822410436803,0.8852961198093942
1115,0.029199822410436803,0.8856364874063989
1116,0.029251050169051603,0.8856364874063989
1117,0.029251050169051603,0.8859768550034037
1118,0.02933642976674294,0.8859768550034037
1119,0.02933642976674294,0.8863172226004085
1120,0.029370581605819474,0.8863172226004085
1121,0.029370581605819474,0.8866575901974132
1122,0.029541340801202146,0.8866575901974132
1123,0.029541340801202146,0.8869979577944179
1124,0.029729175916123084,0.8869979577944179
1125,0.029729175916123084,0.8873383253914228
1126,0.029780403674737884,0.8873383253914228
1127,0.029780403674737884,0.8876786929884275
1128,0.029814555513814418,0.8876786929884275
1129,0.029814555513814418,0.8880190605854322
1130,0.030087770226426693,0.8880190605854322
1131,0.030087770226426693,0.8883594281824371
1132,0.030190225743656297,0.8883594281824371
1133,0.030190225743656297,0.8886997957794418
1134,0.030565895973498174,0.8886997957794418
1135,0.030565895973498174,0.8890401633764465
1136,0.03063419965165124,0.8890401633764465
1137,0.03063419965165124,0.8893805309734514
1138,0.031078173559646188,0.8893805309734514
1139,0.031078173559646188,0.8897208985704561
1140,0.031146477237799255,0.8897208985704561
1141,0.031146477237799255,0.8900612661674608
1142,0.03138554011133499,0.8900612661674608
1143,0.03138554011133499,0.8904016337644656
1144,0.0314367678699498,0.8904016337644656
1145,0.0314367678699498,0.8907420013614704
1146,0.03184658993886821,0.8907420013614704
1147,0.03184658993886821,0.8910823689584751
1148,0.03186366585840648,0.8910823689584751
1149,0.03186366585840648,0.8914227365554799
1150,0.031931969536559544,0.8914227365554799
1151,0.031931969536559544,0.8924438393464942
1152,0.03242717120316929,0.8924438393464942
1153,0.03242717120316929,0.892784206943499
1154,0.032666234076705034,0.892784206943499
1155,0.032666234076705034,0.8931245745405038
1156,0.03281991735254944,0.8931245745405038
1157,0.03281991735254944,0.8934649421375085
1158,0.032871145111164235,0.8934649421375085
1159,0.032871145111164235,0.8938053097345132
1160,0.032973600628393836,0.8938053097345132
1161,0.032973600628393836,0.8941456773315181
1162,0.03305898022608517,0.8941456773315181
1163,0.03305898022608517,0.8944860449285228
1164,0.03309313206516171,0.8944860449285228
1165,0.03309313206516171,0.8948264125255275
1166,0.03331511901915918,0.8948264125255275
1167,0.03331511901915918,0.8951667801225324
1168,0.03334927085823572,0.8951667801225324
1169,0.03334927085823572,0.8955071477195371
1170,0.03375909292715413,0.8955071477195371
1171,0.03375909292715413,0.8958475153165418
1172,0.0339298521225368,0.8958475153165418
1173,0.0339298521225368,0.8961878829135467
1174,0.03410061131791947,0.8961878829135467
1175,0.03410061131791947,0.8965282505105514
1176,0.03435675011099348,0.8965282505105514
1177,0.03435675011099348,0.8968686181075561
1178,0.03451043338683788,0.8968686181075561
1179,0.03451043338683788,0.897208985704561
1180,0.03462996482360575,0.897208985704561
1181,0.03462996482360575,0.8975493533015657
1182,0.03481779993852669,0.8975493533015657
1183,0.03481779993852669,0.8978897208985704
1184,0.03500563505344763,0.8978897208985704
1185,0.03500563505344763,0.8982300884955752
1186,0.0353300775246747,0.8982300884955752
1187,0.0353300775246747,0.89857045609258
1188,0.03546668488098084,0.89857045609258
1189,0.03546668488098084,0.8989108236895847
1190,0.03556914039821044,0.8989108236895847
1191,0.03556914039821044,0.8992511912865895
1192,0.035603292237286976,0.8992511912865895
1193,0.035603292237286976,0.8995915588835943
1194,0.035910658788975786,0.8995915588835943
1195,0.035910658788975786,0.899931926480599
1196,0.036013114306205386,0.899931926480599
1197,0.036013114306205386,0.9002722940776038
1198,0.03606434206482019,0.9002722940776038
1199,0.03606434206482019,0.9009530292716134
1200,0.036115569823434994,0.9009530292716134
1201,0.036115569823434994,0.9012933968686181
1202,0.036508315972815134,0.9012933968686181
1203,0.036508315972815134,0.9016337644656228
1204,0.03679860660496568,0.9016337644656228
1205,0.03679860660496568,0.9019741320626277
1206,0.03683275844404221,0.9019741320626277
1207,0.03683275844404221,0.9023144996596324
1208,0.036935213961271814,0.9023144996596324
1209,0.036935213961271814,0.9026548672566371
1210,0.03724258051296062,0.9026548672566371
1211,0.03724258051296062,0.902995234853642
1212,0.03725965643249889,0.902995234853642
1213,0.03725965643249889,0.9036759700476514
1214,0.03732796011065196,0.9036759700476514
1215,0.03732796011065196,0.9040163376446563
1216,0.03737918786926676,0.9040163376446563
1217,0.03737918786926676,0.904356705241661
1218,0.037481643386496365,0.904356705241661
1219,0.037481643386496365,0.9046970728386657
1220,0.0376182507428025,0.9046970728386657
1221,0.0376182507428025,0.9050374404356705
1222,0.03807930057033571,0.9050374404356705
1223,0.03807930057033571,0.9053778080326753
1224,0.03833543936340972,0.9053778080326753
1225,0.03833543936340972,0.90571817562968
1226,0.03864280591509853,0.90571817562968
1227,0.03864280591509853,0.9060585432266848
1228,0.03893309654724907,0.9060585432266848
1229,0.03893309654724907,0.9063989108236896
1230,0.03961613332877976,0.9063989108236896
1231,0.03961613332877976,0.9067392784206944
1232,0.039803968443700696,0.9067392784206944
1233,0.039803968443700696,0.9070796460176991
1234,0.04002595539769817,0.9070796460176991
1235,0.04002595539769817,0.9074200136147039
1236,0.04058946074246098,0.9074200136147039
1237,0.04058946074246098,0.9077603812117087
1238,0.04106758648953246,0.9077603812117087
1239,0.04106758648953246,0.9081007488087134
1240,0.0411529660872238,0.9081007488087134
1241,0.0411529660872238,0.9084411164057182
1242,0.0414091048802978,0.9084411164057182
1243,0.0414091048802978,0.908781484002723
1244,0.04142618079983607,0.908781484002723
1245,0.04142618079983607,0.9091218515997277
1246,0.04152863631706567,0.9091218515997277
1247,0.04152863631706567,0.9094622191967324
1248,0.041665243673371814,0.9094622191967324
1249,0.041665243673371814,0.9098025867937373
1250,0.0425019637307469,0.9098025867937373
1251,0.0425019637307469,0.910142954390742
1252,0.042723950684744376,0.910142954390742
1253,0.042723950684744376,0.9104833219877467
1254,0.04282640620197398,0.9104833219877467
1255,0.04282640620197398,0.9108236895847516
1256,0.04321915235135412,0.9108236895847516
1257,0.04321915235135412,0.9111640571817563
1258,0.043833885454731734,0.9111640571817563
1259,0.043833885454731734,0.911504424778761
1260,0.04390218913288481,0.911504424778761
1261,0.04390218913288481,0.9118447923757659
1262,0.044277859362726685,0.9118447923757659
1263,0.044277859362726685,0.9121851599727706
1264,0.044380314879956285,0.9121851599727706
1265,0.044380314879956285,0.9125255275697753
1266,0.04444861855810935,0.9125255275697753
1267,0.04444861855810935,0.9128658951667801
1268,0.04463645367303029,0.9128658951667801
1269,0.04463645367303029,0.9132062627637849
1270,0.04482428878795123,0.9132062627637849
1271,0.04482428878795123,0.9135466303607896
1272,0.0448413647074895,0.9135466303607896
1273,0.0448413647074895,0.9138869979577944
1274,0.045524401489020185,0.9138869979577944
1275,0.045524401489020185,0.9142273655547992
1276,0.04584884396024726,0.9142273655547992
1277,0.04584884396024726,0.914567733151804
1278,0.04590007171886206,0.914567733151804
1279,0.04590007171886206,0.9149081007488087
1280,0.046053754994706465,0.9149081007488087
1281,0.046053754994706465,0.9152484683458135
1282,0.046258666029165674,0.9152484683458135
1283,0.046258666029165674,0.9155888359428183
1284,0.04774427102899491,0.9155888359428183
1285,0.04774427102899491,0.915929203539823
1286,0.04786380246576278,0.915929203539823
1287,0.04786380246576278,0.9162695711368277
1288,0.04794918206345412,0.9162695711368277
1289,0.04794918206345412,0.9166099387338326
1290,0.04849561148867867,0.9166099387338326
1291,0.04849561148867867,0.9169503063308373
1292,0.04875175028175267,0.9169503063308373
1293,0.04875175028175267,0.9176310415248469
1294,0.04880297804036748,0.9176310415248469
1295,0.04880297804036748,0.9179714091218516
1296,0.04904204091390321,0.9179714091218516
1297,0.04904204091390321,0.9186521443158612
1298,0.04953724258051296,0.9186521443158612
1299,0.04953724258051296,0.9189925119128659
1300,0.0497250776954339,0.9189925119128659
1301,0.0497250776954339,0.9193328795098706
1302,0.049912912810354836,0.9193328795098706
1303,0.049912912810354836,0.9196732471068755
1304,0.049929988729893106,0.9196732471068755
1305,0.049929988729893106,0.9200136147038802
1306,0.05042519039650285,0.9200136147038802
1307,0.05042519039650285,0.9203539823008849
1308,0.05045934223557939,0.9203539823008849
1309,0.05045934223557939,0.9206943498978897
1310,0.050647177350500325,0.9206943498978897
1311,0.050647177350500325,0.9210347174948945
1312,0.051074075338957005,0.9210347174948945
1313,0.051074075338957005,0.9213750850918992
1314,0.05163758068371982,0.9213750850918992
1315,0.05163758068371982,0.921715452688904
1316,0.052303541545712234,0.921715452688904
1317,0.052303541545712234,0.9223961878829136
1318,0.052423072982480105,0.9223961878829136
1319,0.052423072982480105,0.9227365554799183
1320,0.053037806085857724,0.9227365554799183
1321,0.053037806085857724,0.9230769230769231
1322,0.05308903384447253,0.9230769230769231
1323,0.05308903384447253,0.9237576582709326
1324,0.053157337522625595,0.9237576582709326
1325,0.053157337522625595,0.9240980258679373
1326,0.05329394487893173,0.9240980258679373
1327,0.05329394487893173,0.9244383934649422
1328,0.05377207062600321,0.9244383934649422
1329,0.05377207062600321,0.9247787610619469
1330,0.05433557597076603,0.9247787610619469
1331,0.05433557597076603,0.9251191286589516
1332,0.0547112462006079,0.9251191286589516
1333,0.0547112462006079,0.9254594962559565
1334,0.05529182746490899,0.9254594962559565
1335,0.05529182746490899,0.9261402314499659
1336,0.05553089033844472,0.9261402314499659
1337,0.05553089033844472,0.9264805990469708
1338,0.055872408729210066,0.9264805990469708
1339,0.055872408729210066,0.9268209666439755
1340,0.05657252143027902,0.9268209666439755
1341,0.05657252143027902,0.9271613342409802
1342,0.05682866022335303,0.9271613342409802
1343,0.05682866022335303,0.927501701837985
1344,0.0569481916601209,0.927501701837985
1345,0.0569481916601209,0.9278420694349898
1346,0.0570506471773505,0.9278420694349898
1347,0.0570506471773505,0.9281824370319945
1348,0.05740924148765411,0.9281824370319945
1349,0.05740924148765411,0.9285228046289993
1350,0.05793859499334039,0.9285228046289993
1351,0.05793859499334039,0.9288631722260041
1352,0.05831426522318227,0.9288631722260041
1353,0.05831426522318227,0.9292035398230089
1354,0.05886069464840682,0.9292035398230089
1355,0.05886069464840682,0.9295439074200136
1356,0.059116833441480825,0.9295439074200136
1357,0.059116833441480825,0.9298842750170184
1358,0.059424199993169634,0.9298842750170184
1359,0.059424199993169634,0.9302246426140232
1360,0.05945835183224617,0.9302246426140232
1361,0.05945835183224617,0.9305650102110279
1362,0.05969741470578191,0.9305650102110279
1363,0.05969741470578191,0.9309053778080327
1364,0.05997062941839418,0.9309053778080327
1365,0.05997062941839418,0.9312457454050375
1366,0.06082442539530754,0.9312457454050375
1367,0.06082442539530754,0.9315861130020422
1368,0.06092688091253714,0.9315861130020422
1369,0.06092688091253714,0.9319264805990469
1370,0.06176360096991223,0.9319264805990469
1371,0.06176360096991223,0.9322668481960518
1372,0.061831904648065296,0.9322668481960518
1373,0.061831904648065296,0.9326072157930565
1374,0.06258324510774906,0.9326072157930565
1375,0.06258324510774906,0.9329475833900612
1376,0.06261739694682558,0.9329475833900612
1377,0.06261739694682558,0.9332879509870661
1378,0.06336873740650933,0.9332879509870661
1379,0.06336873740650933,0.9336283185840708
1380,0.06348826884327721,0.9336283185840708
1381,0.06348826884327721,0.9339686861810755
1382,0.06468358321095591,0.9339686861810755
1383,0.06468358321095591,0.9343090537780804
1384,0.06523001263618046,0.9343090537780804
1385,0.06523001263618046,0.9346494213750851
1386,0.0655715310269458,0.9346494213750851
1387,0.0655715310269458,0.9349897889720898
1388,0.06867934838291041,0.9349897889720898
1389,0.06867934838291041,0.9353301565690946
1390,0.06903794269321403,0.9353301565690946
1391,0.06903794269321403,0.9356705241660994
1392,0.0691062463713671,0.9356705241660994
1393,0.0691062463713671,0.9360108917631041
1394,0.0693111574058263,0.9360108917631041
1395,0.0693111574058263,0.9363512593601089
1396,0.06956729619890031,0.9363512593601089
1397,0.06956729619890031,0.9366916269571137
1398,0.06972097947474472,0.9366916269571137
1399,0.06972097947474472,0.9370319945541185
1400,0.06999419418735699,0.9370319945541185
1401,0.06999419418735699,0.9373723621511232
1402,0.07006249786551005,0.9373723621511232
1403,0.07006249786551005,0.937712729748128
1404,0.07054062361258154,0.937712729748128
1405,0.07054062361258154,0.9380530973451328
1406,0.07086506608380862,0.9380530973451328
1407,0.07086506608380862,0.9383934649421375
1408,0.07106997711826782,0.9383934649421375
1409,0.07106997711826782,0.9387338325391422
1410,0.07118950855503568,0.9387338325391422
1411,0.07118950855503568,0.9390742001361471
1412,0.0714456473481097,0.9390742001361471
1413,0.0714456473481097,0.9394145677331518
1414,0.07166763430210717,0.9394145677331518
1415,0.07166763430210717,0.9397549353301565
1416,0.07168471022164544,0.9397549353301565
1417,0.07168471022164544,0.9400953029271614
1418,0.07245312660086746,0.9400953029271614
1419,0.07245312660086746,0.9404356705241661
1420,0.07252143027902053,0.9404356705241661
1421,0.07252143027902053,0.9407760381211708
1422,0.07325569481916601,0.9407760381211708
1423,0.07325569481916601,0.9411164057181757
1424,0.07340937809501041,0.9411164057181757
1425,0.07340937809501041,0.9414567733151804
1426,0.07371674464669922,0.9414567733151804
1427,0.07371674464669922,0.9417971409121851
1428,0.07407533895700283,0.9417971409121851
1429,0.07407533895700283,0.94213750850919
1430,0.07422902223284723,0.94213750850919
1431,0.07422902223284723,0.9424778761061947
1432,0.0742460981523855,0.9424778761061947
1433,0.0742460981523855,0.9431586113002042
1434,0.07506574229022232,0.9431586113002042
1435,0.07506574229022232,0.943498978897209
1436,0.07520234964652847,0.943498978897209
1437,0.07520234964652847,0.9438393464942137
1438,0.07532188108329634,0.9438393464942137
1439,0.07532188108329634,0.9441797140912185
1440,0.0754414125200642,0.9441797140912185
1441,0.0754414125200642,0.9445200816882233
1442,0.07550971619821728,0.9445200816882233
1443,0.07550971619821728,0.944860449285228
1444,0.07600491786482702,0.944860449285228
1445,0.07600491786482702,0.9452008168822328
1446,0.07644889177282196,0.9452008168822328
1447,0.07644889177282196,0.9455411844792376
1448,0.07723438407158226,0.9455411844792376
1449,0.07723438407158226,0.9458815520762424
1450,0.07728561183019705,0.9458815520762424
1451,0.07728561183019705,0.9462219196732471
1452,0.07733683958881185,0.9462219196732471
1453,0.07733683958881185,0.9465622872702518
1454,0.07757590246234759,0.9465622872702518
1455,0.07757590246234759,0.9469026548672567
1456,0.07813940780711041,0.9469026548672567
1457,0.07813940780711041,0.9472430224642614
1458,0.07878829274956456,0.9472430224642614
1459,0.07878829274956456,0.9475833900612661
1460,0.07907858338171511,0.9475833900612661
1461,0.07907858338171511,0.947923757658271
1462,0.07969331648509272,0.947923757658271
1463,0.07969331648509272,0.9482641252552757
1464,0.07998360711724327,0.9482641252552757
1465,0.07998360711724327,0.9486044928522804
1466,0.08049588470339128,0.9486044928522804
1467,0.08049588470339128,0.9489448604492853
1468,0.08059834022062089,0.9489448604492853
1469,0.08059834022062089,0.94928522804629
1470,0.0813155288412281,0.94928522804629
1471,0.0813155288412281,0.9496255956432947
1472,0.0815204398756873,0.9496255956432947
1473,0.0815204398756873,0.9499659632402995
1474,0.08201564154229705,0.9499659632402995
1475,0.08201564154229705,0.9503063308373043
1476,0.08237423585260066,0.9503063308373043
1477,0.08237423585260066,0.950646698434309
1478,0.08298896895597828,0.950646698434309
1479,0.08298896895597828,0.9509870660313138
1480,0.08305727263413135,0.9509870660313138
1481,0.08305727263413135,0.9513274336283186
1482,0.08310850039274614,0.9513274336283186
1483,0.08310850039274614,0.9516678012253234
1484,0.08363785389843242,0.9516678012253234
1485,0.08363785389843242,0.9520081688223281
1486,0.08368908165704723,0.9520081688223281
1487,0.08368908165704723,0.9523485364193329
1488,0.08572111608210102,0.9523485364193329
1489,0.08572111608210102,0.9526889040163377
1490,0.08592602711656022,0.9526889040163377
1491,0.08592602711656022,0.9530292716133424
1492,0.08643830470270825,0.9530292716133424
1493,0.08643830470270825,0.9533696392103471
1494,0.08660906389809091,0.9533696392103471
1495,0.08660906389809091,0.953710006807352
1496,0.08747993579454254,0.953710006807352
1497,0.08747993579454254,0.9540503744043567
1498,0.08763361907038694,0.9540503744043567
1499,0.08763361907038694,0.9543907420013614
1500,0.08771899866807828,0.9543907420013614
1501,0.08771899866807828,0.9547311095983663
1502,0.08800928930022882,0.9547311095983663
1503,0.08800928930022882,0.955071477195371
1504,0.08812882073699668,0.955071477195371
1505,0.08812882073699668,0.9554118447923757
1506,0.08852156688637683,0.9554118447923757
1507,0.08852156688637683,0.9557522123893806
1508,0.08857279464499163,0.9557522123893806
1509,0.08857279464499163,0.9560925799863853
1510,0.08910214815067792,0.9560925799863853
1511,0.08910214815067792,0.95643294758339
1512,0.09157815648372665,0.95643294758339
1513,0.09157815648372665,0.9567733151803949
1514,0.09161230832280318,0.9567733151803949
1515,0.09188552303541546,0.9567733151803949
1516,0.09188552303541546,0.9571136827773996
1517,0.09304668556401763,0.9571136827773996
1518,0.09304668556401763,0.9574540503744043
1519,0.09338820395478296,0.9574540503744043
1520,0.09338820395478296,0.9577944179714091
1521,0.09396878521908404,0.9577944179714091
1522,0.09396878521908404,0.9581347855684139
1523,0.094412759127079,0.9581347855684139
1524,0.094412759127079,0.9584751531654186
1525,0.09451521464430859,0.9584751531654186
1526,0.09451521464430859,0.9588155207624234
1527,0.09531778286260716,0.9588155207624234
1528,0.09531778286260716,0.9591558883594282
1529,0.0956080734947577,0.9591558883594282
1530,0.0956080734947577,0.959496255956433
1531,0.09634233803490318,0.959496255956433
1532,0.09634233803490318,0.9598366235534377
1533,0.09712783033366347,0.9598366235534377
1534,0.09712783033366347,0.9601769911504425
1535,0.09769133567842628,0.9601769911504425
1536,0.09769133567842628,0.9605173587474473
1537,0.09868173901164577,0.9605173587474473
1538,0.09868173901164577,0.960857726344452
1539,0.09898910556333458,0.960857726344452
1540,0.09898910556333458,0.9611980939414567
1541,0.09910863700010246,0.9611980939414567
1542,0.09910863700010246,0.9615384615384616
1543,0.099398927632253,0.9615384615384616
1544,0.099398927632253,0.9618788291354663
1545,0.09956968682763567,0.9618788291354663
1546,0.09956968682763567,0.962219196732471
1547,0.09970629418394181,0.962219196732471
1548,0.09970629418394181,0.9625595643294759
1549,0.09974044602301833,0.9625595643294759
1550,0.09974044602301833,0.9628999319264806
1551,0.09994535705747755,0.9628999319264806
1552,0.09994535705747755,0.9632402995234853
1553,0.10127727878146238,0.9632402995234853
1554,0.10127727878146238,0.9635806671204902
1555,0.10158464533315119,0.9635806671204902
1556,0.10158464533315119,0.9639210347174949
1557,0.10172125268945732,0.9639210347174949
1558,0.10172125268945732,0.9642614023144996
1559,0.10207984699976094,0.9642614023144996
1560,0.10207984699976094,0.9646017699115044
1561,0.10445339981558006,0.9646017699115044
1562,0.10445339981558006,0.9649421375085092
1563,0.10493152556265155,0.9649421375085092
1564,0.10493152556265155,0.9652825051055139
1565,0.10616099176940678,0.9652825051055139
1566,0.10616099176940678,0.9656228727025187
1567,0.10624637136709812,0.9656228727025187
1568,0.10624637136709812,0.9659632402995235
1569,0.10655373791878693,0.9659632402995235
1570,0.10655373791878693,0.9663036078965282
1571,0.10805641883815444,0.9663036078965282
1572,0.10805641883815444,0.966643975493533
1573,0.11143745090673132,0.966643975493533
1574,0.11143745090673132,0.9673247106875426
1575,0.11167651378026706,0.9673247106875426
1576,0.11167651378026706,0.9676650782845473
1577,0.11300843550425191,0.9676650782845473
1578,0.11300843550425191,0.9680054458815521
1579,0.11312796694101977,0.9680054458815521
1580,0.11312796694101977,0.9683458134785569
1581,0.11328165021686418,0.9683458134785569
1582,0.11328165021686418,0.9686861810755616
1583,0.11469895153854034,0.9686861810755616
1584,0.11469895153854034,0.9690265486725663
1585,0.11522830504422663,0.9690265486725663
1586,0.11522830504422663,0.9693669162695712
1587,0.11570643079129811,0.9693669162695712
1588,0.11570643079129811,0.9697072838665759
1589,0.11621870837744612,0.9697072838665759
1590,0.11621870837744612,0.9700476514635806
1591,0.11688466923943855,0.9700476514635806
1592,0.11688466923943855,0.9703880190605855
1593,0.11731156722789522,0.9703880190605855
1594,0.11731156722789522,0.9707283866575902
1595,0.11872886854957139,0.9707283866575902
1596,0.11876302038864793,0.9707283866575902
1597,0.11937775349202555,0.9707283866575902
1598,0.11937775349202555,0.9710687542545949
1599,0.11987295515863529,0.9710687542545949
1600,0.11987295515863529,0.9714091218515998
1601,0.1200266384344797,0.9714091218515998
1602,0.1200266384344797,0.9717494894486045
1603,0.1200778661930945,0.9717494894486045
1604,0.1200778661930945,0.9720898570456092
1605,0.12065844745739558,0.9720898570456092
1606,0.12065844745739558,0.972430224642614
1607,0.12096581400908439,0.972430224642614
1608,0.12096581400908439,0.9727705922396188
1609,0.12210990061814829,0.9727705922396188
1610,0.12210990061814829,0.9731109598366235
1611,0.12224650797445442,0.9731109598366235
1612,0.12224650797445442,0.9734513274336283
1613,0.12245141900891363,0.9734513274336283
1614,0.12245141900891363,0.9737916950306331
1615,0.12357842969843925,0.9737916950306331
1616,0.12357842969843925,0.9741320626276379
1617,0.1236125815375158,0.9741320626276379
1618,0.1236125815375158,0.9744724302246426
1619,0.12405655544551074,0.9744724302246426
1620,0.12405655544551074,0.9748127978216474
1621,0.12409070728458728,0.9748127978216474
1622,0.12409070728458728,0.9751531654186522
1623,0.12438099791673782,0.9751531654186522
1624,0.12441514975581434,0.9751531654186522
1625,0.12494450326150063,0.9751531654186522
1626,0.12494450326150063,0.9754935330156569
1627,0.1256275400430313,0.9754935330156569
1628,0.1256275400430313,0.9758339006126616
1629,0.12593490659472012,0.9758339006126616
1630,0.12593490659472012,0.9761742682096665
1631,0.1262593490659472,0.9761742682096665
1632,0.1262593490659472,0.9765146358066712
1633,0.12627642498548547,0.9765146358066712
1634,0.12627642498548547,0.9768550034036759
1635,0.12962330521498583,0.9768550034036759
1636,0.12962330521498583,0.9771953710006808
1637,0.13105768245620025,0.9771953710006808
1638,0.13105768245620025,0.9775357385976855
1639,0.13247498377787645,0.9775357385976855
1640,0.13247498377787645,0.9778761061946902
1641,0.1331750964789454,0.9778761061946902
1642,0.1331750964789454,0.9782164737916951
1643,0.13382398142139953,0.9782164737916951
1644,0.13382398142139953,0.9785568413886998
1645,0.1339947406167822,0.9785568413886998
1646,0.1339947406167822,0.9788972089857045
1647,0.14342064820190567,0.9788972089857045
1648,0.14342064820190567,0.9792375765827094
1649,0.14384754619036236,0.9792375765827094
1650,0.14384754619036236,0.9795779441797141
1651,0.146255250845258,0.9795779441797141
1652,0.146255250845258,0.9799183117767188
1653,0.14642601004064068,0.9799183117767188
1654,0.14646016187971722,0.9799183117767188
1655,0.14722857825893923,0.9799183117767188
1656,0.14722857825893923,0.9802586793737236
1657,0.14948259963799052,0.9802586793737236
1658,0.14948259963799052,0.9805990469707284
1659,0.15081452136197535,0.9805990469707284
1660,0.15081452136197535,0.9809394145677331
1661,0.15101943239643456,0.9809394145677331
1662,0.15101943239643456,0.9812797821647379
1663,0.1551005771660804,0.9812797821647379
1664,0.1551005771660804,0.9816201497617427
1665,0.15636419521191217,0.9816201497617427
1666,0.15636419521191217,0.9819605173587475
1667,0.15706430791298112,0.9819605173587475
1668,0.15709845975205766,0.9819605173587475
1669,0.15749120590143778,0.9819605173587475
1670,0.15749120590143778,0.9823008849557522
1671,0.1590451145794201,0.9823008849557522
1672,0.1590451145794201,0.982641252552757
1673,0.16121375636078003,0.982641252552757
1674,0.16121375636078003,0.9829816201497618
1675,0.16223831153307605,0.9829816201497618
1676,0.16223831153307605,0.9833219877467665
1677,0.1623236911307674,0.9833219877467665
1678,0.1623236911307674,0.9836623553437712
1679,0.16314333526860422,0.9836623553437712
1680,0.16314333526860422,0.9840027229407761
1681,0.16459478842935693,0.9840027229407761
1682,0.16459478842935693,0.9843430905377808
1683,0.1646118643488952,0.9843430905377808
1684,0.1646118643488952,0.9846834581347855
1685,0.16500461049827533,0.9846834581347855
1686,0.16500461049827533,0.9850238257317904
1687,0.16519244561319626,0.9850238257317904
1688,0.16519244561319626,0.9853641933287951
1689,0.16548273624534682,0.9853641933287951
1690,0.16548273624534682,0.9857045609257998
1691,0.16744646699224752,0.9857045609257998
1692,0.16744646699224752,0.9860449285228047
1693,0.16771968170485982,0.9860449285228047
1694,0.16771968170485982,0.9863852961198094
1695,0.16922236262422732,0.9863852961198094
1696,0.16922236262422732,0.9867256637168141
1697,0.17299614084218434,0.9867256637168141
1698,0.17303029268126088,0.9867256637168141
1699,0.17622348963491685,0.9867256637168141
1700,0.17622348963491685,0.9870660313138189
1701,0.17760663911751648,0.9870660313138189
1702,0.17760663911751648,0.9874063989108237
1703,0.17787985383012875,0.9874063989108237
1704,0.17787985383012875,0.9877467665078284
1705,0.1788873330828865,0.9877467665078284
1706,0.1788873330828865,0.9880871341048332
1707,0.1797240531402616,0.9880871341048332
1708,0.1797240531402616,0.988427501701838
1709,0.1846589938868208,0.988427501701838
1710,0.1846589938868208,0.9887678692988427
1711,0.18759605204740276,0.9887678692988427
1712,0.18759605204740276,0.9891082368958475
1713,0.18817663331170384,0.9891082368958475
1714,0.18817663331170384,0.9894486044928523
1715,0.19743178170144463,0.9894486044928523
1716,0.19743178170144463,0.989788972089857
1717,0.20166660974693487,0.989788972089857
1718,0.20166660974693487,0.9901293396868618
1719,0.204040162562754,0.9901293396868618
1720,0.204040162562754,0.9904697072838666
1721,0.20854820532085652,0.9904697072838666
1722,0.20854820532085652,0.9908100748808714
1723,0.20911171066561934,0.9908100748808714
1724,0.20911171066561934,0.9911504424778761
1725,0.21309039991803558,0.9911504424778761
1726,0.21312455175711212,0.9911504424778761
1727,0.21804241658413306,0.9911504424778761
1728,0.21807656842320958,0.9911504424778761
1729,0.21850346641166626,0.9911504424778761
1730,0.21850346641166626,0.9914908100748808
1731,0.2246678733649807,0.9914908100748808
1732,0.22470202520405724,0.9914908100748808
1733,0.22521430279020524,0.9914908100748808
1734,0.22521430279020524,0.9918311776718857
1735,0.22984187698507563,0.9918311776718857
1736,0.22984187698507563,0.9921715452688904
1737,0.23586967658208394,0.9921715452688904
1738,0.23586967658208394,0.9925119128658951
1739,0.24266589255831428,0.9925119128658951
1740,0.24266589255831428,0.9928522804629
1741,0.24442471227075577,0.9928522804629
1742,0.2444588641098323,0.9928522804629
1743,0.24500529353505687,0.9928522804629
1744,0.24500529353505687,0.9931926480599047
1745,0.24591031727058502,0.9931926480599047
1746,0.24594446910966156,0.9931926480599047
1747,0.25091356169529727,0.9931926480599047
1748,0.25091356169529727,0.9935330156569094
1749,0.2532529626720399,0.9935330156569094
1750,0.2532529626720399,0.9938733832539143
1751,0.2535603292237287,0.9938733832539143
1752,0.2535603292237287,0.994213750850919
1753,0.2556777432464738,0.994213750850919
1754,0.25571189508555037,0.994213750850919
1755,0.26023701376319114,0.994213750850919
1756,0.2602711656022677,0.994213750850919
1757,0.2646938287626789,0.994213750850919
1758,0.2646938287626789,0.9945541184479237
1759,0.26506949899252075,0.9945541184479237
1760,0.26510365083159726,0.9945541184479237
1761,0.2669820019808067,0.9945541184479237
1762,0.2669820019808067,0.9948944860449285
1763,0.27003859157815646,0.9948944860449285
1764,0.27007274341723303,0.9948944860449285
1765,0.27212185376182507,0.9948944860449285
1766,0.27212185376182507,0.9952348536419333
1767,0.27275366278474095,0.9952348536419333
1768,0.27275366278474095,0.995575221238938
1769,0.27382944571565176,0.995575221238938
1770,0.27386359755472833,0.995575221238938
1771,0.2815306854274103,0.995575221238938
1772,0.2815306854274103,0.9959155888359428
1773,0.2831699737030839,0.9959155888359428
1774,0.2831699737030839,0.9962559564329476
1775,0.289436836173628,0.9962559564329476
1776,0.289436836173628,0.9965963240299524
1777,0.29582323008093986,0.9965963240299524
1778,0.29582323008093986,0.9969366916269571
1779,0.3149311840442608,0.9969366916269571
1780,0.3149653358833373,0.9969366916269571
1781,0.3226836515146341,0.9969366916269571
1782,0.3227178033537106,0.9969366916269571
1783,0.32867729927256584,0.9969366916269571
1784,0.32871145111164235,0.9969366916269571
1785,0.33501246542126295,0.9969366916269571
1786,0.33504661726033946,0.9969366916269571
1787,0.3506198558792391,0.9969366916269571
1788,0.3506540077183156,0.9969366916269571
1789,0.35263481438475464,0.9969366916269571
1790,0.35263481438475464,0.9972770592239619
1791,0.3627779105904853,0.9972770592239619
1792,0.3627779105904853,0.9976174268209667
1793,0.36337556777432467,0.9976174268209667
1794,0.36337556777432467,0.9979577944179714
1795,0.37377480277312936,0.9979577944179714
1796,0.37380895461220587,0.9979577944179714
1797,0.383149482599638,0.9979577944179714
1798,0.383149482599638,0.9982981620149761
1799,0.3873501588060517,0.9982981620149761
1800,0.38738431064512824,0.9982981620149761
1801,0.38893821932311057,0.9982981620149761
1802,0.3889723711621871,0.9982981620149761
1803,0.3926607697824528,0.9982981620149761
1804,0.3926949216215293,0.9982981620149761
1805,0.4048871281718521,0.9982981620149761
1806,0.4049212800109286,0.9982981620149761
1807,0.41048802978040366,0.9982981620149761
1808,0.41052218161948023,0.9982981620149761
1809,0.41381783409036577,0.9982981620149761
1810,0.4138519859294423,0.9982981620149761
1811,0.44349578224787406,0.9982981620149761
1812,0.44349578224787406,0.998638529611981
1813,0.45189713466070147,0.998638529611981
1814,0.45193128649977804,0.998638529611981
1815,0.45801031385540114,0.998638529611981
1816,0.45804446569447765,0.998638529611981
1817,0.4646357706362488,0.998638529611981
1818,0.4646699224753253,0.998638529611981
1819,0.4713295310952495,0.998638529611981
1820,0.471363682934326,0.998638529611981
1821,0.47585464977289027,0.998638529611981
1822,0.4758888016119668,0.998638529611981
1823,0.4803626925309928,0.998638529611981
1824,0.48043099620914587,0.998638529611981
1825,0.4829582323008094,0.998638529611981
1826,0.4829582323008094,0.9989788972089857
1827,0.49680680304634406,0.9989788972089857
1828,0.49684095488542057,0.9989788972089857
1829,0.49858269867832383,0.9989788972089857
1830,0.49861685051740035,0.9989788972089857
1831,0.5137802670673816,0.9989788972089857
1832,0.5138144189064581,0.9989788972089857
1833,0.5188176633311704,0.9989788972089857
1834,0.5188518151702469,0.9989788972089857
1835,0.5236672244800382,0.9989788972089857
1836,0.5236672244800382,0.9993192648059904
1837,0.5248113110891022,0.9993192648059904
1838,0.5248454629281787,0.9993192648059904
1839,0.5261090809740104,0.9993192648059904
1840,0.526143232813087,0.9993192648059904
1841,0.5304805163758068,0.9993192648059904
1842,0.5304805163758068,0.9996596324029953
1843,0.5389330965472491,0.9996596324029953
1844,0.5389672483863256,0.9996596324029953
1845,0.5406065366619992,0.9996596324029953
1846,0.5406406885010758,0.9996596324029953
1847,0.5619002083262183,0.9996596324029953
1848,0.5619343601652949,0.9996596324029953
1849,0.5642396093029609,0.9996596324029953
1850,0.5642737611420375,0.9996596324029953
1851,0.5764147399337455,0.9996596324029953
1852,0.576448891772822,0.9996596324029953
1853,0.581879034185991,0.9996596324029953
1854,0.5819131860250675,0.9996596324029953
1855,0.5887606297599126,0.9996596324029953
1856,0.5887947815989891,0.9996596324029953
1857,0.591407397288344,0.9996596324029953
1858,0.5914415491274205,0.9996596324029953
1859,0.5935248113110891,0.9996596324029953
1860,0.5935589631501657,0.9996596324029953
1861,0.6094054164816776,0.9996596324029953
1862,0.6094395683207541,0.9996596324029953
1863,0.6311942898125064,0.9996596324029953
1864,0.631228441651583,0.9996596324029953
1865,0.6570984597520576,0.9996596324029953
1866,0.6571326115911342,0.9996596324029953
1867,0.65904511457942,0.9996596324029953
1868,0.6590792664184967,0.9996596324029953
1869,0.6637409924524436,0.9996596324029953
1870,0.6637751442915201,0.9996596324029953
1871,0.6775212595198251,0.9996596324029953
1872,0.6775554113589016,0.9996596324029953
1873,0.679877736416106,0.9996596324029953
1874,0.6799118882551826,0.9996596324029953
1875,0.6848126771626653,0.9996596324029953
1876,0.6848468290017418,0.9996596324029953
1877,0.6879546463577063,0.9996596324029953
1878,0.6879887981967829,0.9996596324029953
1879,0.6937604590007171,0.9996596324029953
1880,0.6937946108397938,0.9996596324029953
1881,0.7166421911819951,0.9996596324029953
1882,0.7166763430210716,0.9996596324029953
1883,0.7194597179058092,0.9996596324029953
1884,0.7194938697448857,0.9996596324029953
1885,0.7204159693999522,0.9996596324029953
1886,0.7204501212390287,0.9996596324029953
1887,0.7237628496294526,0.9996596324029953
1888,0.7237970014685291,0.9996596324029953
1889,0.7240189884225265,0.9996596324029953
1890,0.7240531402616031,0.9996596324029953
1891,0.7251289231925139,0.9996596324029953
1892,0.7251630750315905,0.9996596324029953
1893,0.7357842969843926,0.9996596324029953
1894,0.7358184488234691,0.9996596324029953
1895,0.7370479150302244,0.9996596324029953
1896,0.7370820668693009,0.9996596324029953
1897,0.7436562958915338,0.9996596324029953
1898,0.7436904477306103,0.9996596324029953
1899,0.745210204569516,0.9996596324029953
1900,0.7452443564085927,0.9996596324029953
1901,0.748847375431167,0.9996596324029953
1902,0.7488815272702435,0.9996596324029953
1903,0.7500426897988457,0.9996596324029953
1904,0.7500768416379222,0.9996596324029953
1905,0.7541750623271063,0.9996596324029953
1906,0.7542092141661828,0.9996596324029953
1907,0.7751442915200983,0.9996596324029953
1908,0.7751784433591749,0.9996596324029953
1909,0.780232915542502,0.9996596324029953
1910,0.7802670673815785,0.9996596324029953
1911,0.7841262251972269,0.9996596324029953
1912,0.7841603770363034,0.9996596324029953
1913,0.7939961066903453,0.9996596324029953
1914,0.7940302585294218,0.9996596324029953
1915,0.7998872989310475,0.9996596324029953
1916,0.799921450770124,0.9996596324029953
1917,0.8070250332980431,0.9996596324029953
1918,0.8070591851371196,0.9996596324029953
1919,0.807981284792186,0.9996596324029953
1920,0.8080154366312626,0.9996596324029953
1921,0.809637648987398,0.9996596324029953
1922,0.8096718008264745,0.9996596324029953
1923,0.8168949147911615,0.9996596324029953
1924,0.816929066630238,0.9996596324029953
1925,0.8245449267443051,0.9996596324029953
1926,0.8245790785833818,0.9996596324029953
1927,0.825296267203989,0.9996596324029953
1928,0.8253304190430655,0.9996596324029953
1929,0.8394692804207506,0.9996596324029953
1930,0.8394692804207506,1.0
1931,0.8398278747310542,1.0
1932,0.8398620265701308,1.0
1933,0.8546497728902701,1.0
1934,0.8546839247293466,1.0
1935,0.8556914039821044,1.0
1936,0.8557255558211809,1.0
1937,0.8590382842116048,1.0
1938,0.8590724360506813,1.0
1939,0.8635121751306308,1.0
1940,0.8635463269697073,1.0
1941,0.9046651412178546,1.0
1942,0.9046992930569311,1.0
1943,0.9056896963901506,1.0
1944,0.9057238482292271,1.0
1945,0.9066800997233702,1.0
1946,0.9067142515624467,1.0
1947,0.9086779823093474,1.0
1948,0.9087121341484239,1.0
1949,0.9124517605273044,1.0
1950,0.9124859123663809,1.0
1951,0.9189235340323076,1.0
1952,0.9189576858713842,1.0
1953,1.0,1.0
