,fpr,tpr
0,0.0,0.0
1,0.0,0.0006944444444444445
2,0.0,0.025
3,3.303600925008259e-05,0.025
4,3.303600925008259e-05,0.034722222222222224
5,4.955401387512388e-05,0.034722222222222224
6,4.955401387512388e-05,0.03680555555555556
7,6.607201850016519e-05,0.03680555555555556
8,6.607201850016519e-05,0.05763888888888889
9,6.607201850016519e-05,0.059027777777777776
10,6.607201850016519e-05,0.06597222222222222
11,8.259002312520647e-05,0.06597222222222222
12,8.259002312520647e-05,0.07222222222222222
13,9.910802775024777e-05,0.07222222222222222
14,9.910802775024777e-05,0.07569444444444444
15,0.00011562603237528906,0.07569444444444444
16,0.00011562603237528906,0.07777777777777778
17,0.00013214403700033037,0.07777777777777778
18,0.00013214403700033037,0.09097222222222222
19,0.00014866204162537167,0.09097222222222222
20,0.00014866204162537167,0.09513888888888888
21,0.00016518004625041294,0.09513888888888888
22,0.00016518004625041294,0.09930555555555555
23,0.00018169805087545423,0.09930555555555555
24,0.00018169805087545423,0.11527777777777778
25,0.00019821605550049553,0.11527777777777778
26,0.00019821605550049553,0.1284722222222222
27,0.00021473406012553683,0.1284722222222222
28,0.00021473406012553683,0.13194444444444445
29,0.00023125206475057812,0.13194444444444445
30,0.00023125206475057812,0.13402777777777777
31,0.0002477700693756194,0.13402777777777777
32,0.0002477700693756194,0.14097222222222222
33,0.00026428807400066074,0.14097222222222222
34,0.00026428807400066074,0.14375
35,0.00026428807400066074,0.1451388888888889
36,0.00026428807400066074,0.15694444444444444
37,0.000280806078625702,0.15694444444444444
38,0.000280806078625702,0.16041666666666668
39,0.00029732408325074334,0.16041666666666668
40,0.00029732408325074334,0.18125
41,0.0003138420878757846,0.18125
42,0.0003138420878757846,0.18472222222222223
43,0.0003303600925008259,0.18472222222222223
44,0.0003303600925008259,0.19027777777777777
45,0.0003468780971258672,0.19027777777777777
46,0.0003468780971258672,0.19236111111111112
47,0.00036339610175090847,0.19236111111111112
48,0.00036339610175090847,0.1951388888888889
49,0.0003799141063759498,0.1951388888888889
50,0.0003799141063759498,0.19583333333333333
51,0.0004129501156260324,0.19583333333333333
52,0.0004129501156260324,0.20208333333333334
53,0.00042946812025107365,0.20208333333333334
54,0.00042946812025107365,0.20277777777777778
55,0.000445986124876115,0.20347222222222222
56,0.00047902213412619757,0.20347222222222222
57,0.00047902213412619757,0.22708333333333333
58,0.0004955401387512388,0.22708333333333333
59,0.0004955401387512388,0.22847222222222222
60,0.0004955401387512388,0.2298611111111111
61,0.0004955401387512388,0.23333333333333334
62,0.0005285761480013215,0.23333333333333334
63,0.0005285761480013215,0.23680555555555555
64,0.0005450941526263627,0.23680555555555555
65,0.0005450941526263627,0.24791666666666667
66,0.000561612157251404,0.24791666666666667
67,0.000561612157251404,0.2513888888888889
68,0.0005781301618764453,0.2513888888888889
69,0.0005781301618764453,0.2520833333333333
70,0.0005946481665014867,0.2520833333333333
71,0.0005946481665014867,0.25625
72,0.0006111661711265279,0.25625
73,0.0006111661711265279,0.25763888888888886
74,0.0006276841757515692,0.25763888888888886
75,0.0006276841757515692,0.25833333333333336
76,0.0006276841757515692,0.25972222222222224
77,0.0006276841757515692,0.26180555555555557
78,0.0006442021803766105,0.26180555555555557
79,0.0006442021803766105,0.2638888888888889
80,0.0006607201850016518,0.2638888888888889
81,0.0006607201850016518,0.26458333333333334
82,0.0006937561942517344,0.26458333333333334
83,0.0006937561942517344,0.2722222222222222
84,0.0007102741988767757,0.2722222222222222
85,0.0007102741988767757,0.27291666666666664
86,0.0007267922035018169,0.27291666666666664
87,0.0007267922035018169,0.2743055555555556
88,0.0007433102081268583,0.2743055555555556
89,0.0007433102081268583,0.27569444444444446
90,0.0007433102081268583,0.28402777777777777
91,0.0007598282127518996,0.28402777777777777
92,0.0007598282127518996,0.2861111111111111
93,0.0007763462173769409,0.2861111111111111
94,0.0007763462173769409,0.2965277777777778
95,0.0007928642220019821,0.2965277777777778
96,0.0007928642220019821,0.3013888888888889
97,0.0008093822266270234,0.3013888888888889
98,0.0008093822266270234,0.30416666666666664
99,0.0008259002312520648,0.30416666666666664
100,0.0008259002312520648,0.3076388888888889
101,0.0008424182358771061,0.3076388888888889
102,0.0008424182358771061,0.3111111111111111
103,0.0008589362405021473,0.3111111111111111
104,0.0008589362405021473,0.31180555555555556
105,0.0008754542451271886,0.31180555555555556
106,0.0008754542451271886,0.3145833333333333
107,0.0009084902543772713,0.3145833333333333
108,0.0009084902543772713,0.3326388888888889
109,0.0009084902543772713,0.33402777777777776
110,0.0009084902543772713,0.34652777777777777
111,0.0009250082590023125,0.34652777777777777
112,0.0009250082590023125,0.3472222222222222
113,0.0009415262636273538,0.3472222222222222
114,0.0009415262636273538,0.35208333333333336
115,0.0009580442682523951,0.35208333333333336
116,0.0009580442682523951,0.35555555555555557
117,0.0009910802775024777,0.35555555555555557
118,0.0009910802775024777,0.35625
119,0.001007598282127519,0.35625
120,0.001007598282127519,0.35694444444444445
121,0.0010241162867525603,0.35694444444444445
122,0.0010241162867525603,0.3576388888888889
123,0.0010406342913776017,0.3576388888888889
124,0.0010406342913776017,0.35833333333333334
125,0.001057152296002643,0.35833333333333334
126,0.001057152296002643,0.3597222222222222
127,0.001073670300627684,0.3597222222222222
128,0.001073670300627684,0.36875
129,0.0010901883052527254,0.36875
130,0.0010901883052527254,0.37083333333333335
131,0.0011067063098777667,0.37083333333333335
132,0.0011067063098777667,0.3770833333333333
133,0.001123224314502808,0.3770833333333333
134,0.001123224314502808,0.38125
135,0.0011562603237528907,0.38125
136,0.0011562603237528907,0.38333333333333336
137,0.001172778328377932,0.38333333333333336
138,0.001172778328377932,0.3840277777777778
139,0.0011892963330029733,0.3840277777777778
140,0.0011892963330029733,0.39305555555555555
141,0.0011892963330029733,0.39444444444444443
142,0.0011892963330029733,0.3958333333333333
143,0.0012058143376280145,0.3958333333333333
144,0.0012058143376280145,0.40069444444444446
145,0.0012058143376280145,0.40208333333333335
146,0.0012058143376280145,0.40347222222222223
147,0.0012223323422530558,0.40347222222222223
148,0.0012223323422530558,0.40555555555555556
149,0.001238850346878097,0.40555555555555556
150,0.001238850346878097,0.4083333333333333
151,0.0012553683515031384,0.4083333333333333
152,0.0012553683515031384,0.4111111111111111
153,0.001288404360753221,0.4111111111111111
154,0.001288404360753221,0.4166666666666667
155,0.0013049223653782624,0.4166666666666667
156,0.0013049223653782624,0.4215277777777778
157,0.0013214403700033035,0.4215277777777778
158,0.0013214403700033035,0.42569444444444443
159,0.0013379583746283448,0.42569444444444443
160,0.0013379583746283448,0.4305555555555556
161,0.0013544763792533861,0.4305555555555556
162,0.0013544763792533861,0.4326388888888889
163,0.0013709943838784275,0.4326388888888889
164,0.0013709943838784275,0.43333333333333335
165,0.0013875123885034688,0.43333333333333335
166,0.0013875123885034688,0.43819444444444444
167,0.0014205483977535514,0.43819444444444444
168,0.0014205483977535514,0.4395833333333333
169,0.0014370664023785928,0.4395833333333333
170,0.0014370664023785928,0.4479166666666667
171,0.0014535844070036339,0.4479166666666667
172,0.0014535844070036339,0.44930555555555557
173,0.0014866204162537165,0.44930555555555557
174,0.0014866204162537165,0.45069444444444445
175,0.0015031384208787578,0.45069444444444445
176,0.0015031384208787578,0.4534722222222222
177,0.0015361744301288405,0.4534722222222222
178,0.0015361744301288405,0.45625
179,0.0015526924347538818,0.45625
180,0.0015526924347538818,0.4576388888888889
181,0.0015857284440039642,0.4576388888888889
182,0.0015857284440039642,0.4583333333333333
183,0.0016022464486290056,0.45902777777777776
184,0.0016022464486290056,0.4625
185,0.001618764453254047,0.4625
186,0.001618764453254047,0.4673611111111111
187,0.001618764453254047,0.46875
188,0.0016352824578790882,0.46875
189,0.0016352824578790882,0.4701388888888889
190,0.0016518004625041295,0.4701388888888889
191,0.0016518004625041295,0.4708333333333333
192,0.0016683184671291709,0.4708333333333333
193,0.0016683184671291709,0.4722222222222222
194,0.0017013544763792533,0.4722222222222222
195,0.0017013544763792533,0.47430555555555554
196,0.0017178724810042946,0.47430555555555554
197,0.0017178724810042946,0.475
198,0.001734390485629336,0.475
199,0.001734390485629336,0.47847222222222224
200,0.0017509084902543773,0.47847222222222224
201,0.0017509084902543773,0.4791666666666667
202,0.0017674264948794186,0.4791666666666667
203,0.0017674264948794186,0.48680555555555555
204,0.00178394449950446,0.48680555555555555
205,0.00178394449950446,0.4888888888888889
206,0.0018169805087545426,0.4888888888888889
207,0.0018169805087545426,0.49444444444444446
208,0.0018334985133795837,0.49444444444444446
209,0.0018334985133795837,0.4965277777777778
210,0.001850016518004625,0.4965277777777778
211,0.001850016518004625,0.49722222222222223
212,0.0018665345226296663,0.49722222222222223
213,0.0018665345226296663,0.5
214,0.0018830525272547076,0.5
215,0.0018830525272547076,0.5027777777777778
216,0.001899570531879749,0.5027777777777778
217,0.001899570531879749,0.5076388888888889
218,0.0019160885365047903,0.5076388888888889
219,0.0019160885365047903,0.5097222222222222
220,0.0019491245457548727,0.5097222222222222
221,0.0019491245457548727,0.5111111111111111
222,0.0019821605550049554,0.5111111111111111
223,0.0019821605550049554,0.5125
224,0.0019986785596299967,0.5125
225,0.0019986785596299967,0.5145833333333333
226,0.0020317145688800793,0.5145833333333333
227,0.0020317145688800793,0.5166666666666667
228,0.002064750578130162,0.5166666666666667
229,0.002064750578130162,0.5194444444444445
230,0.0020812685827552033,0.5194444444444445
231,0.0020812685827552033,0.5208333333333334
232,0.0020977865873802446,0.5208333333333334
233,0.0020977865873802446,0.5222222222222223
234,0.002114304592005286,0.5222222222222223
235,0.002114304592005286,0.5229166666666667
236,0.0021308225966303273,0.5229166666666667
237,0.0021308225966303273,0.5236111111111111
238,0.0021638586058804095,0.5236111111111111
239,0.0021638586058804095,0.5243055555555556
240,0.002180376610505451,0.5243055555555556
241,0.002180376610505451,0.525
242,0.002196894615130492,0.525
243,0.002196894615130492,0.5270833333333333
244,0.0022134126197555335,0.5270833333333333
245,0.0022134126197555335,0.5291666666666667
246,0.002246448629005616,0.5291666666666667
247,0.002246448629005616,0.5319444444444444
248,0.0022629666336306574,0.5319444444444444
249,0.0022629666336306574,0.5340277777777778
250,0.0022794846382556988,0.5340277777777778
251,0.0022794846382556988,0.5347222222222222
252,0.00229600264288074,0.5347222222222222
253,0.00229600264288074,0.5354166666666667
254,0.0023125206475057814,0.5354166666666667
255,0.0023125206475057814,0.5375
256,0.0023290386521308227,0.5375
257,0.0023290386521308227,0.5402777777777777
258,0.0023620746613809054,0.5402777777777777
259,0.0023620746613809054,0.5409722222222222
260,0.0023951106706309876,0.5409722222222222
261,0.0023951106706309876,0.5416666666666666
262,0.0024281466798810702,0.5416666666666666
263,0.0024281466798810702,0.5423611111111111
264,0.0024446646845061116,0.5423611111111111
265,0.0024446646845061116,0.5430555555555555
266,0.002461182689131153,0.5430555555555555
267,0.002461182689131153,0.5444444444444444
268,0.002477700693756194,0.5444444444444444
269,0.002477700693756194,0.5451388888888888
270,0.0024942186983812355,0.5451388888888888
271,0.0024942186983812355,0.5472222222222223
272,0.002510736703006277,0.5472222222222223
273,0.002510736703006277,0.5486111111111112
274,0.002527254707631318,0.5486111111111112
275,0.002527254707631318,0.5513888888888889
276,0.0025437727122563595,0.5513888888888889
277,0.0025437727122563595,0.5576388888888889
278,0.002560290716881401,0.5576388888888889
279,0.002560290716881401,0.5583333333333333
280,0.002560290716881401,0.5597222222222222
281,0.002560290716881401,0.5604166666666667
282,0.002576808721506442,0.5604166666666667
283,0.002576808721506442,0.5625
284,0.0025933267261314835,0.5625
285,0.0025933267261314835,0.5652777777777778
286,0.002609844730756525,0.5652777777777778
287,0.002609844730756525,0.5659722222222222
288,0.002626362735381566,0.5659722222222222
289,0.002626362735381566,0.5666666666666667
290,0.002642880740006607,0.5666666666666667
291,0.002642880740006607,0.5715277777777777
292,0.0026593987446316483,0.5715277777777777
293,0.0026593987446316483,0.5736111111111111
294,0.0026759167492566896,0.5736111111111111
295,0.0026759167492566896,0.5743055555555555
296,0.0027089527585067723,0.5743055555555555
297,0.0027089527585067723,0.5756944444444444
298,0.0027254707631318136,0.5756944444444444
299,0.0027254707631318136,0.5798611111111112
300,0.002741988767756855,0.5798611111111112
301,0.002741988767756855,0.5826388888888889
302,0.002857614800132144,0.5826388888888889
303,0.002857614800132144,0.5833333333333334
304,0.0028906508093822264,0.5833333333333334
305,0.0028906508093822264,0.5847222222222223
306,0.0029071688140072677,0.5847222222222223
307,0.0029071688140072677,0.5854166666666667
308,0.0029402048232573504,0.5854166666666667
309,0.0029402048232573504,0.5875
310,0.0029567228278823917,0.5875
311,0.0029567228278823917,0.5916666666666667
312,0.002973240832507433,0.5916666666666667
313,0.002973240832507433,0.5930555555555556
314,0.003022794846382557,0.5930555555555556
315,0.003022794846382557,0.5944444444444444
316,0.0030558308556326397,0.5944444444444444
317,0.0030558308556326397,0.5951388888888889
318,0.003121902874132805,0.5951388888888889
319,0.003121902874132805,0.5958333333333333
320,0.003154938883382887,0.5958333333333333
321,0.003154938883382887,0.5965277777777778
322,0.003204492897258011,0.5965277777777778
323,0.003204492897258011,0.5986111111111111
324,0.0032705649157581764,0.5986111111111111
325,0.0032705649157581764,0.5993055555555555
326,0.0032870829203832178,0.5993055555555555
327,0.0032870829203832178,0.6013888888888889
328,0.0033201189296333004,0.6013888888888889
329,0.0033201189296333004,0.6020833333333333
330,0.0033696729435084244,0.6020833333333333
331,0.0033696729435084244,0.6034722222222222
332,0.0033861909481334653,0.6034722222222222
333,0.0033861909481334653,0.60625
334,0.003419226957383548,0.60625
335,0.003419226957383548,0.6069444444444444
336,0.0034357449620085892,0.6069444444444444
337,0.0034357449620085892,0.6076388888888888
338,0.003518334985133796,0.6076388888888888
339,0.003518334985133796,0.6083333333333333
340,0.003534852989758837,0.6083333333333333
341,0.003534852989758837,0.6090277777777777
342,0.0035513709943838785,0.6090277777777777
343,0.0035513709943838785,0.6097222222222223
344,0.00356788899900892,0.6097222222222223
345,0.00356788899900892,0.6118055555555556
346,0.003633961017509085,0.6118055555555556
347,0.003633961017509085,0.6125
348,0.003650479022134126,0.6125
349,0.003650479022134126,0.6145833333333334
350,0.0036669970267591673,0.6145833333333334
351,0.0036669970267591673,0.6152777777777778
352,0.0036835150313842087,0.6152777777777778
353,0.0036835150313842087,0.6166666666666667
354,0.00370003303600925,0.6166666666666667
355,0.00370003303600925,0.61875
356,0.0037165510406342913,0.61875
357,0.0037165510406342913,0.6194444444444445
358,0.0037330690452593326,0.6194444444444445
359,0.0037330690452593326,0.6208333333333333
360,0.003749587049884374,0.6208333333333333
361,0.003749587049884374,0.6222222222222222
362,0.003799141063759498,0.6222222222222222
363,0.003799141063759498,0.6229166666666667
364,0.0038156590683845392,0.6229166666666667
365,0.0038156590683845392,0.6243055555555556
366,0.0038321770730095806,0.6243055555555556
367,0.0038321770730095806,0.625
368,0.003865213082259663,0.625
369,0.003865213082259663,0.6256944444444444
370,0.0038982490915097454,0.6256944444444444
371,0.0038982490915097454,0.6263888888888889
372,0.003931285100759828,0.6263888888888889
373,0.003931285100759828,0.6277777777777778
374,0.0039808391146349525,0.6277777777777778
375,0.0039808391146349525,0.6284722222222222
376,0.003997357119259993,0.6284722222222222
377,0.003997357119259993,0.6291666666666667
378,0.004013875123885034,0.6291666666666667
379,0.004013875123885034,0.6305555555555555
380,0.004046911133135117,0.6305555555555555
381,0.004046911133135117,0.63125
382,0.004112983151635282,0.63125
383,0.004112983151635282,0.6326388888888889
384,0.0041790551701354475,0.6326388888888889
385,0.0041790551701354475,0.6340277777777777
386,0.004195573174760489,0.6340277777777777
387,0.004195573174760489,0.6361111111111111
388,0.00421209117938553,0.6361111111111111
389,0.00421209117938553,0.6381944444444444
390,0.004228609184010572,0.6381944444444444
391,0.004228609184010572,0.6388888888888888
392,0.004245127188635613,0.6388888888888888
393,0.004245127188635613,0.6402777777777777
394,0.0042616451932606545,0.6402777777777777
395,0.0042616451932606545,0.6416666666666667
396,0.004327717211760819,0.6416666666666667
397,0.004327717211760819,0.6430555555555556
398,0.004344235216385861,0.6430555555555556
399,0.004344235216385861,0.64375
400,0.004377271225635943,0.64375
401,0.004377271225635943,0.6444444444444445
402,0.004410307234886026,0.6444444444444445
403,0.004410307234886026,0.6451388888888889
404,0.0044598612487611496,0.6451388888888889
405,0.0044598612487611496,0.6465277777777778
406,0.004492897258011232,0.6465277777777778
407,0.004492897258011232,0.6486111111111111
408,0.004509415262636274,0.6486111111111111
409,0.004509415262636274,0.6493055555555556
410,0.00459200528576148,0.6493055555555556
411,0.00459200528576148,0.6513888888888889
412,0.004641559299636604,0.6513888888888889
413,0.004641559299636604,0.6541666666666667
414,0.004674595308886686,0.6541666666666667
415,0.004674595308886686,0.6548611111111111
416,0.004707631318136769,0.6548611111111111
417,0.004707631318136769,0.6555555555555556
418,0.004757185332011893,0.6555555555555556
419,0.004757185332011893,0.65625
420,0.004773703336636934,0.65625
421,0.004773703336636934,0.6604166666666667
422,0.0048397753551371,0.6604166666666667
423,0.0048397753551371,0.6611111111111111
424,0.004905847373637265,0.6611111111111111
425,0.004905847373637265,0.6618055555555555
426,0.005004955401387513,0.6618055555555555
427,0.005004955401387513,0.6631944444444444
428,0.005021473406012554,0.6631944444444444
429,0.005021473406012554,0.6645833333333333
430,0.005054509415262636,0.6645833333333333
431,0.005054509415262636,0.6652777777777777
432,0.005087545424512719,0.6652777777777777
433,0.005087545424512719,0.6694444444444444
434,0.00510406342913776,0.6694444444444444
435,0.00510406342913776,0.6701388888888888
436,0.005170135447637925,0.6701388888888888
437,0.005170135447637925,0.6708333333333333
438,0.005186653452262967,0.6708333333333333
439,0.005186653452262967,0.6715277777777777
440,0.005203171456888008,0.6715277777777777
441,0.005203171456888008,0.6722222222222223
442,0.0052362074661380905,0.6722222222222223
443,0.0052362074661380905,0.6729166666666667
444,0.005269243475388173,0.6729166666666667
445,0.005269243475388173,0.6736111111111112
446,0.005302279484638256,0.6736111111111112
447,0.005302279484638256,0.6743055555555556
448,0.005335315493888338,0.6743055555555556
449,0.005335315493888338,0.6756944444444445
450,0.005467459530888669,0.6756944444444445
451,0.005467459530888669,0.6763888888888889
452,0.005500495540138752,0.6763888888888889
453,0.005500495540138752,0.6777777777777778
454,0.005946481665014866,0.6777777777777778
455,0.005946481665014866,0.6784722222222223
456,0.005962999669639908,0.6784722222222223
457,0.005962999669639908,0.6798611111111111
458,0.006029071688140072,0.6798611111111111
459,0.006029071688140072,0.68125
460,0.006062107697390155,0.68125
461,0.006062107697390155,0.6819444444444445
462,0.006144697720515362,0.6819444444444445
463,0.006144697720515362,0.6826388888888889
464,0.0061942517343904855,0.6826388888888889
465,0.0061942517343904855,0.6833333333333333
466,0.006227287743640568,0.6833333333333333
467,0.006227287743640568,0.6861111111111111
468,0.006309877766765774,0.6861111111111111
469,0.006309877766765774,0.6868055555555556
470,0.006425503799141064,0.6868055555555556
471,0.006425503799141064,0.6881944444444444
472,0.006475057813016188,0.6881944444444444
473,0.006475057813016188,0.6895833333333333
474,0.006607201850016518,0.6895833333333333
475,0.006607201850016518,0.6909722222222222
476,0.006623719854641559,0.6909722222222222
477,0.006623719854641559,0.6916666666666667
478,0.0066732738685166835,0.6916666666666667
479,0.0066732738685166835,0.6930555555555555
480,0.006739345887016849,0.6930555555555555
481,0.006739345887016849,0.6944444444444444
482,0.006805417905517013,0.6944444444444444
483,0.006805417905517013,0.6951388888888889
484,0.006838453914767096,0.6951388888888889
485,0.006838453914767096,0.6958333333333333
486,0.006854971919392138,0.6958333333333333
487,0.006854971919392138,0.6965277777777777
488,0.00688800792864222,0.6965277777777777
489,0.00688800792864222,0.6979166666666666
490,0.006904525933267261,0.6979166666666666
491,0.006904525933267261,0.6993055555555555
492,0.006987115956392468,0.6993055555555555
493,0.006987115956392468,0.7006944444444444
494,0.007119259993392798,0.7006944444444444
495,0.007119259993392798,0.7013888888888888
496,0.007168814007267922,0.7013888888888888
497,0.007168814007267922,0.7020833333333333
498,0.007185332011892963,0.7020833333333333
499,0.007185332011892963,0.7034722222222223
500,0.0072514040303931285,0.7034722222222223
501,0.0072514040303931285,0.7041666666666667
502,0.007416584076643542,0.7041666666666667
503,0.007416584076643542,0.7083333333333334
504,0.007482656095143707,0.7083333333333334
505,0.007482656095143707,0.7090277777777778
506,0.00751569210439379,0.7090277777777778
507,0.00751569210439379,0.7104166666666667
508,0.007581764122893954,0.7104166666666667
509,0.007581764122893954,0.7118055555555556
510,0.007598282127518996,0.7118055555555556
511,0.0076313181367690785,0.7118055555555556
512,0.007647836141394119,0.7118055555555556
513,0.007647836141394119,0.7125
514,0.007664354146019161,0.7125
515,0.007664354146019161,0.7138888888888889
516,0.007664354146019161,0.7166666666666667
517,0.007680872150644202,0.7166666666666667
518,0.007680872150644202,0.7173611111111111
519,0.007763462173769409,0.7173611111111111
520,0.007763462173769409,0.7180555555555556
521,0.007829534192269574,0.7180555555555556
522,0.007829534192269574,0.71875
523,0.00791212421539478,0.71875
524,0.00791212421539478,0.7194444444444444
525,0.007945160224644863,0.7194444444444444
526,0.007945160224644863,0.7201388888888889
527,0.007961678229269905,0.7201388888888889
528,0.007961678229269905,0.7208333333333333
529,0.007994714238519987,0.7208333333333333
530,0.007994714238519987,0.7215277777777778
531,0.008011232243145028,0.7215277777777778
532,0.008011232243145028,0.7229166666666667
533,0.008060786257020152,0.7229166666666667
534,0.008060786257020152,0.7236111111111111
535,0.008077304261645194,0.7236111111111111
536,0.008077304261645194,0.725
537,0.008110340270895276,0.725
538,0.008143376280145359,0.725
539,0.008192930294020483,0.725
540,0.008192930294020483,0.7256944444444444
541,0.008225966303270564,0.7256944444444444
542,0.008225966303270564,0.7263888888888889
543,0.008308556326395771,0.7263888888888889
544,0.008308556326395771,0.7277777777777777
545,0.008341592335645853,0.7277777777777777
546,0.008341592335645853,0.7305555555555555
547,0.008506772381896267,0.7305555555555555
548,0.008506772381896267,0.73125
549,0.00867195242814668,0.73125
550,0.00867195242814668,0.7319444444444444
551,0.008704988437396763,0.7319444444444444
552,0.008704988437396763,0.7326388888888888
553,0.008721506442021803,0.7326388888888888
554,0.008721506442021803,0.7333333333333333
555,0.008771060455896929,0.7333333333333333
556,0.008771060455896929,0.7340277777777777
557,0.008787578460521969,0.7340277777777777
558,0.008787578460521969,0.7354166666666667
559,0.008870168483647176,0.7354166666666667
560,0.008870168483647176,0.7375
561,0.009101420548397753,0.7375
562,0.009101420548397753,0.7381944444444445
563,0.009150974562272877,0.7381944444444445
564,0.009150974562272877,0.7395833333333334
565,0.009233564585398084,0.7395833333333334
566,0.009233564585398084,0.7402777777777778
567,0.009398744631648496,0.7402777777777778
568,0.009398744631648496,0.7409722222222223
569,0.00958044268252395,0.7409722222222223
570,0.00958044268252395,0.7416666666666667
571,0.009663032705649157,0.7416666666666667
572,0.009663032705649157,0.7423611111111111
573,0.009696068714899241,0.7423611111111111
574,0.009696068714899241,0.7430555555555556
575,0.009745622728774364,0.7430555555555556
576,0.009745622728774364,0.74375
577,0.00982821275189957,0.74375
578,0.00982821275189957,0.7444444444444445
579,0.009894284770399735,0.7444444444444445
580,0.009894284770399735,0.7451388888888889
581,0.010125536835150314,0.7451388888888889
582,0.010125536835150314,0.7465277777777778
583,0.010158572844400396,0.7465277777777778
584,0.010158572844400396,0.7479166666666667
585,0.01019160885365048,0.7479166666666667
586,0.01019160885365048,0.7493055555555556
587,0.010224644862900562,0.7493055555555556
588,0.010224644862900562,0.75
589,0.010290716881400727,0.75
590,0.010323752890650809,0.75
591,0.010472414932276181,0.75
592,0.010472414932276181,0.7520833333333333
593,0.010505450941526264,0.7520833333333333
594,0.010505450941526264,0.7527777777777778
595,0.01083581103402709,0.7527777777777778
596,0.01083581103402709,0.7534722222222222
597,0.010951437066402378,0.7534722222222222
598,0.010951437066402378,0.7541666666666667
599,0.011000991080277503,0.7541666666666667
600,0.011000991080277503,0.7548611111111111
601,0.011067063098777667,0.7548611111111111
602,0.011067063098777667,0.7555555555555555
603,0.011149653121902874,0.7555555555555555
604,0.011149653121902874,0.7569444444444444
605,0.011182689131152957,0.7569444444444444
606,0.011182689131152957,0.7576388888888889
607,0.011199207135777997,0.7576388888888889
608,0.011199207135777997,0.7597222222222222
609,0.011248761149653123,0.7597222222222222
610,0.011248761149653123,0.7604166666666666
611,0.011314833168153286,0.7604166666666666
612,0.011314833168153286,0.7611111111111111
613,0.011380905186653452,0.7611111111111111
614,0.011380905186653452,0.7618055555555555
615,0.011397423191278493,0.7618055555555555
616,0.011397423191278493,0.7631944444444444
617,0.011430459200528577,0.7631944444444444
618,0.011430459200528577,0.7638888888888888
619,0.011496531219028742,0.7638888888888888
620,0.011496531219028742,0.7652777777777777
621,0.01159563924677899,0.7652777777777777
622,0.01159563924677899,0.7659722222222223
623,0.011612157251404031,0.7659722222222223
624,0.011612157251404031,0.7666666666666667
625,0.011628675256029071,0.7666666666666667
626,0.011628675256029071,0.7673611111111112
627,0.011645193260654113,0.7673611111111112
628,0.011645193260654113,0.7680555555555556
629,0.011744301288404362,0.7680555555555556
630,0.011744301288404362,0.76875
631,0.011760819293029402,0.76875
632,0.011760819293029402,0.7694444444444445
633,0.012008589362405021,0.7694444444444445
634,0.012008589362405021,0.7701388888888889
635,0.01212421539478031,0.7701388888888889
636,0.01212421539478031,0.7708333333333334
637,0.012338949454905847,0.7708333333333334
638,0.012338949454905847,0.7715277777777778
639,0.01263627353815659,0.7715277777777778
640,0.012669309547406674,0.7715277777777778
641,0.012900561612157252,0.7715277777777778
642,0.012900561612157252,0.7722222222222223
643,0.012950115626032375,0.7722222222222223
644,0.012950115626032375,0.7736111111111111
645,0.012966633630657417,0.7736111111111111
646,0.012966633630657417,0.7743055555555556
647,0.013115295672282788,0.7743055555555556
648,0.013115295672282788,0.775
649,0.013181367690782953,0.775
650,0.013181367690782953,0.7756944444444445
651,0.013247439709283118,0.7756944444444445
652,0.013247439709283118,0.7763888888888889
653,0.013330029732408325,0.7763888888888889
654,0.013330029732408325,0.7770833333333333
655,0.013429137760158572,0.7770833333333333
656,0.013429137760158572,0.7777777777777778
657,0.013478691774033697,0.7777777777777778
658,0.013478691774033697,0.7784722222222222
659,0.013610835811034026,0.7784722222222222
660,0.013610835811034026,0.7791666666666667
661,0.013660389824909152,0.7791666666666667
662,0.013660389824909152,0.7805555555555556
663,0.013726461843409317,0.7805555555555556
664,0.013742979848034357,0.78125
665,0.01377601585728444,0.78125
666,0.01377601585728444,0.7819444444444444
667,0.013924677898909811,0.7819444444444444
668,0.013924677898909811,0.7826388888888889
669,0.014040303931285102,0.7826388888888889
670,0.014040303931285102,0.7833333333333333
671,0.014073339940535183,0.7833333333333333
672,0.014073339940535183,0.7847222222222222
673,0.014188965972910472,0.7847222222222222
674,0.014188965972910472,0.7854166666666667
675,0.014205483977535514,0.7854166666666667
676,0.014205483977535514,0.7861111111111111
677,0.014222001982160556,0.7861111111111111
678,0.014222001982160556,0.7868055555555555
679,0.014255037991410638,0.7868055555555555
680,0.014255037991410638,0.7875
681,0.014453254046911133,0.7875
682,0.014486290056161215,0.7875
683,0.014519326065411299,0.7875
684,0.014519326065411299,0.7888888888888889
685,0.014717542120911795,0.7888888888888889
686,0.014717542120911795,0.7895833333333333
687,0.014750578130161876,0.7895833333333333
688,0.014750578130161876,0.7902777777777777
689,0.014816650148662042,0.7902777777777777
690,0.014816650148662042,0.7909722222222222
691,0.014882722167162207,0.7909722222222222
692,0.014882722167162207,0.7923611111111111
693,0.014965312190287414,0.7923611111111111
694,0.014965312190287414,0.7930555555555555
695,0.015130492236537826,0.7930555555555555
696,0.015130492236537826,0.79375
697,0.015196564255037992,0.79375
698,0.015196564255037992,0.7944444444444444
699,0.015229600264288073,0.7944444444444444
700,0.015229600264288073,0.7958333333333333
701,0.015262636273538157,0.7958333333333333
702,0.015262636273538157,0.7965277777777777
703,0.015411298315163528,0.7965277777777777
704,0.015411298315163528,0.7986111111111112
705,0.015543442352163858,0.7986111111111112
706,0.015543442352163858,0.7993055555555556
707,0.015626032375289065,0.7993055555555556
708,0.015626032375289065,0.8
709,0.015642550379914105,0.8
710,0.015642550379914105,0.8006944444444445
711,0.015741658407664356,0.8006944444444445
712,0.015774694416914436,0.8006944444444445
713,0.015774694416914436,0.8013888888888889
714,0.01580773042616452,0.8013888888888889
715,0.01580773042616452,0.8020833333333334
716,0.016022464486290057,0.8020833333333334
717,0.016022464486290057,0.8027777777777778
718,0.01607201850016518,0.8027777777777778
719,0.01607201850016518,0.8034722222222223
720,0.016171126527915428,0.8034722222222223
721,0.016171126527915428,0.8041666666666667
722,0.016270234555665675,0.8041666666666667
723,0.016270234555665675,0.8048611111111111
724,0.016286752560290718,0.8048611111111111
725,0.016286752560290718,0.8055555555555556
726,0.016303270564915758,0.8055555555555556
727,0.016303270564915758,0.80625
728,0.01633630657416584,0.80625
729,0.01633630657416584,0.8069444444444445
730,0.016484968615791212,0.8069444444444445
731,0.016484968615791212,0.8090277777777778
732,0.016765774694416914,0.8090277777777778
733,0.016765774694416914,0.8104166666666667
734,0.016815328708292037,0.8104166666666667
735,0.016815328708292037,0.8111111111111111
736,0.01684836471754212,0.8111111111111111
737,0.01684836471754212,0.8118055555555556
738,0.016897918731417244,0.8118055555555556
739,0.016897918731417244,0.8125
740,0.016930954740667328,0.8125
741,0.016930954740667328,0.8131944444444444
742,0.017030062768417575,0.8131944444444444
743,0.017030062768417575,0.8138888888888889
744,0.017376940865543443,0.8138888888888889
745,0.017376940865543443,0.8145833333333333
746,0.017426494879418566,0.8145833333333333
747,0.01745953088866865,0.8145833333333333
748,0.017509084902543774,0.8145833333333333
749,0.017509084902543774,0.8152777777777778
750,0.017674264948794184,0.8152777777777778
751,0.017674264948794184,0.8159722222222222
752,0.018054179055170136,0.8159722222222222
753,0.018054179055170136,0.8166666666666667
754,0.01823587710604559,0.8166666666666667
755,0.01823587710604559,0.8173611111111111
756,0.018334985133795837,0.8173611111111111
757,0.018334985133795837,0.8180555555555555
758,0.018351503138420877,0.8180555555555555
759,0.018351503138420877,0.81875
760,0.018582755203171458,0.81875
761,0.018582755203171458,0.8194444444444444
762,0.018896597291047243,0.8194444444444444
763,0.018896597291047243,0.8201388888888889
764,0.019226957383548068,0.8201388888888889
765,0.019226957383548068,0.8208333333333333
766,0.019309547406673275,0.8208333333333333
767,0.019309547406673275,0.8215277777777777
768,0.019342583415923355,0.8215277777777777
769,0.019342583415923355,0.8222222222222222
770,0.0193591014205484,0.8222222222222222
771,0.019392137429798482,0.8222222222222222
772,0.019392137429798482,0.8229166666666666
773,0.019425173439048562,0.8229166666666666
774,0.019425173439048562,0.825
775,0.019474727452923685,0.825
776,0.019474727452923685,0.8256944444444444
777,0.019524281466798812,0.8256944444444444
778,0.019524281466798812,0.8263888888888888
779,0.019705979517674267,0.8263888888888888
780,0.019705979517674267,0.8270833333333333
781,0.01977205153617443,0.8270833333333333
782,0.01977205153617443,0.8277777777777777
783,0.019838123554674594,0.8277777777777777
784,0.019838123554674594,0.8284722222222223
785,0.01988767756854972,0.8284722222222223
786,0.01988767756854972,0.8291666666666667
787,0.020317145688800792,0.8291666666666667
788,0.020317145688800792,0.8298611111111112
789,0.0206805417905517,0.8298611111111112
790,0.0206805417905517,0.83125
791,0.020697059795176744,0.83125
792,0.020697059795176744,0.8326388888888889
793,0.020779649818301948,0.8326388888888889
794,0.020779649818301948,0.8340277777777778
795,0.02079616782292699,0.8340277777777778
796,0.02079616782292699,0.8347222222222223
797,0.020862239841427155,0.8347222222222223
798,0.020862239841427155,0.8354166666666667
799,0.020977865873802445,0.8354166666666667
800,0.020977865873802445,0.8361111111111111
801,0.020994383878427485,0.8361111111111111
802,0.020994383878427485,0.8368055555555556
803,0.021060455896927652,0.8368055555555556
804,0.021060455896927652,0.8375
805,0.021110009910802776,0.8375
806,0.021110009910802776,0.8381944444444445
807,0.021242153947803107,0.8381944444444445
808,0.021275189957053187,0.8381944444444445
809,0.021374297984803437,0.8381944444444445
810,0.021407333994053517,0.8381944444444445
811,0.02142385199867856,0.8381944444444445
812,0.02142385199867856,0.8388888888888889
813,0.02178724810042947,0.8388888888888889
814,0.02178724810042947,0.8395833333333333
815,0.02180376610505451,0.8395833333333333
816,0.02180376610505451,0.8402777777777778
817,0.021853320118929632,0.8402777777777778
818,0.021853320118929632,0.8409722222222222
819,0.022035018169805087,0.8409722222222222
820,0.022035018169805087,0.8416666666666667
821,0.022117608192930294,0.8416666666666667
822,0.022117608192930294,0.8423611111111111
823,0.02233234225305583,0.8423611111111111
824,0.02233234225305583,0.8430555555555556
825,0.02244796828543112,0.8430555555555556
826,0.02244796828543112,0.84375
827,0.0226792203501817,0.84375
828,0.0226792203501817,0.8444444444444444
829,0.023257350512058142,0.8444444444444444
830,0.023257350512058142,0.8451388888888889
831,0.023273868516683185,0.8451388888888889
832,0.023273868516683185,0.8458333333333333
833,0.023439048562933596,0.8458333333333333
834,0.023439048562933596,0.8465277777777778
835,0.02362074661380905,0.8465277777777778
836,0.02362074661380905,0.8472222222222222
837,0.023703336636934257,0.8472222222222222
838,0.023703336636934257,0.8479166666666667
839,0.024331020812685827,0.8479166666666667
840,0.024331020812685827,0.8486111111111111
841,0.02451271886356128,0.8486111111111111
842,0.02451271886356128,0.8493055555555555
843,0.024562272877436404,0.8493055555555555
844,0.024562272877436404,0.85
845,0.024661380905186655,0.85
846,0.024661380905186655,0.8506944444444444
847,0.025305583085563264,0.8506944444444444
848,0.025305583085563264,0.8520833333333333
849,0.025454245127188635,0.8520833333333333
850,0.025454245127188635,0.8527777777777777
851,0.02548728113643872,0.8527777777777777
852,0.02548728113643872,0.8534722222222222
853,0.025685497191939213,0.8534722222222222
854,0.025685497191939213,0.8541666666666666
855,0.026214073339940535,0.8541666666666666
856,0.026214073339940535,0.8548611111111111
857,0.02639577139081599,0.8548611111111111
858,0.02641228939544103,0.8555555555555555
859,0.026428807400066073,0.8555555555555555
860,0.026428807400066073,0.85625
861,0.026610505450941527,0.85625
862,0.026610505450941527,0.8569444444444444
863,0.02664354146019161,0.8569444444444444
864,0.02664354146019161,0.8576388888888888
865,0.026742649487941857,0.8576388888888888
866,0.02677568549719194,0.8576388888888888
867,0.02692434753881731,0.8576388888888888
868,0.02692434753881731,0.8583333333333333
869,0.02741988767756855,0.8583333333333333
870,0.02741988767756855,0.8590277777777777
871,0.02776676577469442,0.8590277777777777
872,0.02776676577469442,0.8597222222222223
873,0.027849355797819622,0.8597222222222223
874,0.027849355797819622,0.8604166666666667
875,0.02793194582094483,0.8604166666666667
876,0.02793194582094483,0.8611111111111112
877,0.028014535844070036,0.8611111111111112
878,0.028014535844070036,0.8618055555555556
879,0.028262305913445657,0.8618055555555556
880,0.028262305913445657,0.8631944444444445
881,0.028295341922695737,0.8631944444444445
882,0.028295341922695737,0.8638888888888889
883,0.028576148001321442,0.8638888888888889
884,0.028576148001321442,0.8645833333333334
885,0.02895606210769739,0.8645833333333334
886,0.02895606210769739,0.8652777777777778
887,0.02923686818632309,0.8652777777777778
888,0.02923686818632309,0.8659722222222223
889,0.029484638255698713,0.8659722222222223
890,0.029484638255698713,0.8666666666666667
891,0.029798480343574497,0.8666666666666667
892,0.029798480343574497,0.8673611111111111
893,0.030442682523951107,0.8673611111111111
894,0.030442682523951107,0.8680555555555556
895,0.03047571853320119,0.8680555555555556
896,0.03047571853320119,0.86875
897,0.030905186653452262,0.86875
898,0.030905186653452262,0.8694444444444445
899,0.030954740667327386,0.8694444444444445
900,0.030954740667327386,0.8701388888888889
901,0.03123554674595309,0.8701388888888889
902,0.03123554674595309,0.8708333333333333
903,0.03128510075982821,0.8708333333333333
904,0.03128510075982821,0.8722222222222222
905,0.031301618764453254,0.8722222222222222
906,0.031301618764453254,0.8729166666666667
907,0.03158242484307896,0.8729166666666667
908,0.03158242484307896,0.8736111111111111
909,0.03166501486620416,0.8736111111111111
910,0.03166501486620416,0.8743055555555556
911,0.03209448298645524,0.8743055555555556
912,0.03209448298645524,0.875
913,0.03227618103733069,0.875
914,0.03227618103733069,0.8756944444444444
915,0.03259002312520647,0.8756944444444444
916,0.03259002312520647,0.8763888888888889
917,0.03287082920383218,0.8763888888888889
918,0.03287082920383218,0.8770833333333333
919,0.03298645523620747,0.8770833333333333
920,0.033002973240832505,0.8777777777777778
921,0.03301949124545755,0.8777777777777778
922,0.03301949124545755,0.8784722222222222
923,0.033267261314833166,0.8784722222222222
924,0.033267261314833166,0.8791666666666667
925,0.033349851337958376,0.8791666666666667
926,0.033349851337958376,0.8798611111111111
927,0.03346547737033367,0.8798611111111111
928,0.03346547737033367,0.8805555555555555
929,0.0339610175090849,0.8805555555555555
930,0.0339610175090849,0.88125
931,0.034126197555335316,0.88125
932,0.034126197555335316,0.8819444444444444
933,0.034605219689461515,0.8819444444444444
934,0.034605219689461515,0.8826388888888889
935,0.03465477370333664,0.8826388888888889
936,0.03465477370333664,0.8833333333333333
937,0.035117277832837794,0.8833333333333333
938,0.035117277832837794,0.8840277777777777
939,0.03516683184671292,0.8840277777777777
940,0.03516683184671292,0.8847222222222222
941,0.03579451602246449,0.8847222222222222
942,0.03582755203171457,0.8847222222222222
943,0.036422200198216056,0.8847222222222222
944,0.036422200198216056,0.8854166666666666
945,0.03685166831846713,0.8854166666666666
946,0.03688470432771721,0.8854166666666666
947,0.03734720845721837,0.8854166666666666
948,0.03734720845721837,0.8861111111111111
949,0.03784274859596961,0.8861111111111111
950,0.03784274859596961,0.8868055555555555
951,0.037941856623719857,0.8868055555555555
952,0.037941856623719857,0.8875
953,0.03800792864222002,0.8875
954,0.03800792864222002,0.8881944444444444
955,0.03805748265609515,0.8881944444444444
956,0.03809051866534523,0.8881944444444444
957,0.03825569871159564,0.8881944444444444
958,0.03825569871159564,0.8888888888888888
959,0.038420878757846055,0.8888888888888888
960,0.038420878757846055,0.8895833333333333
961,0.03931285100759828,0.8895833333333333
962,0.03931285100759828,0.8902777777777777
963,0.03961017509084903,0.8902777777777777
964,0.03961017509084903,0.8909722222222223
965,0.0397588371324744,0.8909722222222223
966,0.03979187314172448,0.8909722222222223
967,0.03990749917409977,0.8909722222222223
968,0.03994053518334985,0.8909722222222223
969,0.03995705318797489,0.8909722222222223
970,0.03999008919722497,0.8909722222222223
971,0.04043607532210109,0.8909722222222223
972,0.04046911133135117,0.8909722222222223
973,0.04068384539147671,0.8909722222222223
974,0.04068384539147671,0.8916666666666667
975,0.040749917409976875,0.8916666666666667
976,0.040749917409976875,0.8923611111111112
977,0.04101420548397754,0.8923611111111112
978,0.04101420548397754,0.8930555555555556
979,0.04132804757185332,0.8930555555555556
980,0.04132804757185332,0.89375
981,0.041493227618103735,0.89375
982,0.041493227618103735,0.8944444444444445
983,0.04225305583085563,0.8944444444444445
984,0.04225305583085563,0.8951388888888889
985,0.043161546085232906,0.8951388888888889
986,0.043161546085232906,0.8958333333333334
987,0.043194582094482986,0.8958333333333334
988,0.043194582094482986,0.8965277777777778
989,0.04398744631648497,0.8965277777777778
990,0.04398744631648497,0.8972222222222223
991,0.04481334654773703,0.8972222222222223
992,0.04484638255698711,0.8972222222222223
993,0.045044598612487614,0.8972222222222223
994,0.045044598612487614,0.8979166666666667
995,0.04540799471423852,0.8979166666666667
996,0.04540799471423852,0.8986111111111111
997,0.04558969276511397,0.8986111111111111
998,0.04558969276511397,0.8993055555555556
999,0.04590353485298976,0.8993055555555556
1000,0.04590353485298976,0.9
1001,0.04610175090849025,0.9
1002,0.04613478691774034,0.9
1003,0.04621737694086554,0.9
1004,0.04621737694086554,0.9006944444444445
1005,0.046861579121242156,0.9006944444444445
1006,0.046894615130492236,0.9006944444444445
1007,0.04717542120911794,0.9006944444444445
1008,0.04717542120911794,0.9013888888888889
1009,0.04745622728774364,0.9013888888888889
1010,0.04745622728774364,0.9020833333333333
1011,0.04798480343574496,0.9020833333333333
1012,0.04798480343574496,0.9027777777777778
1013,0.048149983481995375,0.9027777777777778
1014,0.048149983481995375,0.9034722222222222
1015,0.048414271555996036,0.9034722222222222
1016,0.048414271555996036,0.9041666666666667
1017,0.04854641559299636,0.9041666666666667
1018,0.04854641559299636,0.9048611111111111
1019,0.0489593657086224,0.9048611111111111
1020,0.0489593657086224,0.9055555555555556
1021,0.04910802775024777,0.9055555555555556
1022,0.04910802775024777,0.90625
1023,0.04965312190287413,0.90625
1024,0.04965312190287413,0.9069444444444444
1025,0.049669639907499175,0.9069444444444444
1026,0.049669639907499175,0.9076388888888889
1027,0.049851337958374625,0.9076388888888889
1028,0.049851337958374625,0.9083333333333333
1029,0.05023125206475058,0.9083333333333333
1030,0.05023125206475058,0.9090277777777778
1031,0.050412950115626035,0.9090277777777778
1032,0.050412950115626035,0.9104166666666667
1033,0.050412950115626035,0.9111111111111111
1034,0.05046250412950116,0.9111111111111111
1035,0.05049554013875124,0.9111111111111111
1036,0.050958044268252393,0.9111111111111111
1037,0.050958044268252393,0.9118055555555555
1038,0.05102411628675256,0.9118055555555555
1039,0.05105715229600264,0.9118055555555555
1040,0.051073670300627684,0.9118055555555555
1041,0.051073670300627684,0.9125
1042,0.05140403039312851,0.9125
1043,0.05140403039312851,0.9131944444444444
1044,0.053154938883382886,0.9131944444444444
1045,0.053154938883382886,0.9138888888888889
1046,0.0532375289065081,0.9138888888888889
1047,0.0532375289065081,0.9145833333333333
1048,0.05355137099438388,0.9145833333333333
1049,0.05355137099438388,0.9152777777777777
1050,0.053815659068384536,0.9152777777777777
1051,0.05384869507763462,0.9152777777777777
1052,0.053997357119259994,0.9152777777777777
1053,0.054030393128510074,0.9152777777777777
1054,0.054228609184010575,0.9152777777777777
1055,0.054228609184010575,0.9159722222222222
1056,0.054410307234886025,0.9159722222222222
1057,0.054410307234886025,0.9166666666666666
1058,0.05450941526263627,0.9166666666666666
1059,0.05454245127188636,0.9166666666666666
1060,0.054674595308886687,0.9166666666666666
1061,0.054674595308886687,0.9173611111111111
1062,0.05497191939213743,0.9173611111111111
1063,0.055004955401387515,0.9173611111111111
1064,0.055037991410637595,0.9173611111111111
1065,0.055037991410637595,0.9180555555555555
1066,0.055269243475388176,0.9180555555555555
1067,0.055269243475388176,0.91875
1068,0.05606210769739015,0.91875
1069,0.05609514370664024,0.91875
1070,0.05665675586389164,0.91875
1071,0.05665675586389164,0.9194444444444444
1072,0.05678889990089197,0.9194444444444444
1073,0.05678889990089197,0.9201388888888888
1074,0.05705318797489263,0.9201388888888888
1075,0.05705318797489263,0.9208333333333333
1076,0.0574000660720185,0.9208333333333333
1077,0.0574000660720185,0.9215277777777777
1078,0.05771390815989429,0.9215277777777777
1079,0.05771390815989429,0.9222222222222223
1080,0.05809382226627023,0.9222222222222223
1081,0.05809382226627023,0.9229166666666667
1082,0.05847373637264618,0.9229166666666667
1083,0.05847373637264618,0.9236111111111112
1084,0.0586389164188966,0.9236111111111112
1085,0.0586389164188966,0.9243055555555556
1086,0.05878757846052197,0.9243055555555556
1087,0.05880409646514701,0.925
1088,0.05928311859927321,0.925
1089,0.05928311859927321,0.9256944444444445
1090,0.06057152296002643,0.9256944444444445
1091,0.06058804096465147,0.9263888888888889
1092,0.06065411298315163,0.9263888888888889
1093,0.06065411298315163,0.9270833333333334
1094,0.060918401057152294,0.9270833333333334
1095,0.06095143706640238,0.9270833333333334
1096,0.06123224314502808,0.9270833333333334
1097,0.06123224314502808,0.9277777777777778
1098,0.06159563924677899,0.9277777777777778
1099,0.06159563924677899,0.9284722222222223
1100,0.06209117938553023,0.9284722222222223
1101,0.06209117938553023,0.9291666666666667
1102,0.062157251404030396,0.9291666666666667
1103,0.062157251404030396,0.9298611111111111
1104,0.06291707961678229,0.9298611111111111
1105,0.06291707961678229,0.9305555555555556
1106,0.06293359762140734,0.9305555555555556
1107,0.06293359762140734,0.93125
1108,0.06366038982490915,0.93125
1109,0.06366038982490915,0.9319444444444445
1110,0.06369342583415924,0.9319444444444445
1111,0.0639246778989098,0.9319444444444445
1112,0.0639246778989098,0.9326388888888889
1113,0.0639577139081599,0.9326388888888889
1114,0.06399074991740998,0.9326388888888889
1115,0.0646019160885365,0.9326388888888889
1116,0.0646019160885365,0.9333333333333333
1117,0.06470102411628675,0.9333333333333333
1118,0.06470102411628675,0.9340277777777778
1119,0.06825239511067063,0.9340277777777778
1120,0.06825239511067063,0.9347222222222222
1121,0.06921043937892303,0.9347222222222222
1122,0.0692434753881731,0.9347222222222222
1123,0.06952428146679882,0.9347222222222222
1124,0.06952428146679882,0.9361111111111111
1125,0.06959035348529898,0.9361111111111111
1126,0.06962338949454906,0.9361111111111111
1127,0.07097786587380245,0.9361111111111111
1128,0.07097786587380245,0.9368055555555556
1129,0.07109349190617774,0.9368055555555556
1130,0.07112652791542781,0.9368055555555556
1131,0.07158903204492897,0.9368055555555556
1132,0.07162206805417906,0.9368055555555556
1133,0.07168814007267922,0.9368055555555556
1134,0.07168814007267922,0.9375
1135,0.07203501816980509,0.9375
1136,0.07203501816980509,0.9381944444444444
1137,0.07267922035018169,0.9381944444444444
1138,0.07267922035018169,0.9388888888888889
1139,0.07414932276181037,0.9388888888888889
1140,0.07414932276181037,0.9395833333333333
1141,0.07507433102081268,0.9395833333333333
1142,0.07507433102081268,0.9402777777777778
1143,0.0752395110670631,0.9402777777777778
1144,0.0752395110670631,0.9409722222222222
1145,0.0753221010901883,0.9409722222222222
1146,0.0753221010901883,0.9416666666666667
1147,0.07533861909481335,0.9416666666666667
1148,0.07537165510406343,0.9416666666666667
1149,0.07672613148331682,0.9416666666666667
1150,0.07672613148331682,0.9423611111111111
1151,0.07674264948794185,0.9423611111111111
1152,0.07674264948794185,0.9430555555555555
1153,0.07857614800132144,0.9430555555555555
1154,0.07857614800132144,0.94375
1155,0.07913776015857285,0.94375
1156,0.07915427816319788,0.9444444444444444
1157,0.07918731417244797,0.9444444444444444
1158,0.07918731417244797,0.9451388888888889
1159,0.08121902874132805,0.9451388888888889
1160,0.08125206475057813,0.9451388888888889
1161,0.08130161876445326,0.9451388888888889
1162,0.08133465477370333,0.9451388888888889
1163,0.08135117277832837,0.9451388888888889
1164,0.08135117277832837,0.9458333333333333
1165,0.08178064089857945,0.9458333333333333
1166,0.08178064089857945,0.9465277777777777
1167,0.08252395110670631,0.9465277777777777
1168,0.0825569871159564,0.9465277777777777
1169,0.08336636934258342,0.9465277777777777
1170,0.08336636934258342,0.9472222222222222
1171,0.08377931945820945,0.9472222222222222
1172,0.08381235546745953,0.9472222222222222
1173,0.08483647175421209,0.9472222222222222
1174,0.08483647175421209,0.9479166666666666
1175,0.08485298975883714,0.9479166666666666
1176,0.08485298975883714,0.9486111111111111
1177,0.08486950776346218,0.9486111111111111
1178,0.08486950776346218,0.9493055555555555
1179,0.08498513379583747,0.9493055555555555
1180,0.08501816980508754,0.9493055555555555
1181,0.08553022794846382,0.9493055555555555
1182,0.08553022794846382,0.95
1183,0.08557978196233895,0.95
1184,0.08561281797158903,0.95
1185,0.08591014205483978,0.95
1186,0.08594317806408985,0.95
1187,0.08668648827221671,0.95
1188,0.08668648827221671,0.9506944444444444
1189,0.08771060455896927,0.9506944444444444
1190,0.08771060455896927,0.9513888888888888
1191,0.0880409646514701,0.9513888888888888
1192,0.0880409646514701,0.9520833333333333
1193,0.08929633300297324,0.9520833333333333
1194,0.08932936901222333,0.9520833333333333
1195,0.09008919722497523,0.9520833333333333
1196,0.0901222332342253,0.9520833333333333
1197,0.09070036339610175,0.9520833333333333
1198,0.09070036339610175,0.9527777777777777
1199,0.09096465147010241,0.9527777777777777
1200,0.0909976874793525,0.9527777777777777
1201,0.09155929963660389,0.9527777777777777
1202,0.09155929963660389,0.9534722222222223
1203,0.09165840766435415,0.9534722222222223
1204,0.09169144367360423,0.9534722222222223
1205,0.09190617773372976,0.9534722222222223
1206,0.09190617773372976,0.9541666666666667
1207,0.09263296993723158,0.9541666666666667
1208,0.09263296993723158,0.9548611111111112
1209,0.0929963660389825,0.9548611111111112
1210,0.0929963660389825,0.9555555555555556
1211,0.0930789560621077,0.9555555555555556
1212,0.09311199207135779,0.9555555555555556
1213,0.09416914436736042,0.9555555555555556
1214,0.09416914436736042,0.95625
1215,0.0944829864552362,0.95625
1216,0.09451602246448629,0.95625
1217,0.09453254046911133,0.95625
1218,0.09453254046911133,0.9569444444444445
1219,0.09580442682523951,0.9569444444444445
1220,0.09583746283448959,0.9569444444444445
1221,0.09595308886686488,0.9569444444444445
1222,0.09595308886686488,0.9576388888888889
1223,0.09785265939874463,0.9576388888888889
1224,0.09785265939874463,0.9583333333333334
1225,0.09851337958374629,0.9583333333333334
1226,0.09851337958374629,0.9590277777777778
1227,0.10216385860588041,0.9590277777777778
1228,0.10216385860588041,0.9597222222222223
1229,0.10270895275850678,0.9597222222222223
1230,0.10274198876775685,0.9597222222222223
1231,0.10409646514701024,0.9597222222222223
1232,0.10412950115626032,0.9597222222222223
1233,0.10450941526263627,0.9597222222222223
1234,0.10450941526263627,0.9604166666666667
1235,0.10457548728113644,0.9604166666666667
1236,0.10460852329038652,0.9604166666666667
1237,0.10474066732738685,0.9604166666666667
1238,0.10474066732738685,0.9618055555555556
1239,0.10609514370664024,0.9618055555555556
1240,0.10609514370664024,0.9625
1241,0.10840766435414602,0.9625
1242,0.1084407003633961,0.9625
1243,0.10911793855302279,0.9625
1244,0.10915097456227288,0.9625
1245,0.10921704658077304,0.9625
1246,0.10921704658077304,0.9631944444444445
1247,0.1100429468120251,0.9631944444444445
1248,0.1100429468120251,0.9638888888888889
1249,0.11073670300627685,0.9638888888888889
1250,0.11076973901552692,0.9638888888888889
1251,0.11088536504790221,0.9638888888888889
1252,0.1109184010571523,0.9638888888888889
1253,0.1109184010571523,0.9645833333333333
1254,0.11106706309877767,0.9645833333333333
1255,0.11110009910802775,0.9645833333333333
1256,0.11133135117277833,0.9645833333333333
1257,0.11133135117277833,0.9652777777777778
1258,0.11252064750578131,0.9652777777777778
1259,0.11252064750578131,0.9659722222222222
1260,0.11521308225966304,0.9659722222222222
1261,0.11524611826891311,0.9659722222222222
1262,0.11617112652791543,0.9659722222222222
1263,0.1162041625371655,0.9659722222222222
1264,0.11778989098116947,0.9659722222222222
1265,0.11782292699041956,0.9659722222222222
1266,0.1181202510736703,0.9659722222222222
1267,0.1181202510736703,0.9666666666666667
1268,0.11838453914767096,0.9666666666666667
1269,0.11841757515692104,0.9666666666666667
1270,0.11878097125867196,0.9666666666666667
1271,0.11881400726792203,0.9666666666666667
1272,0.11912784935579782,0.9666666666666667
1273,0.11912784935579782,0.9673611111111111
1274,0.12071357779980178,0.9673611111111111
1275,0.12071357779980178,0.9680555555555556
1276,0.12145688800792864,0.9680555555555556
1277,0.12148992401717873,0.9680555555555556
1278,0.12244796828543111,0.9680555555555556
1279,0.1224810042946812,0.9680555555555556
1280,0.12259663032705649,0.9680555555555556
1281,0.12262966633630658,0.9680555555555556
1282,0.12264618434093162,0.9680555555555556
1283,0.12264618434093162,0.96875
1284,0.12490915097456227,0.96875
1285,0.12490915097456227,0.9694444444444444
1286,0.1250412950115626,0.9694444444444444
1287,0.1250743310208127,0.9694444444444444
1288,0.12573505120581432,0.9694444444444444
1289,0.1257680872150644,0.9694444444444444
1290,0.12603237528906508,0.9694444444444444
1291,0.12606541129831517,0.9694444444444444
1292,0.12806408985794515,0.9694444444444444
1293,0.12809712586719524,0.9694444444444444
1294,0.12966633630657418,0.9694444444444444
1295,0.12969937231582424,0.9694444444444444
1296,0.12973240832507432,0.9694444444444444
1297,0.12973240832507432,0.9701388888888889
1298,0.13002973240832508,0.9701388888888889
1299,0.13006276841757516,0.9701388888888889
1300,0.1301123224314503,0.9701388888888889
1301,0.1301123224314503,0.9708333333333333
1302,0.1326395771390816,0.9708333333333333
1303,0.13267261314833168,0.9708333333333333
1304,0.13268913115295672,0.9708333333333333
1305,0.13268913115295672,0.9715277777777778
1306,0.13384539147670962,0.9715277777777778
1307,0.13384539147670962,0.9722222222222222
1308,0.1348364717542121,0.9722222222222222
1309,0.13486950776346218,0.9722222222222222
1310,0.13554674595308885,0.9722222222222222
1311,0.13557978196233894,0.9722222222222222
1312,0.13564585398083912,0.9722222222222222
1313,0.1356788899900892,0.9722222222222222
1314,0.13642220019821605,0.9722222222222222
1315,0.13645523620746614,0.9722222222222222
1316,0.13681863230921704,0.9722222222222222
1317,0.13685166831846712,0.9722222222222222
1318,0.13804096465147012,0.9722222222222222
1319,0.13807400066072018,0.9722222222222222
1320,0.13898249091509746,0.9722222222222222
1321,0.13901552692434754,0.9722222222222222
1322,0.14154278163197886,0.9722222222222222
1323,0.14157581764122895,0.9722222222222222
1324,0.1433267261314833,0.9722222222222222
1325,0.1433267261314833,0.9729166666666667
1326,0.1458374628344896,0.9729166666666667
1327,0.14587049884373968,0.9729166666666667
1328,0.1499174099768748,0.9729166666666667
1329,0.14995044598612486,0.9729166666666667
1330,0.1520482325735051,0.9729166666666667
1331,0.1520812685827552,0.9729166666666667
1332,0.1567228278823918,0.9729166666666667
1333,0.1567558638916419,0.9729166666666667
1334,0.15782953419226958,0.9729166666666667
1335,0.15782953419226958,0.9736111111111111
1336,0.15842418235877107,0.9736111111111111
1337,0.15845721836802115,0.9736111111111111
1338,0.15910142054839777,0.9736111111111111
1339,0.15913445655764782,0.9736111111111111
1340,0.1593657086223984,0.9736111111111111
1341,0.1593657086223984,0.9743055555555555
1342,0.16291707961678228,0.9743055555555555
1343,0.16291707961678228,0.975
1344,0.16369342583415925,0.975
1345,0.1637264618434093,0.975
1346,0.16686488272216715,0.975
1347,0.16689791873141724,0.975
1348,0.16930954740667328,0.975
1349,0.16930954740667328,0.9756944444444444
1350,0.16934258341592337,0.9756944444444444
1351,0.16934258341592337,0.9763888888888889
1352,0.16937561942517343,0.9763888888888889
1353,0.16937561942517343,0.9770833333333333
1354,0.17147340601255368,0.9770833333333333
1355,0.17147340601255368,0.9777777777777777
1356,0.17264618434093162,0.9777777777777777
1357,0.17264618434093162,0.9784722222222222
1358,0.17299306243805748,0.9784722222222222
1359,0.17302609844730757,0.9784722222222222
1360,0.1734390485629336,0.9784722222222222
1361,0.1734720845721837,0.9784722222222222
1362,0.17395110670630987,0.9784722222222222
1363,0.17398414271555995,0.9784722222222222
1364,0.1761975553353155,0.9784722222222222
1365,0.1762305913445656,0.9784722222222222
1366,0.17661050545094154,0.9784722222222222
1367,0.17664354146019162,0.9784722222222222
1368,0.1770895275850677,0.9784722222222222
1369,0.1770895275850677,0.9791666666666666
1370,0.17811364387182027,0.9791666666666666
1371,0.17811364387182027,0.9798611111111111
1372,0.17902213412619755,0.9798611111111111
1373,0.17905517013544764,0.9798611111111111
1374,0.18149983481995374,0.9798611111111111
1375,0.18153287082920383,0.9798611111111111
1376,0.18270564915758175,0.9798611111111111
1377,0.18273868516683184,0.9798611111111111
1378,0.18334985133795836,0.9798611111111111
1379,0.18338288734720845,0.9798611111111111
1380,0.1846052196894615,0.9798611111111111
1381,0.1846382556987116,0.9798611111111111
1382,0.18729765444334323,0.9798611111111111
1383,0.18733069045259332,0.9798611111111111
1384,0.18779319458209448,0.9798611111111111
1385,0.18782623059134457,0.9798611111111111
1386,0.19179055170135448,0.9798611111111111
1387,0.19179055170135448,0.9805555555555555
1388,0.1934423521638586,0.9805555555555555
1389,0.1934753881731087,0.9805555555555555
1390,0.19378923026098446,0.9805555555555555
1391,0.19382226627023455,0.9805555555555555
1392,0.19393789230260985,0.9805555555555555
1393,0.1939709283118599,0.9805555555555555
1394,0.19425173439048563,0.9805555555555555
1395,0.19425173439048563,0.98125
1396,0.19444995044598612,0.98125
1397,0.1944829864552362,0.98125
1398,0.1952428146679881,0.98125
1399,0.19527585067723818,0.98125
1400,0.19567228278823917,0.98125
1401,0.19570531879748926,0.98125
1402,0.19654773703336637,0.98125
1403,0.19658077304261645,0.98125
1404,0.197604889329369,0.98125
1405,0.1976379253386191,0.98125
1406,0.20089197224975222,0.98125
1407,0.2009250082590023,0.98125
1408,0.20218037661050545,0.98125
1409,0.20221341261975553,0.98125
1410,0.20275850677238189,0.98125
1411,0.20279154278163197,0.98125
1412,0.20569871159563924,0.98125
1413,0.20573174760488933,0.98125
1414,0.20609514370664023,0.98125
1415,0.20612817971589031,0.98125
1416,0.20640898579451603,0.98125
1417,0.20640898579451603,0.9819444444444444
1418,0.20764783614139412,0.9819444444444444
1419,0.2076808721506442,0.9819444444444444
1420,0.20929963660389825,0.9819444444444444
1421,0.20933267261314834,0.9819444444444444
1422,0.21029071688140072,0.9819444444444444
1423,0.2103237528906508,0.9819444444444444
1424,0.21166171126527916,0.9819444444444444
1425,0.21169474727452925,0.9819444444444444
1426,0.21303270564915758,0.9819444444444444
1427,0.21306574165840766,0.9819444444444444
1428,0.2152791542781632,0.9819444444444444
1429,0.2152791542781632,0.9826388888888888
1430,0.21598942847703997,0.9826388888888888
1431,0.21598942847703997,0.9833333333333333
1432,0.21740997687479352,0.9833333333333333
1433,0.2174430128840436,0.9833333333333333
1434,0.21769078295341923,0.9833333333333333
1435,0.21769078295341923,0.9840277777777777
1436,0.21772381896266932,0.9840277777777777
1437,0.2179220350181698,0.9840277777777777
1438,0.2179550710274199,0.9840277777777777
1439,0.22162206805417906,0.9840277777777777
1440,0.22165510406342914,0.9840277777777777
1441,0.22244796828543112,0.9840277777777777
1442,0.2224810042946812,0.9840277777777777
1443,0.22277832837793193,0.9840277777777777
1444,0.22281136438718202,0.9840277777777777
1445,0.2228774364056822,0.9840277777777777
1446,0.22291047241493228,0.9840277777777777
1447,0.2233564585398084,0.9840277777777777
1448,0.2233894945490585,0.9840277777777777
1449,0.22373637264618434,0.9840277777777777
1450,0.22376940865543443,0.9840277777777777
1451,0.22380244466468452,0.9840277777777777
1452,0.22383548067393458,0.9840277777777777
1453,0.22641228939544103,0.9840277777777777
1454,0.22644532540469112,0.9840277777777777
1455,0.22898909811694748,0.9840277777777777
1456,0.22902213412619757,0.9840277777777777
1457,0.22936901222332343,0.9840277777777777
1458,0.2294020482325735,0.9840277777777777
1459,0.2294350842418236,0.9840277777777777
1460,0.22946812025107366,0.9840277777777777
1461,0.23021143045920053,0.9840277777777777
1462,0.23024446646845062,0.9840277777777777
1463,0.23333333333333334,0.9840277777777777
1464,0.23336636934258342,0.9840277777777777
1465,0.23913115295672283,0.9840277777777777
1466,0.2391641889659729,0.9840277777777777
1467,0.23937892302609845,0.9840277777777777
1468,0.23941195903534854,0.9840277777777777
1469,0.23951106706309877,0.9840277777777777
1470,0.23954410307234886,0.9840277777777777
1471,0.2395606210769739,0.9840277777777777
1472,0.239593657086224,0.9840277777777777
1473,0.2400726792203502,0.9840277777777777
1474,0.24010571522960025,0.9840277777777777
1475,0.24160885365047902,0.9840277777777777
1476,0.2416418896597291,0.9840277777777777
1477,0.24245127188635612,0.9840277777777777
1478,0.2424843078956062,0.9840277777777777
1479,0.24418566237198547,0.9840277777777777
1480,0.24418566237198547,0.9847222222222223
1481,0.2451271886356128,0.9847222222222223
1482,0.2451602246448629,0.9847222222222223
1483,0.24578790882061446,0.9847222222222223
1484,0.24582094482986455,0.9847222222222223
1485,0.24587049884373968,0.9847222222222223
1486,0.24590353485298977,0.9847222222222223
1487,0.24732408325074332,0.9847222222222223
1488,0.2473571192599934,0.9847222222222223
1489,0.248794185662372,0.9847222222222223
1490,0.24882722167162208,0.9847222222222223
1491,0.253204492897258,0.9847222222222223
1492,0.2532375289065081,0.9847222222222223
1493,0.25363396101750907,0.9847222222222223
1494,0.25366699702675916,0.9847222222222223
1495,0.25520317145688803,0.9847222222222223
1496,0.25523620746613807,0.9847222222222223
1497,0.25647505781301616,0.9847222222222223
1498,0.25650809382226625,0.9847222222222223
1499,0.25716881400726793,0.9847222222222223
1500,0.257201850016518,0.9847222222222223
1501,0.2583250743310208,0.9847222222222223
1502,0.2583250743310208,0.9854166666666667
1503,0.25878757846052197,0.9854166666666667
1504,0.25878757846052197,0.9861111111111112
1505,0.25893624050214736,0.9861111111111112
1506,0.25896927651139745,0.9861111111111112
1507,0.2607201850016518,0.9861111111111112
1508,0.26075322101090187,0.9861111111111112
1509,0.2625206475057813,0.9861111111111112
1510,0.2625536835150314,0.9861111111111112
1511,0.26513049223653784,0.9861111111111112
1512,0.26513049223653784,0.9868055555555556
1513,0.2660224644862901,0.9868055555555556
1514,0.26605550049554016,0.9868055555555556
1515,0.26734390485629334,0.9868055555555556
1516,0.2673769408655434,0.9868055555555556
1517,0.2682358771060456,0.9868055555555556
1518,0.26826891311529566,0.9868055555555556
1519,0.2683680211430459,0.9868055555555556
1520,0.268401057152296,0.9868055555555556
1521,0.26866534522629665,0.9868055555555556
1522,0.26869838123554673,0.9868055555555556
1523,0.2688305252725471,0.9868055555555556
1524,0.2688305252725471,0.9875
1525,0.2711595639246779,0.9875
1526,0.27119259993392797,0.9875
1527,0.2714734060125537,0.9875
1528,0.2714734060125537,0.9881944444444445
1529,0.27213412619755534,0.9881944444444445
1530,0.2721671622068054,0.9881944444444445
1531,0.27333994053518335,0.9881944444444445
1532,0.27337297654443343,0.9881944444444445
1533,0.2738354806739346,0.9881944444444445
1534,0.2738354806739346,0.9888888888888889
1535,0.27401717872481,0.9888888888888889
1536,0.27401717872481,0.9895833333333334
1537,0.27487611496531217,0.9895833333333334
1538,0.27490915097456226,0.9895833333333334
1539,0.27637925338619096,0.9895833333333334
1540,0.27641228939544105,0.9895833333333334
1541,0.27689131152956725,0.9895833333333334
1542,0.27689131152956725,0.9902777777777778
1543,0.2799306243805748,0.9902777777777778
1544,0.2799636603898249,0.9902777777777778
1545,0.28085563263957714,0.9902777777777778
1546,0.2808886686488272,0.9902777777777778
1547,0.28097125867195244,0.9902777777777778
1548,0.2810042946812025,0.9902777777777778
1549,0.28130161876445325,0.9902777777777778
1550,0.28133465477370334,0.9902777777777778
1551,0.2822266270234556,0.9902777777777778
1552,0.2822266270234556,0.9909722222222223
1553,0.2833994053518335,0.9909722222222223
1554,0.2834324413610836,0.9909722222222223
1555,0.28356458539808393,0.9909722222222223
1556,0.283597621407334,0.9909722222222223
1557,0.28422530558308556,0.9909722222222223
1558,0.28425834159233565,0.9909722222222223
1559,0.28447307565246116,0.9909722222222223
1560,0.28450611166171125,0.9909722222222223
1561,0.2869672943508424,0.9909722222222223
1562,0.2870003303600925,0.9909722222222223
1563,0.2878427485959696,0.9909722222222223
1564,0.2878757846052197,0.9909722222222223
1565,0.2885530227948464,0.9909722222222223
1566,0.2885860588040965,0.9909722222222223
1567,0.2901552692434754,0.9909722222222223
1568,0.2901552692434754,0.9916666666666667
1569,0.2908490254377271,0.9916666666666667
1570,0.2908490254377271,0.9923611111111111
1571,0.29101420548397755,0.9923611111111111
1572,0.29104724149322764,0.9923611111111111
1573,0.2915758176412289,0.9923611111111111
1574,0.291608853650479,0.9923611111111111
1575,0.2918401057152296,0.9923611111111111
1576,0.2918731417244797,0.9923611111111111
1577,0.2932771721176082,0.9923611111111111
1578,0.2932771721176082,0.9930555555555556
1579,0.294383878427486,0.9930555555555556
1580,0.29441691443673607,0.9930555555555556
1581,0.29520977865873804,0.9930555555555556
1582,0.29524281466798813,0.9930555555555556
1583,0.29674595308886687,0.9930555555555556
1584,0.29677898909811695,0.9930555555555556
1585,0.29722497522299307,0.9930555555555556
1586,0.29725801123224316,0.9930555555555556
1587,0.29829864552362073,0.9930555555555556
1588,0.2983316815328708,0.9930555555555556
1589,0.29874463164849685,0.9930555555555556
1590,0.29877766765774694,0.9930555555555556
1591,0.2994218698381236,0.9930555555555556
1592,0.29945490584737366,0.9930555555555556
1593,0.29976874793524944,0.9930555555555556
1594,0.2998017839444995,0.9930555555555556
1595,0.30061116617112654,0.9930555555555556
1596,0.30064420218037663,0.9930555555555556
1597,0.3021143045920053,0.9930555555555556
1598,0.30214734060125537,0.9930555555555556
1599,0.3025933267261315,0.9930555555555556
1600,0.30262636273538157,0.9930555555555556
1601,0.3040964651470102,0.9930555555555556
1602,0.3041295011562603,0.9930555555555556
1603,0.30474066732738686,0.9930555555555556
1604,0.30477370333663695,0.9930555555555556
1605,0.30622728774364055,0.9930555555555556
1606,0.30626032375289064,0.9930555555555556
1607,0.30820944829864555,0.9930555555555556
1608,0.3082424843078956,0.9930555555555556
1609,0.3088371324743971,0.9930555555555556
1610,0.3088701684836472,0.9930555555555556
1611,0.30890320449289727,0.9930555555555556
1612,0.30893624050214735,0.9930555555555556
1613,0.3139246778989098,0.9930555555555556
1614,0.3139577139081599,0.9930555555555556
1615,0.3141559299636604,0.9930555555555556
1616,0.31418896597291046,0.9930555555555556
1617,0.3168814007267922,0.9930555555555556
1618,0.3169144367360423,0.9930555555555556
1619,0.3175256029071688,0.9930555555555556
1620,0.3175586389164189,0.9930555555555556
1621,0.32010241162867525,0.9930555555555556
1622,0.32013544763792534,0.9930555555555556
1623,0.3201519656425504,0.9930555555555556
1624,0.32018500165180047,0.9930555555555556
1625,0.3205649157581764,0.9930555555555556
1626,0.3205979517674265,0.9930555555555556
1627,0.3236372646184341,0.9930555555555556
1628,0.32367030062768415,0.9930555555555556
1629,0.32517343904856294,0.9930555555555556
1630,0.32517343904856294,0.99375
1631,0.32550379914106375,0.99375
1632,0.32553683515031384,0.99375
1633,0.3267261314833168,0.99375
1634,0.3267591674925669,0.99375
1635,0.32826230591344563,0.99375
1636,0.32826230591344563,0.9944444444444445
1637,0.3292533861909481,0.9944444444444445
1638,0.3292864222001982,0.9944444444444445
1639,0.33105384869507765,0.9944444444444445
1640,0.33108688470432773,0.9944444444444445
1641,0.3325239511067063,0.9944444444444445
1642,0.3325569871159564,0.9944444444444445
1643,0.33290386521308224,0.9944444444444445
1644,0.3329369012223323,0.9944444444444445
1645,0.33325074331020815,0.9944444444444445
1646,0.3332837793194582,0.9944444444444445
1647,0.3351503138420879,0.9944444444444445
1648,0.33518334985133796,0.9944444444444445
1649,0.3355137099438388,0.9944444444444445
1650,0.33554674595308887,0.9944444444444445
1651,0.3373472084572184,0.9944444444444445
1652,0.33738024446646847,0.9944444444444445
1653,0.34046911133135116,0.9944444444444445
1654,0.34050214734060125,0.9944444444444445
1655,0.3413610835811034,0.9944444444444445
1656,0.3413941195903535,0.9944444444444445
1657,0.3424843078956062,0.9944444444444445
1658,0.3425173439048563,0.9944444444444445
1659,0.3443178064089858,0.9944444444444445
1660,0.3443508424182359,0.9944444444444445
1661,0.344796828543112,0.9944444444444445
1662,0.3448298645523621,0.9944444444444445
1663,0.34492897258011235,0.9944444444444445
1664,0.3449620085893624,0.9944444444444445
1665,0.3465972910472415,0.9944444444444445
1666,0.34663032705649155,0.9944444444444445
1667,0.34838123554674594,0.9944444444444445
1668,0.348414271555996,0.9944444444444445
1669,0.35361744301288406,0.9944444444444445
1670,0.35365047902213415,0.9944444444444445
1671,0.3538817310868847,0.9944444444444445
1672,0.3539147670961348,0.9944444444444445
1673,0.35429468120251073,0.9944444444444445
1674,0.3543277172117608,0.9944444444444445
1675,0.35558308556326396,0.9944444444444445
1676,0.35561612157251404,0.9944444444444445
1677,0.35569871159563926,0.9944444444444445
1678,0.35573174760488935,0.9944444444444445
1679,0.35829203832177076,0.9944444444444445
1680,0.3583250743310208,0.9944444444444445
1681,0.3610670630987777,0.9944444444444445
1682,0.36110009910802776,0.9944444444444445
1683,0.3622068054179055,0.9944444444444445
1684,0.3622398414271556,0.9944444444444445
1685,0.3655269243475388,0.9944444444444445
1686,0.3655599603567889,0.9944444444444445
1687,0.36665014866204165,0.9944444444444445
1688,0.3666831846712917,0.9944444444444445
1689,0.3671291707961678,0.9944444444444445
1690,0.3671622068054179,0.9944444444444445
1691,0.3692434753881731,0.9944444444444445
1692,0.3692765113974232,0.9944444444444445
1693,0.370383217707301,0.9944444444444445
1694,0.370416253716551,0.9944444444444445
1695,0.37317476048893294,0.9944444444444445
1696,0.37320779649818303,0.9944444444444445
1697,0.3751569210439379,0.9944444444444445
1698,0.375189957053188,0.9944444444444445
1699,0.37561942517343905,0.9944444444444445
1700,0.37565246118268913,0.9944444444444445
1701,0.37879088206144695,0.9944444444444445
1702,0.37882391807069704,0.9944444444444445
1703,0.3809547406673274,0.9944444444444445
1704,0.38098777667657746,0.9944444444444445
1705,0.38105384869507763,0.9944444444444445
1706,0.3810868847043277,0.9944444444444445
1707,0.3813676907829534,0.9944444444444445
1708,0.3814007267922035,0.9944444444444445
1709,0.3826726131483317,0.9944444444444445
1710,0.38270564915758176,0.9944444444444445
1711,0.38457218368021145,0.9944444444444445
1712,0.3846052196894615,0.9944444444444445
1713,0.3854971919392137,0.9944444444444445
1714,0.3854971919392137,0.9951388888888889
1715,0.3857119259993393,0.9951388888888889
1716,0.3857449620085894,0.9951388888888889
1717,0.388404360753221,0.9951388888888889
1718,0.3884373967624711,0.9951388888888889
1719,0.389593657086224,0.9951388888888889
1720,0.38962669309547404,0.9951388888888889
1721,0.39101420548397753,0.9951388888888889
1722,0.3910472414932276,0.9951388888888889
1723,0.3922860918401057,0.9951388888888889
1724,0.3923191278493558,0.9951388888888889
1725,0.3942186983812355,0.9951388888888889
1726,0.3942517343904856,0.9951388888888889
1727,0.39625041295011565,0.9951388888888889
1728,0.39625041295011565,0.9958333333333333
1729,0.3978031053848695,0.9958333333333333
1730,0.3978361413941196,0.9958333333333333
1731,0.40029732408325075,0.9958333333333333
1732,0.40033036009250084,0.9958333333333333
1733,0.4005946481665015,0.9958333333333333
1734,0.40062768417575156,0.9958333333333333
1735,0.4042946812025107,0.9958333333333333
1736,0.4043277172117608,0.9958333333333333
1737,0.4068880079286422,0.9958333333333333
1738,0.4069210439378923,0.9958333333333333
1739,0.41199207135778,0.9958333333333333
1740,0.41199207135778,0.9965277777777778
1741,0.41227287743640567,0.9965277777777778
1742,0.41230591344565576,0.9965277777777778
1743,0.4153452262966634,0.9965277777777778
1744,0.41537826230591346,0.9965277777777778
1745,0.4159398744631648,0.9965277777777778
1746,0.4159729104724149,0.9965277777777778
1747,0.41661711265279155,0.9965277777777778
1748,0.41665014866204164,0.9965277777777778
1749,0.4185166831846713,0.9965277777777778
1750,0.41854971919392137,0.9965277777777778
1751,0.4186818632309217,0.9965277777777778
1752,0.4187148992401718,0.9965277777777778
1753,0.42913776015857286,0.9965277777777778
1754,0.42917079616782294,0.9965277777777778
1755,0.43017839444995043,0.9965277777777778
1756,0.4302114304592005,0.9965277777777778
1757,0.43270564915758175,0.9965277777777778
1758,0.43273868516683184,0.9965277777777778
1759,0.43278823918070697,0.9965277777777778
1760,0.43282127518995706,0.9965277777777778
1761,0.43300297324083253,0.9965277777777778
1762,0.43303600925008257,0.9965277777777778
1763,0.4351007598282127,0.9965277777777778
1764,0.4351337958374628,0.9965277777777778
1765,0.43538156590683846,0.9965277777777778
1766,0.43541460191608855,0.9965277777777778
1767,0.4361909481334655,0.9965277777777778
1768,0.43622398414271557,0.9965277777777778
1769,0.4383052527254708,0.9965277777777778
1770,0.43833828873472086,0.9965277777777778
1771,0.44022134126197554,0.9965277777777778
1772,0.4402543772712256,0.9965277777777778
1773,0.4405186653452263,0.9965277777777778
1774,0.44055170135447635,0.9965277777777778
1775,0.4426164519326065,0.9965277777777778
1776,0.4426494879418566,0.9965277777777778
1777,0.4427320779649818,0.9965277777777778
1778,0.4427651139742319,0.9965277777777778
1779,0.4432771721176082,0.9965277777777778
1780,0.4433102081268583,0.9965277777777778
1781,0.4444334324413611,0.9965277777777778
1782,0.44446646845061116,0.9965277777777778
1783,0.4487611496531219,0.9965277777777778
1784,0.448794185662372,0.9965277777777778
1785,0.45341922695738357,0.9965277777777778
1786,0.45345226296663366,0.9965277777777778
1787,0.4557317476048893,0.9965277777777778
1788,0.4557647836141394,0.9965277777777778
1789,0.4585728444003964,0.9965277777777778
1790,0.4585728444003964,0.9972222222222222
1791,0.4590849025437727,0.9972222222222222
1792,0.4591179385530228,0.9972222222222222
1793,0.4604724149322762,0.9972222222222222
1794,0.4605054509415263,0.9972222222222222
1795,0.4619259993392798,0.9972222222222222
1796,0.4619590353485299,0.9972222222222222
1797,0.46205814337628015,0.9972222222222222
1798,0.46209117938553024,0.9972222222222222
1799,0.46233894945490583,0.9972222222222222
1800,0.4623719854641559,0.9972222222222222
1801,0.4624710934919062,0.9972222222222222
1802,0.46250412950115627,0.9972222222222222
1803,0.46390815989428474,0.9972222222222222
1804,0.46394119590353483,0.9972222222222222
1805,0.4653947803105385,0.9972222222222222
1806,0.4654278163197886,0.9972222222222222
1807,0.4656755863891642,0.9972222222222222
1808,0.46570862239841426,0.9972222222222222
1809,0.4658407664354146,0.9972222222222222
1810,0.4658738024446647,0.9972222222222222
1811,0.46655104063429137,0.9972222222222222
1812,0.46658407664354146,0.9972222222222222
1813,0.46821935910142054,0.9972222222222222
1814,0.4682523951106706,0.9972222222222222
1815,0.4715725140403039,0.9972222222222222
1816,0.471605550049554,0.9972222222222222
1817,0.47162206805417906,0.9972222222222222
1818,0.47165510406342914,0.9972222222222222
1819,0.4719193921374298,0.9972222222222222
1820,0.47195242814667987,0.9972222222222222
1821,0.47234886025768086,0.9972222222222222
1822,0.47238189626693095,0.9972222222222222
1823,0.472398414271556,0.9972222222222222
1824,0.4724314502808061,0.9972222222222222
1825,0.47466138090518667,0.9972222222222222
1826,0.47469441691443676,0.9972222222222222
1827,0.4747604889329369,0.9972222222222222
1828,0.47479352494218696,0.9972222222222222
1829,0.4750743310208127,0.9972222222222222
1830,0.4751073670300628,0.9972222222222222
1831,0.47598282127519,0.9972222222222222
1832,0.47601585728444,0.9972222222222222
1833,0.47629666336306575,0.9972222222222222
1834,0.47632969937231584,0.9972222222222222
1835,0.47651139742319126,0.9972222222222222
1836,0.47654443343244135,0.9972222222222222
1837,0.4783283779319458,0.9972222222222222
1838,0.4783614139411959,0.9972222222222222
1839,0.4791212421539478,0.9972222222222222
1840,0.4791542781631979,0.9972222222222222
1841,0.48330029732408325,0.9972222222222222
1842,0.48333333333333334,0.9972222222222222
1843,0.48369672943508424,0.9972222222222222
1844,0.4837297654443343,0.9972222222222222
1845,0.48402708952758505,0.9972222222222222
1846,0.48406012553683514,0.9972222222222222
1847,0.4841592335645854,0.9972222222222222
1848,0.4841922695738355,0.9972222222222222
1849,0.48602576808721504,0.9972222222222222
1850,0.4860588040964651,0.9972222222222222
1851,0.48607532210109017,0.9972222222222222
1852,0.48610835811034026,0.9972222222222222
1853,0.48878427485959697,0.9972222222222222
1854,0.48881731086884705,0.9972222222222222
1855,0.4907664354146019,0.9972222222222222
1856,0.490799471423852,0.9972222222222222
1857,0.4915592996366039,0.9972222222222222
1858,0.491592335645854,0.9972222222222222
1859,0.49213742979848035,0.9972222222222222
1860,0.49217046580773044,0.9972222222222222
1861,0.49449950445986124,0.9972222222222222
1862,0.4945325404691113,0.9972222222222222
1863,0.49479682854311197,0.9972222222222222
1864,0.49482986455236205,0.9972222222222222
1865,0.49641559299636606,0.9972222222222222
1866,0.4964816650148662,0.9972222222222222
1867,0.4965312190287413,0.9972222222222222
1868,0.4965642550379914,0.9972222222222222
1869,0.4987115956392468,0.9972222222222222
1870,0.49874463164849686,0.9972222222222222
1871,0.49932276181037333,0.9972222222222222
1872,0.4993557978196234,0.9972222222222222
1873,0.5017509084902544,0.9972222222222222
1874,0.5018004625041295,0.9972222222222222
1875,0.5027254707631318,0.9972222222222222
1876,0.5027585067723819,0.9972222222222222
1877,0.5032375289065081,0.9972222222222222
1878,0.5032705649157582,0.9972222222222222
1879,0.5038652130822596,0.9972222222222222
1880,0.5038982490915097,0.9972222222222222
1881,0.505616121572514,0.9972222222222222
1882,0.5056491575817641,0.9972222222222222
1883,0.5070366699702676,0.9972222222222222
1884,0.5070697059795177,0.9972222222222222
1885,0.5072679220350181,0.9972222222222222
1886,0.5073009580442682,0.9972222222222222
1887,0.5090353485298976,0.9972222222222222
1888,0.5090683845391477,0.9972222222222222
1889,0.5102741988767757,0.9972222222222222
1890,0.5103072348860258,0.9972222222222222
1891,0.510439378923026,0.9972222222222222
1892,0.5104724149322761,0.9972222222222222
1893,0.5117773372976544,0.9972222222222222
1894,0.5118103733069045,0.9972222222222222
1895,0.5130657416584077,0.9972222222222222
1896,0.5130987776676578,0.9972222222222222
1897,0.5131483316815328,0.9972222222222222
1898,0.5131813676907829,0.9972222222222222
1899,0.5136438718202841,0.9972222222222222
1900,0.5136769078295342,0.9972222222222222
1901,0.5145688800792865,0.9972222222222222
1902,0.5146019160885366,0.9972222222222222
1903,0.5148496861579122,0.9972222222222222
1904,0.5148827221671622,0.9972222222222222
1905,0.5151800462504129,0.9972222222222222
1906,0.515213082259663,0.9972222222222222
1907,0.5159068384539147,0.9972222222222222
1908,0.5159398744631648,0.9972222222222222
1909,0.5161711265279154,0.9972222222222222
1910,0.5162041625371655,0.9972222222222222
1911,0.5165180046250413,0.9972222222222222
1912,0.5165510406342914,0.9972222222222222
1913,0.5168648827221671,0.9972222222222222
1914,0.5168979187314172,0.9972222222222222
1915,0.5175090849025438,0.9972222222222222
1916,0.5175090849025438,0.9979166666666667
1917,0.5178229269904195,0.9979166666666667
1918,0.5178559629996696,0.9979166666666667
1919,0.5213577799801784,0.9979166666666667
1920,0.5213908159894285,0.9979166666666667
1921,0.5219193921374298,0.9979166666666667
1922,0.5219524281466799,0.9979166666666667
1923,0.5220680541790552,0.9979166666666667
1924,0.5221010901883053,0.9979166666666667
1925,0.5225140403039313,0.9979166666666667
1926,0.5225140403039313,0.9986111111111111
1927,0.5227122563594317,0.9986111111111111
1928,0.5227452923686818,0.9986111111111111
1929,0.52401717872481,0.9986111111111111
1930,0.5240502147340601,0.9986111111111111
1931,0.5247770069375619,0.9986111111111111
1932,0.524810042946812,0.9986111111111111
1933,0.5263627353815659,0.9986111111111111
1934,0.526395771390816,0.9986111111111111
1935,0.5305913445655764,0.9986111111111111
1936,0.5306243805748265,0.9986111111111111
1937,0.5327221671622068,0.9986111111111111
1938,0.5327552031714569,0.9986111111111111
1939,0.5348529897588371,0.9986111111111111
1940,0.5349190617773373,0.9986111111111111
1941,0.5355302279484638,0.9986111111111111
1942,0.5355632639577139,0.9986111111111111
1943,0.5363561281797159,0.9986111111111111
1944,0.536389164188966,0.9986111111111111
1945,0.5410472414932276,0.9986111111111111
1946,0.5410802775024777,0.9986111111111111
1947,0.5412454575487281,0.9986111111111111
1948,0.5412784935579782,0.9986111111111111
1949,0.5412950115626033,0.9986111111111111
1950,0.5413280475718533,0.9986111111111111
1951,0.5423356458539809,0.9986111111111111
1952,0.542368681863231,0.9986111111111111
1953,0.5435084241823588,0.9986111111111111
1954,0.5435414601916089,0.9986111111111111
1955,0.5452428146679881,0.9986111111111111
1956,0.5452758506772382,0.9986111111111111
1957,0.5467129170796168,0.9986111111111111
1958,0.5467459530888669,0.9986111111111111
1959,0.5476709613478692,0.9986111111111111
1960,0.5477039973571193,0.9986111111111111
1961,0.5481665014866204,0.9986111111111111
1962,0.5481995374958705,0.9986111111111111
1963,0.5498843739676247,0.9986111111111111
1964,0.5499174099768748,0.9986111111111111
1965,0.5506276841757516,0.9986111111111111
1966,0.5506607201850017,0.9986111111111111
1967,0.5521473406012554,0.9986111111111111
1968,0.5521803766105055,0.9986111111111111
1969,0.5522464486290056,0.9986111111111111
1970,0.5522794846382557,0.9986111111111111
1971,0.553204492897258,0.9986111111111111
1972,0.5532375289065081,0.9986111111111111
1973,0.5557813016187645,0.9986111111111111
1974,0.5558143376280146,0.9986111111111111
1975,0.5559299636603898,0.9986111111111111
1976,0.5559629996696399,0.9986111111111111
1977,0.5587049884373968,0.9986111111111111
1978,0.5587380244466469,0.9986111111111111
1979,0.5602741988767757,0.9986111111111111
1980,0.5603072348860257,0.9986111111111111
1981,0.5630492236537826,0.9986111111111111
1982,0.5630822596630327,0.9986111111111111
1983,0.5633630657416584,0.9986111111111111
1984,0.5633961017509085,0.9986111111111111
1985,0.5678559629996697,0.9986111111111111
1986,0.5678889990089198,0.9986111111111111
1987,0.5679055170135447,0.9986111111111111
1988,0.5679385530227948,0.9986111111111111
1989,0.5681202510736703,0.9986111111111111
1990,0.5681532870829203,0.9986111111111111
1991,0.5700693756194252,0.9986111111111111
1992,0.5701024116286753,0.9986111111111111
1993,0.5701354476379253,0.9986111111111111
1994,0.5701684836471754,0.9986111111111111
1995,0.5723653782623059,0.9986111111111111
1996,0.572398414271556,0.9986111111111111
1997,0.5746613809051867,0.9986111111111111
1998,0.5746944169144368,0.9986111111111111
1999,0.5757846052196894,0.9986111111111111
2000,0.5758176412289395,0.9986111111111111
2001,0.5762966633630657,0.9986111111111111
2002,0.5763296993723158,0.9986111111111111
2003,0.5766765774694417,0.9986111111111111
2004,0.5767096134786918,0.9986111111111111
2005,0.5791542781631979,0.9986111111111111
2006,0.579187314172448,0.9986111111111111
2007,0.5816154608523291,0.9986111111111111
2008,0.5816650148662041,0.9986111111111111
2009,0.5833333333333334,0.9986111111111111
2010,0.5833663693425835,0.9986111111111111
2011,0.5861579121242154,0.9986111111111111
2012,0.5861909481334655,0.9986111111111111
2013,0.5889659729104724,0.9986111111111111
2014,0.5889990089197225,0.9986111111111111
2015,0.5896266930954741,0.9986111111111111
2016,0.5896597291047242,0.9986111111111111
2017,0.5897753551370994,0.9986111111111111
2018,0.5898083911463495,0.9986111111111111
2019,0.5920878757846052,0.9986111111111111
2020,0.5921209117938553,0.9986111111111111
2021,0.5931285100759828,0.9986111111111111
2022,0.5931615460852329,0.9986111111111111
2023,0.593591014205484,0.9986111111111111
2024,0.5936240502147341,0.9986111111111111
2025,0.5959200528576148,0.9986111111111111
2026,0.5959530888668649,0.9986111111111111
2027,0.5960356788899901,0.9986111111111111
2028,0.5960687148992402,0.9986111111111111
2029,0.596382556987116,0.9986111111111111
2030,0.596415592996366,0.9986111111111111
2031,0.5965642550379914,0.9986111111111111
2032,0.5965972910472415,0.9986111111111111
2033,0.5976048893293691,0.9986111111111111
2034,0.5976379253386191,0.9986111111111111
2035,0.5982656095143707,0.9986111111111111
2036,0.5982986455236208,0.9986111111111111
2037,0.5984473075652461,0.9986111111111111
2038,0.5984803435744962,0.9986111111111111
2039,0.6009250082590023,0.9986111111111111
2040,0.6009580442682524,0.9986111111111111
2041,0.6023125206475057,0.9986111111111111
2042,0.6023455566567558,0.9986111111111111
2043,0.6038156590683845,0.9986111111111111
2044,0.6038486950776346,0.9986111111111111
2045,0.6043607532210109,0.9986111111111111
2046,0.604393789230261,0.9986111111111111
2047,0.60599603567889,0.9986111111111111
2048,0.60602907168814,0.9986111111111111
2049,0.6077139081598942,0.9986111111111111
2050,0.6077469441691443,0.9986111111111111
2051,0.6102246448629005,0.9986111111111111
2052,0.6102576808721506,0.9986111111111111
2053,0.6115295672282788,0.9986111111111111
2054,0.6115626032375289,0.9986111111111111
2055,0.6121902874132805,0.9986111111111111
2056,0.6122233234225306,0.9986111111111111
2057,0.6127353815659068,0.9986111111111111
2058,0.6127684175751569,0.9986111111111111
2059,0.6135447637925339,0.9986111111111111
2060,0.613577799801784,0.9986111111111111
2061,0.6141394119590353,0.9986111111111111
2062,0.6141724479682854,0.9986111111111111
2063,0.6150313842087876,0.9986111111111111
2064,0.6150644202180376,0.9986111111111111
2065,0.6158242484307895,0.9986111111111111
2066,0.6158572844400396,0.9986111111111111
2067,0.6168483647175421,0.9986111111111111
2068,0.6168814007267922,0.9986111111111111
2069,0.61802114304592,0.9986111111111111
2070,0.6180541790551701,0.9986111111111111
2071,0.6197885695407994,0.9986111111111111
2072,0.6198216055500495,0.9986111111111111
2073,0.6223323422530558,0.9986111111111111
2074,0.6223653782623059,0.9986111111111111
2075,0.6229104724149322,0.9986111111111111
2076,0.6229435084241823,0.9986111111111111
2077,0.6229930624380575,0.9986111111111111
2078,0.6230260984473076,0.9986111111111111
2079,0.6235216385860588,0.9986111111111111
2080,0.6235546745953089,0.9986111111111111
2081,0.6270730095804427,0.9986111111111111
2082,0.6271060455896927,0.9986111111111111
2083,0.6274198876775685,0.9986111111111111
2084,0.6274529236868186,0.9986111111111111
2085,0.6282623059134457,0.9986111111111111
2086,0.6282953419226958,0.9986111111111111
2087,0.6294516022464486,0.9986111111111111
2088,0.6294846382556987,0.9986111111111111
2089,0.6297158903204493,0.9986111111111111
2090,0.6297489263296994,0.9986111111111111
2091,0.6305417905517013,0.9986111111111111
2092,0.6305748265609514,0.9986111111111111
2093,0.6334324413610836,0.9986111111111111
2094,0.6334654773703337,0.9986111111111111
2095,0.6359431780640898,0.9986111111111111
2096,0.6359762140733399,0.9986111111111111
2097,0.6362900561612157,0.9986111111111111
2098,0.6363230921704658,0.9986111111111111
2099,0.636785596299967,0.9986111111111111
2100,0.6368186323092171,0.9986111111111111
2101,0.637198546415593,0.9986111111111111
2102,0.6372315824248431,0.9986111111111111
2103,0.6475057813016187,0.9986111111111111
2104,0.6475388173108688,0.9986111111111111
2105,0.6503138420878758,0.9986111111111111
2106,0.6503468780971259,0.9986111111111111
2107,0.6518334985133796,0.9986111111111111
2108,0.6518665345226297,0.9986111111111111
2109,0.6520482325735051,0.9986111111111111
2110,0.6520812685827552,0.9986111111111111
2111,0.6531879748926329,0.9986111111111111
2112,0.653221010901883,0.9986111111111111
2113,0.6534027089527585,0.9986111111111111
2114,0.6534357449620086,0.9986111111111111
2115,0.6559629996696399,0.9986111111111111
2116,0.65599603567889,0.9986111111111111
2117,0.6574661380905187,0.9986111111111111
2118,0.6574991740997688,0.9986111111111111
2119,0.6603072348860257,0.9986111111111111
2120,0.6603402708952758,0.9986111111111111
2121,0.6606706309877767,0.9986111111111111
2122,0.6607036669970268,0.9986111111111111
2123,0.6617773372976544,0.9986111111111111
2124,0.6618103733069045,0.9986111111111111
2125,0.6630822596630327,0.9986111111111111
2126,0.6631152956722828,0.9986111111111111
2127,0.6638090518665345,0.9986111111111111
2128,0.6638420878757846,0.9986111111111111
2129,0.666418896597291,0.9986111111111111
2130,0.6664519326065411,0.9986111111111111
2131,0.6692434753881731,0.9986111111111111
2132,0.6692765113974232,0.9986111111111111
2133,0.6714734060125537,0.9986111111111111
2134,0.6715064420218038,0.9986111111111111
2135,0.6768252395110671,0.9986111111111111
2136,0.6768252395110671,0.9993055555555556
2137,0.682804757185332,0.9993055555555556
2138,0.682837793194582,0.9993055555555556
2139,0.6843244136108358,0.9993055555555556
2140,0.6843574496200859,0.9993055555555556
2141,0.6845061116617113,0.9993055555555556
2142,0.6845391476709614,0.9993055555555556
2143,0.6852163858605881,0.9993055555555556
2144,0.6852824578790883,0.9993055555555556
2145,0.6875123885034687,0.9993055555555556
2146,0.6875454245127188,0.9993055555555556
2147,0.6887182028410967,0.9993055555555556
2148,0.6887512388503468,0.9993055555555556
2149,0.6897092831185992,0.9993055555555556
2150,0.6897423191278493,0.9993055555555556
2151,0.69000660720185,0.9993055555555556
2152,0.6900396432111001,0.9993055555555556
2153,0.6915592996366039,0.9993055555555556
2154,0.691592335645854,0.9993055555555556
2155,0.6931450280806079,0.9993055555555556
2156,0.6931780640898579,0.9993055555555556
2157,0.6942186983812355,0.9993055555555556
2158,0.6942517343904856,0.9993055555555556
2159,0.6949289725801123,0.9993055555555556
2160,0.6949620085893624,0.9993055555555556
2161,0.6983647175421209,0.9993055555555556
2162,0.698397753551371,0.9993055555555556
2163,0.6995374958704988,0.9993055555555556
2164,0.6995705318797489,0.9993055555555556
2165,0.6996861579121242,0.9993055555555556
2166,0.6997191939213743,0.9993055555555556
2167,0.6998017839444995,0.9993055555555556
2168,0.6998348199537496,0.9993055555555556
2169,0.7006937561942518,0.9993055555555556
2170,0.7007267922035019,0.9993055555555556
2171,0.704393789230261,0.9993055555555556
2172,0.7044268252395111,0.9993055555555556
2173,0.7101420548397753,0.9993055555555556
2174,0.7101750908490254,0.9993055555555556
2175,0.7120911793855302,0.9993055555555556
2176,0.7121242153947803,0.9993055555555556
2177,0.7132639577139082,0.9993055555555556
2178,0.7132969937231582,0.9993055555555556
2179,0.7228278823918071,0.9993055555555556
2180,0.7228609184010572,0.9993055555555556
2181,0.7240832507433103,0.9993055555555556
2182,0.7241162867525603,0.9993055555555556
2183,0.7246118268913115,0.9993055555555556
2184,0.7246448629005616,0.9993055555555556
2185,0.7263627353815659,0.9993055555555556
2186,0.726395771390816,0.9993055555555556
2187,0.7270730095804426,0.9993055555555556
2188,0.7271060455896927,0.9993055555555556
2189,0.7299966963990749,0.9993055555555556
2190,0.730029732408325,0.9993055555555556
2191,0.7302279484638255,0.9993055555555556
2192,0.7302609844730756,0.9993055555555556
2193,0.7303105384869508,0.9993055555555556
2194,0.7303435744962009,0.9993055555555556
2195,0.7309712586719525,0.9993055555555556
2196,0.7310042946812025,0.9993055555555556
2197,0.732391807069706,0.9993055555555556
2198,0.7324248430789561,0.9993055555555556
2199,0.7331516352824579,0.9993055555555556
2200,0.733184671291708,0.9993055555555556
2201,0.7339610175090849,0.9993055555555556
2202,0.733994053518335,0.9993055555555556
2203,0.7343409316154609,0.9993055555555556
2204,0.734373967624711,0.9993055555555556
2205,0.7355632639577139,0.9993055555555556
2206,0.735596299966964,0.9993055555555556
2207,0.7361909481334655,0.9993055555555556
2208,0.7362239841427156,0.9993055555555556
2209,0.7368516683184672,0.9993055555555556
2210,0.7368847043277172,0.9993055555555556
2211,0.7388833828873472,0.9993055555555556
2212,0.7389164188965973,0.9993055555555556
2213,0.7391476709613479,0.9993055555555556
2214,0.7391807069705979,0.9993055555555556
2215,0.7403204492897258,0.9993055555555556
2216,0.7403534852989759,0.9993055555555556
2217,0.7421539478031054,0.9993055555555556
2218,0.7421869838123555,0.9993055555555556
2219,0.7423521638586059,0.9993055555555556
2220,0.742385199867856,0.9993055555555556
2221,0.742401717872481,0.9993055555555556
2222,0.7424347538817311,0.9993055555555556
2223,0.7432771721176082,0.9993055555555556
2224,0.7433102081268583,0.9993055555555556
2225,0.7433597621407334,0.9993055555555556
2226,0.7433927981499835,0.9993055555555556
2227,0.7442847703997357,0.9993055555555556
2228,0.7443178064089858,0.9993055555555556
2229,0.747175421209118,0.9993055555555556
2230,0.747208457218368,0.9993055555555556
2231,0.7473571192599934,0.9993055555555556
2232,0.7473901552692435,0.9993055555555556
2233,0.7488932936901223,0.9993055555555556
2234,0.7489263296993723,0.9993055555555556
2235,0.7506937561942517,0.9993055555555556
2236,0.7507267922035018,0.9993055555555556
2237,0.7511397423191278,0.9993055555555556
2238,0.7511727783283779,0.9993055555555556
2239,0.7514535844070036,0.9993055555555556
2240,0.7514866204162537,0.9993055555555556
2241,0.7554013875123885,0.9993055555555556
2242,0.7554344235216386,0.9993055555555556
2243,0.7555335315493888,0.9993055555555556
2244,0.7555665675586389,0.9993055555555556
2245,0.7560621076973901,0.9993055555555556
2246,0.7560951437066402,0.9993055555555556
2247,0.7570862239841427,0.9993055555555556
2248,0.7571192599933928,0.9993055555555556
2249,0.7573009580442682,0.9993055555555556
2250,0.7573339940535183,0.9993055555555556
2251,0.759217046580773,0.9993055555555556
2252,0.7592500825900231,0.9993055555555556
2253,0.7599603567889,0.9993055555555556
2254,0.75999339279815,0.9993055555555556
2255,0.7620251073670301,0.9993055555555556
2256,0.7620581433762802,0.9993055555555556
2257,0.7650313842087876,0.9993055555555556
2258,0.7650313842087876,1.0
2259,0.7652461182689131,1.0
2260,0.7652791542781632,1.0
2261,0.7658738024446646,1.0
2262,0.7659068384539147,1.0
2263,0.7659563924677899,1.0
2264,0.76598942847704,1.0
2265,0.7674099768747935,1.0
2266,0.7674430128840436,1.0
2267,0.7682854311199208,1.0
2268,0.7683184671291708,1.0
2269,0.7687314172447969,1.0
2270,0.768764453254047,1.0
2271,0.7698216055500495,1.0
2272,0.7698546415592996,1.0
2273,0.7730921704658077,1.0
2274,0.7731252064750578,1.0
2275,0.7754046911133136,1.0
2276,0.7754377271225636,1.0
2277,0.7763627353815659,1.0
2278,0.776395771390816,1.0
2279,0.7803766105054509,1.0
2280,0.780409646514701,1.0
2281,0.7807400066072019,1.0
2282,0.780773042616452,1.0
2283,0.7810868847043277,1.0
2284,0.7811199207135778,1.0
2285,0.7865708622398414,1.0
2286,0.7866038982490915,1.0
2287,0.7882722167162207,1.0
2288,0.7883052527254708,1.0
2289,0.7886521308225967,1.0
2290,0.7886851668318468,1.0
2291,0.7905517013544764,1.0
2292,0.7905847373637265,1.0
2293,0.7914767096134787,1.0
2294,0.7915097456227288,1.0
2295,0.7941691443673604,1.0
2296,0.7942021803766105,1.0
2297,0.794400396432111,1.0
2298,0.7944334324413611,1.0
2299,0.7973240832507433,1.0
2300,0.7973571192599934,1.0
2301,0.79803435744962,1.0
2302,0.7980673934588701,1.0
2303,0.7987446316484969,1.0
2304,0.7987776676577469,1.0
2305,0.7997687479352494,1.0
2306,0.7998017839444995,1.0
2307,0.8017013544763792,1.0
2308,0.8017343904856293,1.0
2309,0.8046085232903866,1.0
2310,0.8046415592996367,1.0
2311,0.804806739345887,1.0
2312,0.8048397753551371,1.0
2313,0.8050875454245128,1.0
2314,0.8051205814337627,1.0
2315,0.8086389164188966,1.0
2316,0.8086719524281467,1.0
2317,0.8093657086223984,1.0
2318,0.8093987446316485,1.0
2319,0.8104889329369013,1.0
2320,0.8105219689461513,1.0
2321,0.8109514370664024,1.0
2322,0.8109844730756525,1.0
2323,0.8112487611496532,1.0
2324,0.8112817971589033,1.0
2325,0.8126858275520317,1.0
2326,0.8127188635612818,1.0
2327,0.8140733399405352,1.0
2328,0.8141063759497853,1.0
2329,0.8149983481995375,1.0
2330,0.8150313842087876,1.0
2331,0.8176907829534192,1.0
2332,0.8177238189626693,1.0
2333,0.8189296333002973,1.0
2334,0.8189626693095474,1.0
2335,0.8194416914436736,1.0
2336,0.8194747274529237,1.0
2337,0.820003303600925,1.0
2338,0.8200363396101751,1.0
2339,0.8207135777998018,1.0
2340,0.8207466138090519,1.0
2341,0.8224314502808061,1.0
2342,0.8224644862900562,1.0
2343,0.824777006937562,1.0
2344,0.824810042946812,1.0
2345,0.8288899900891972,1.0
2346,0.8289230260984473,1.0
2347,0.8293359762140733,1.0
2348,0.8293690122233234,1.0
2349,0.8305252725470763,1.0
2350,0.8305583085563264,1.0
2351,0.8372150644202181,1.0
2352,0.8372481004294681,1.0
2353,0.8372976544433433,1.0
2354,0.8373306904525933,1.0
2355,0.8384704327717212,1.0
2356,0.8385034687809713,1.0
2357,0.8387182028410968,1.0
2358,0.8387512388503469,1.0
2359,0.8402708952758506,1.0
2360,0.8403039312851007,1.0
2361,0.8430459200528576,1.0
2362,0.8430789560621077,1.0
2363,0.8490089197224975,1.0
2364,0.8490419557317476,1.0
2365,0.8498678559629996,1.0
2366,0.8499008919722497,1.0
2367,0.8508919722497522,1.0
2368,0.8509250082590023,1.0
2369,0.8533531549388834,1.0
2370,0.8533861909481335,1.0
2371,0.8550379914106376,1.0
2372,0.8550710274198877,1.0
2373,0.8609349190617773,1.0
2374,0.8609679550710274,1.0
2375,0.8646845061116617,1.0
2376,0.8647175421209118,1.0
2377,0.8675256029071688,1.0
2378,0.8675586389164189,1.0
2379,0.8681202510736703,1.0
2380,0.8681532870829204,1.0
2381,0.8713742979848035,1.0
2382,0.8714073339940536,1.0
2383,0.8729765444334324,1.0
2384,0.8730095804426825,1.0
2385,0.8754707631318137,1.0
2386,0.8755037991410638,1.0
2387,0.8772712256359432,1.0
2388,0.8773042616451933,1.0
2389,0.8820944829864552,1.0
2390,0.8821275189957053,1.0
2391,0.8853154938883383,1.0
2392,0.8853485298975884,1.0
2393,0.8873306904525933,1.0
2394,0.8873637264618434,1.0
2395,0.894400396432111,1.0
2396,0.8944334324413611,1.0
2397,0.8964981830194912,1.0
2398,0.8965642550379914,1.0
2399,0.8970928311859927,1.0
2400,0.8971258671952428,1.0
2401,0.9008754542451272,1.0
2402,0.9009084902543772,1.0
2403,0.9081103402708953,1.0
2404,0.9081433762801454,1.0
2405,0.9093326726131483,1.0
2406,0.9093657086223984,1.0
2407,0.9121076973901553,1.0
2408,0.9121407333994054,1.0
2409,0.9134291377601585,1.0
2410,0.9134621737694086,1.0
2411,0.9193425834159233,1.0
2412,0.9193756194251734,1.0
2413,0.9201684836471754,1.0
2414,0.9202015196564255,1.0
2415,0.9214073339940535,1.0
2416,0.9214403700033036,1.0
2417,0.9249256689791873,1.0
2418,0.9249587049884374,1.0
2419,0.9286587380244467,1.0
2420,0.9286917740336967,1.0
2421,0.9290716881400727,1.0
2422,0.9291047241493228,1.0
2423,0.931582424843079,1.0
2424,0.931615460852329,1.0
2425,0.9343078956062107,1.0
2426,0.9343409316154608,1.0
2427,0.9431450280806079,1.0
2428,0.9431780640898579,1.0
2429,0.9450611166171127,1.0
2430,0.9450941526263628,1.0
2431,0.9453914767096134,1.0
2432,0.9454245127188635,1.0
2433,0.9463330029732409,1.0
2434,0.9463660389824909,1.0
2435,0.9518169805087545,1.0
2436,0.9518500165180046,1.0
2437,0.9540799471423852,1.0
2438,0.9541129831516353,1.0
2439,0.9541625371655104,1.0
2440,0.9541955731747604,1.0
2441,0.9544598612487611,1.0
2442,0.9544928972580112,1.0
2443,0.9575322101090188,1.0
2444,0.9575652461182689,1.0
2445,0.9592831185992732,1.0
2446,0.9593161546085233,1.0
2447,0.9611496531219029,1.0
2448,0.961182689131153,1.0
2449,0.9635777998017839,1.0
2450,0.963610835811034,1.0
2451,0.9758341592335645,1.0
2452,0.9758671952428146,1.0
2453,0.9823092170465808,1.0
2454,0.9823422530558309,1.0
2455,0.9839610175090849,1.0
2456,0.983994053518335,1.0
2457,0.9891311529567228,1.0
2458,0.9891641889659729,1.0
2459,0.9916584076643541,1.0
2460,0.9916914436736042,1.0
2461,0.9953419226957384,1.0
2462,0.9953749587049885,1.0
2463,1.0,1.0
