indx,fpr,tpr
0,0.0,0.0
1,0.0,2.6674491184080665e-05
2,0.0,0.00021339592947264532
3,1.6191159303197268e-06,0.00021339592947264532
4,1.6191159303197268e-06,0.0007735602443383392
5,6.476463721278907e-06,0.0007735602443383392
6,6.476463721278907e-06,0.0008002347355224199
7,8.095579651598635e-06,0.0008002347355224199
8,8.095579651598635e-06,0.0008269092267065006
9,1.2952927442557815e-05,0.0008269092267065006
10,1.2952927442557815e-05,0.0008535837178905813
11,1.619115930319727e-05,0.0008535837178905813
12,1.619115930319727e-05,0.0009069327002587425
13,1.7810275233516995e-05,0.0009069327002587425
14,1.7810275233516995e-05,0.0009336071914428232
15,1.942939116383672e-05,0.0009336071914428232
16,1.942939116383672e-05,0.0009869561738109845
17,2.104850709415645e-05,0.0009869561738109845
18,2.104850709415645e-05,0.0010136306649950653
19,2.2667623024476175e-05,0.0010136306649950653
20,2.2667623024476175e-05,0.0011470031209154686
21,2.4286738954795904e-05,0.0011470031209154686
22,2.4286738954795904e-05,0.0011736776120995491
23,3.076320267607481e-05,0.0011736776120995491
24,3.076320267607481e-05,0.00120035210328363
25,3.238231860639454e-05,0.00120035210328363
26,3.238231860639454e-05,0.0012270265944677105
27,3.4001434536714264e-05,0.0012270265944677105
28,3.4001434536714264e-05,0.0012537010856517913
29,3.7239666397353715e-05,0.0012537010856517913
30,3.7239666397353715e-05,0.0014137480327562752
31,4.20970141883129e-05,0.0014137480327562752
32,4.20970141883129e-05,0.0014404225239403557
33,4.3716130118632624e-05,0.0014404225239403557
34,4.3716130118632624e-05,0.001493771506308517
35,4.6954361979272075e-05,0.001493771506308517
36,4.6954361979272075e-05,0.001520445997492598
37,4.857347790959181e-05,0.001520445997492598
38,4.857347790959181e-05,0.0016538184534130012
39,5.019259383991153e-05,0.0016538184534130012
40,5.019259383991153e-05,0.0017071674357811626
41,5.181170977023126e-05,0.0017071674357811626
42,5.181170977023126e-05,0.0017338419269652431
43,5.828817349151017e-05,0.0017338419269652431
44,5.828817349151017e-05,0.0017605164181493237
45,5.9907289421829894e-05,0.0017605164181493237
46,5.9907289421829894e-05,0.0017871909093334045
47,6.152640535214963e-05,0.0017871909093334045
48,6.152640535214963e-05,0.001813865400517485
49,6.314552128246934e-05,0.001813865400517485
50,6.314552128246934e-05,0.0019205633652538078
51,6.476463721278908e-05,0.0019205633652538078
52,6.476463721278908e-05,0.0019472378564378884
53,6.800286907342853e-05,0.0019472378564378884
54,6.800286907342853e-05,0.001973912347621969
55,7.286021686438771e-05,0.001973912347621969
56,7.286021686438771e-05,0.0020005868388060497
57,7.447933279470743e-05,0.0020005868388060497
58,7.447933279470743e-05,0.0020272613299901305
59,7.609844872502716e-05,0.0020272613299901305
60,7.609844872502716e-05,0.0020539358211742113
61,8.257491244630607e-05,0.0020539358211742113
62,8.257491244630607e-05,0.0021072848035423725
63,8.41940283766258e-05,0.0021072848035423725
64,8.41940283766258e-05,0.0021339592947264533
65,8.905137616758498e-05,0.0021339592947264533
66,8.905137616758498e-05,0.0021606337859105336
67,9.06704920979047e-05,0.0021606337859105336
68,9.06704920979047e-05,0.002213982768278695
69,9.876607174950333e-05,0.002213982768278695
70,9.876607174950333e-05,0.0022406572594627755
71,0.00010200430361014279,0.0022406572594627755
72,0.00010200430361014279,0.002320680733015018
73,0.00010362341954046252,0.002320680733015018
74,0.00010362341954046252,0.002374029715383179
75,0.00010524253547078225,0.002374029715383179
76,0.00010524253547078225,0.00240070420656726
77,0.00010686165140110197,0.00240070420656726
78,0.00010686165140110197,0.002454053188935421
79,0.00011333811512238087,0.002454053188935421
80,0.00011333811512238087,0.002480727680119502
81,0.0001149572310527006,0.002480727680119502
82,0.0001149572310527006,0.0025074021713035826
83,0.00011657634698302034,0.0025074021713035826
84,0.00011657634698302034,0.0025607511536717437
85,0.00011819546291334005,0.0025607511536717437
86,0.00011819546291334005,0.0025874256448558245
87,0.00011981457884365979,0.0025874256448558245
88,0.00011981457884365979,0.002614100136039905
89,0.0001214336947739795,0.002614100136039905
90,0.0001214336947739795,0.002694123609592147
91,0.00012305281070429925,0.002694123609592147
92,0.00012305281070429925,0.0028274960655125503
93,0.00013114839035589787,0.0028274960655125503
94,0.00013114839035589787,0.002854170556696631
95,0.00013438662221653734,0.002854170556696631
96,0.00013438662221653734,0.0028808450478807115
97,0.00013600573814685706,0.0028808450478807115
98,0.00013600573814685706,0.003067566486169276
99,0.00013762485407717678,0.003067566486169276
100,0.00013762485407717678,0.003094240977353357
101,0.0001392439700074965,0.003094240977353357
102,0.0001392439700074965,0.0031475899597215185
103,0.00014086308593781624,0.0031475899597215185
104,0.00014086308593781624,0.0032009389420896797
105,0.00014248220186813596,0.0032009389420896797
106,0.00014248220186813596,0.0032276134332737605
107,0.00014572043372877542,0.0032276134332737605
108,0.00014572043372877542,0.0033609858891941635
109,0.00015219689745005433,0.0033609858891941635
110,0.00015219689745005433,0.0034410093627464055
111,0.00015381601338037404,0.0034410093627464055
112,0.00015381601338037404,0.0034676838539304863
113,0.00015543512931069376,0.0034676838539304863
114,0.00015543512931069376,0.003547707327482728
115,0.0001570542452410135,0.003547707327482728
116,0.0001570542452410135,0.00360105630985089
117,0.0001619115930319727,0.00360105630985089
118,0.0001619115930319727,0.00362773080103497
119,0.00016514982489261213,0.00362773080103497
120,0.00016514982489261213,0.003654405292219051
121,0.0001683880567532516,0.003654405292219051
122,0.0001683880567532516,0.003707754274587212
123,0.00017324540454421078,0.003707754274587212
124,0.00017324540454421078,0.0037611032569553737
125,0.00017648363640485022,0.0037611032569553737
126,0.00017648363640485022,0.003814452239323535
127,0.00017810275233516996,0.003814452239323535
128,0.00017810275233516996,0.0038411267305076156
129,0.00017972186826548968,0.0038411267305076156
130,0.00017972186826548968,0.0039211502040598575
131,0.00018296010012612912,0.0039211502040598575
132,0.00018296010012612912,0.003947824695243938
133,0.00018619833198676858,0.003947824695243938
134,0.00018619833198676858,0.003974499186428019
135,0.0001878174479170883,0.003974499186428019
136,0.0001878174479170883,0.0040011736776120995
137,0.00018943656384740805,0.0040011736776120995
138,0.00018943656384740805,0.004054522659980261
139,0.00019267479570804749,0.004054522659980261
140,0.00019267479570804749,0.004081197151164341
141,0.00019591302756868695,0.004081197151164341
142,0.00019591302756868695,0.004187895115900665
143,0.00019753214349900667,0.004187895115900665
144,0.00019753214349900667,0.004294593080636987
145,0.0001991512594293264,0.004294593080636987
146,0.0001991512594293264,0.004321267571821067
147,0.00020077037535964613,0.004321267571821067
148,0.00020077037535964613,0.004401291045373309
149,0.00020724683908092504,0.004401291045373309
150,0.00020724683908092504,0.00442796553655739
151,0.00020886595501124475,0.00442796553655739
152,0.00020886595501124475,0.004454640027741471
153,0.0002169615346628434,0.004454640027741471
154,0.0002169615346628434,0.004534663501293713
155,0.00021858065059316312,0.004534663501293713
156,0.00021858065059316312,0.004561337992477794
157,0.00022019976652348284,0.004561337992477794
158,0.00022019976652348284,0.004588012483661874
159,0.0002282953461750815,0.004588012483661874
160,0.0002282953461750815,0.004668035957214116
161,0.00023153357803572093,0.004668035957214116
162,0.00023153357803572093,0.0046947104483981966
163,0.0002347718098963604,0.0046947104483981966
164,0.0002347718098963604,0.004721384939582278
165,0.0002363909258266801,0.004721384939582278
166,0.0002363909258266801,0.004748059430766358
167,0.00023962915768731957,0.004748059430766358
168,0.00023962915768731957,0.0047747339219504385
169,0.000242867389547959,0.0047747339219504385
170,0.000242867389547959,0.00480140841313452
171,0.0002461056214085985,0.00480140841313452
172,0.0002461056214085985,0.00485475739550268
173,0.00025096296919955766,0.00485475739550268
174,0.00025096296919955766,0.004881431886686762
175,0.0002525820851298774,0.004881431886686762
176,0.0002525820851298774,0.004908106377870842
177,0.0002558203169905168,0.004908106377870842
178,0.0002558203169905168,0.004934780869054922
179,0.0002574394329208366,0.004934780869054922
180,0.0002574394329208366,0.004961455360239004
181,0.0002590585488511563,0.004961455360239004
182,0.0002590585488511563,0.004988129851423084
183,0.0002655350125724352,0.004988129851423084
184,0.0002655350125724352,0.005014804342607165
185,0.0002703923603633944,0.005014804342607165
186,0.0002703923603633944,0.0050414788337912455
187,0.00027363059222403383,0.0050414788337912455
188,0.00027363059222403383,0.005094827816159407
189,0.00027524970815435355,0.005094827816159407
190,0.00027524970815435355,0.005201525780895729
191,0.00027686882408467327,0.005201525780895729
192,0.00027686882408467327,0.00522820027207981
193,0.00028010705594531276,0.00522820027207981
194,0.00028010705594531276,0.005254874763263891
195,0.00028820263559691135,0.005254874763263891
196,0.00028820263559691135,0.005281549254447971
197,0.00028982175152723113,0.005281549254447971
198,0.00028982175152723113,0.005334898236816133
199,0.00029144086745755085,0.005334898236816133
200,0.00029144086745755085,0.005361572728000213
201,0.0002946790993181903,0.005361572728000213
202,0.0002946790993181903,0.005414921710368375
203,0.00029629821524851,0.005414921710368375
204,0.00029629821524851,0.0054682706927365364
205,0.0002979173311788297,0.0054682706927365364
206,0.0002979173311788297,0.005521619675104697
207,0.0002979173311788297,0.005601643148656939
208,0.00030277467896978893,0.005601643148656939
209,0.00030277467896978893,0.00562831763984102
210,0.00030439379490010865,0.00562831763984102
211,0.00030439379490010865,0.005708341113393262
212,0.0003076320267607481,0.005708341113393262
213,0.0003076320267607481,0.005735015604577343
214,0.0003092511426910678,0.005735015604577343
215,0.0003092511426910678,0.005788364586945504
216,0.00031734672234266646,0.005788364586945504
217,0.00031734672234266646,0.005841713569313666
218,0.0003189658382729862,0.005841713569313666
219,0.0003189658382729862,0.005868388060497746
220,0.0003238231860639454,0.005868388060497746
221,0.0003238231860639454,0.005921737042865908
222,0.00032868053385490454,0.005921737042865908
223,0.00032868053385490454,0.005948411534049988
224,0.00033029964978522426,0.005948411534049988
225,0.00033029964978522426,0.005975086025234068
226,0.000331918765715544,0.005975086025234068
227,0.000331918765715544,0.00600176051641815
228,0.00033515699757618347,0.00600176051641815
229,0.00033515699757618347,0.00602843500760223
230,0.0003383952294368229,0.00602843500760223
231,0.0003383952294368229,0.00605510949878631
232,0.00034163346129746235,0.00605510949878631
233,0.00034163346129746235,0.006108458481154472
234,0.00034487169315810184,0.006108458481154472
235,0.00034487169315810184,0.006135132972338552
236,0.0003481099250187413,0.006135132972338552
237,0.0003481099250187413,0.0061618074635226335
238,0.0003513481568793807,0.0061618074635226335
239,0.0003513481568793807,0.006188481954706714
240,0.00035458638874002015,0.006188481954706714
241,0.00035458638874002015,0.006321854410627117
242,0.0003643010843219385,0.006321854410627117
243,0.0003643010843219385,0.006375203392995279
244,0.00036592020025225824,0.006375203392995279
245,0.00036592020025225824,0.006401877884179359
246,0.00036915843211289773,0.006401877884179359
247,0.00036915843211289773,0.00642855237536344
248,0.00037077754804321745,0.00642855237536344
249,0.00037077754804321745,0.006481901357731601
250,0.0003740157799038569,0.006481901357731601
251,0.0003740157799038569,0.006561924831283843
252,0.0003756348958341766,0.006561924831283843
253,0.0003756348958341766,0.006615273813652005
254,0.0003788731276948161,0.006615273813652005
255,0.0003788731276948161,0.006641948304836085
256,0.00038858782327673446,0.006641948304836085
257,0.00038858782327673446,0.0066686227960201655
258,0.0003918260551373739,0.0066686227960201655
259,0.0003918260551373739,0.006695297287204247
260,0.00039506428699801334,0.006695297287204247
261,0.00039506428699801334,0.006721971778388327
262,0.00039668340292833306,0.006721971778388327
263,0.00039668340292833306,0.00682866974312465
264,0.00039992163478897255,0.00682866974312465
265,0.00039992163478897255,0.006855344234308731
266,0.00041125544630121063,0.006855344234308731
267,0.00041125544630121063,0.006908693216676892
268,0.00041287456223153035,0.006908693216676892
269,0.00041287456223153035,0.006988716690229134
270,0.0004225892578134487,0.006988716690229134
271,0.0004225892578134487,0.0070153911814132145
272,0.00042582748967408816,0.0070153911814132145
273,0.00042582748967408816,0.007042065672597295
274,0.0004274466056044079,0.007042065672597295
275,0.0004274466056044079,0.007095414654965456
276,0.00043716130118632624,0.007095414654965456
277,0.00043716130118632624,0.007122089146149537
278,0.00043878041711664596,0.007122089146149537
279,0.00043878041711664596,0.007148763637333618
280,0.0004403995330469657,0.007148763637333618
281,0.0004403995330469657,0.00722878711088586
282,0.0004420186489772854,0.00722878711088586
283,0.0004420186489772854,0.00725546160206994
284,0.0004452568808379249,0.00725546160206994
285,0.0004452568808379249,0.0073621595668062634
286,0.0004533524604895235,0.0073621595668062634
287,0.0004533524604895235,0.007388834057990344
288,0.00046144804014112213,0.007388834057990344
289,0.00046144804014112213,0.007415508549174424
290,0.0004646862720017616,0.007415508549174424
291,0.0004646862720017616,0.007442183040358505
292,0.0004695436197927208,0.007442183040358505
293,0.0004695436197927208,0.007468857531542586
294,0.0004727818516533602,0.007468857531542586
295,0.0004727818516533602,0.007495532022726666
296,0.0004824965472352786,0.007495532022726666
297,0.0004824965472352786,0.007575555496278909
298,0.0004841156631655983,0.007575555496278909
299,0.0004841156631655983,0.007602229987462989
300,0.000492211242817197,0.007602229987462989
301,0.000492211242817197,0.00762890447864707
302,0.0004954494746778364,0.00762890447864707
303,0.0004954494746778364,0.007655578969831151
304,0.0005003068224687956,0.007655578969831151
305,0.0005003068224687956,0.0077089279521993116
306,0.0005019259383991153,0.0077089279521993116
307,0.0005019259383991153,0.007735602443383393
308,0.0005051641702597548,0.007735602443383393
309,0.0005051641702597548,0.007762276934567473
310,0.0005067832861900745,0.007762276934567473
311,0.0005067832861900745,0.007842300408119715
312,0.0005148788658416732,0.007842300408119715
313,0.0005148788658416732,0.007868974899303795
314,0.000521355329562952,0.007868974899303795
315,0.000521355329562952,0.007895649390487876
316,0.0005278317932842309,0.007895649390487876
317,0.0005278317932842309,0.007922323881671958
318,0.0005310700251448704,0.007922323881671958
319,0.0005310700251448704,0.007948998372856038
320,0.0005326891410751901,0.007948998372856038
321,0.0005326891410751901,0.008002347355224199
322,0.0005375464888661494,0.008002347355224199
323,0.0005375464888661494,0.00802902184640828
324,0.0005424038366571085,0.00802902184640828
325,0.0005424038366571085,0.008082370828776442
326,0.0005440229525874282,0.008082370828776442
327,0.0005440229525874282,0.008109045319960522
328,0.0005521185322390268,0.008109045319960522
329,0.0005521185322390268,0.008162394302328683
330,0.0005602141118906255,0.008162394302328683
331,0.0005602141118906255,0.008189068793512763
332,0.0005618332278209452,0.008189068793512763
333,0.0005618332278209452,0.008215743284696845
334,0.0005683096915422241,0.008215743284696845
335,0.0005683096915422241,0.008269092267065006
336,0.0005715479234028636,0.008269092267065006
337,0.0005715479234028636,0.008295766758249086
338,0.000574786155263503,0.008295766758249086
339,0.000574786155263503,0.008322441249433167
340,0.0005796435030544623,0.008322441249433167
341,0.0005796435030544623,0.008349115740617247
342,0.000581262618984782,0.008349115740617247
343,0.000581262618984782,0.00840246472298541
344,0.0005845008508454214,0.00840246472298541
345,0.0005845008508454214,0.00848248819653765
346,0.0005877390827060608,0.00848248819653765
347,0.0005877390827060608,0.008535837178905813
348,0.000610406705730537,0.008535837178905813
349,0.000610406705730537,0.008589186161273974
350,0.0006136449375911765,0.008589186161273974
351,0.0006136449375911765,0.008615860652458054
352,0.0006185022853821356,0.008615860652458054
353,0.0006185022853821356,0.008642535143642134
354,0.0006201214013124553,0.008642535143642134
355,0.0006201214013124553,0.008669209634826217
356,0.0006233596331730949,0.008669209634826217
357,0.0006233596331730949,0.008722558617194377
358,0.0006249787491034146,0.008722558617194377
359,0.0006249787491034146,0.008749233108378458
360,0.0006298360968943738,0.008749233108378458
361,0.0006298360968943738,0.008775907599562538
362,0.0006314552128246935,0.008775907599562538
363,0.0006314552128246935,0.00885593107311478
364,0.000646027256197571,0.00885593107311478
365,0.000646027256197571,0.008882605564298861
366,0.0006541228358491696,0.008882605564298861
367,0.0006541228358491696,0.008909280055482941
368,0.0006557419517794894,0.008909280055482941
369,0.0006557419517794894,0.008935954546667022
370,0.0006622184155007682,0.008935954546667022
371,0.0006622184155007682,0.008962629037851102
372,0.000663837531431088,0.008962629037851102
373,0.000663837531431088,0.008989303529035184
374,0.0006670757632917275,0.008989303529035184
375,0.0006670757632917275,0.009015978020219265
376,0.0006703139951523669,0.009015978020219265
377,0.0006703139951523669,0.009069327002587425
378,0.0006719331110826867,0.009069327002587425
379,0.0006719331110826867,0.009122675984955588
380,0.0006751713429433261,0.009122675984955588
381,0.0006751713429433261,0.009149350476139668
382,0.0006784095748039655,0.009149350476139668
383,0.0006784095748039655,0.009176024967323749
384,0.000681647806664605,0.009176024967323749
385,0.000681647806664605,0.009202699458507829
386,0.0006832669225949247,0.009202699458507829
387,0.0006832669225949247,0.00925604844087599
388,0.0006848860385252444,0.00925604844087599
389,0.0006848860385252444,0.009309397423244152
390,0.0006865051544555641,0.009309397423244152
391,0.0006865051544555641,0.009336071914428232
392,0.0006913625022465234,0.009336071914428232
393,0.0006913625022465234,0.009389420896796393
394,0.0006946007341071628,0.009389420896796393
395,0.0006946007341071628,0.009416095387980473
396,0.0006978389659678023,0.009416095387980473
397,0.0006978389659678023,0.009442769879164556
398,0.0007091727774800403,0.009442769879164556
399,0.0007091727774800403,0.009522793352716797
400,0.0007124110093406798,0.009522793352716797
401,0.0007124110093406798,0.009549467843900877
402,0.0007140301252709996,0.009549467843900877
403,0.0007140301252709996,0.009576142335084959
404,0.000717268357131639,0.009576142335084959
405,0.000717268357131639,0.00960281682626904
406,0.0007188874730619587,0.00960281682626904
407,0.0007188874730619587,0.00962949131745312
408,0.0007237448208529179,0.00962949131745312
409,0.0007237448208529179,0.0096561658086372
410,0.0007269830527135573,0.0096561658086372
411,0.0007269830527135573,0.00968284029982128
412,0.0007302212845741968,0.00968284029982128
413,0.0007302212845741968,0.009736189282189443
414,0.0007334595164348363,0.009736189282189443
415,0.0007334595164348363,0.009762863773373523
416,0.0007383168642257955,0.009762863773373523
417,0.0007383168642257955,0.009789538264557604
418,0.0007399359801561152,0.009789538264557604
419,0.0007399359801561152,0.009816212755741684
420,0.0007415550960864349,0.009816212755741684
421,0.0007415550960864349,0.009842887246925764
422,0.0007447933279470743,0.009842887246925764
423,0.0007447933279470743,0.009896236229293927
424,0.0007528889075986729,0.009896236229293927
425,0.0007528889075986729,0.009922910720478007
426,0.0007626036031805913,0.009922910720478007
427,0.0007626036031805913,0.009949585211662088
428,0.0007642227191109111,0.009949585211662088
429,0.0007642227191109111,0.010082957667582491
430,0.0007658418350412308,0.010082957667582491
431,0.0007658418350412308,0.010136306649950652
432,0.0007674609509715505,0.010136306649950652
433,0.0007674609509715505,0.010162981141134732
434,0.0007739374146928294,0.010162981141134732
435,0.0007739374146928294,0.010189655632318814
436,0.0007755565306231491,0.010189655632318814
437,0.0007755565306231491,0.010216330123502895
438,0.0007836521102747478,0.010216330123502895
439,0.0007836521102747478,0.010243004614686975
440,0.0007868903421353872,0.010243004614686975
441,0.0007868903421353872,0.010296353597055136
442,0.0007901285739960267,0.010296353597055136
443,0.0007901285739960267,0.010349702579423298
444,0.0007933668058566661,0.010349702579423298
445,0.0007933668058566661,0.010376377070607378
446,0.0008014623855082648,0.010376377070607378
447,0.0008014623855082648,0.01042972605297554
448,0.0008030815014385845,0.01042972605297554
449,0.0008030815014385845,0.01045640054415962
450,0.0008047006173689043,0.01045640054415962
451,0.0008047006173689043,0.010509749526527782
452,0.0008079388492295437,0.010509749526527782
453,0.0008079388492295437,0.010536424017711862
454,0.0008095579651598634,0.010536424017711862
455,0.0008095579651598634,0.010563098508895943
456,0.0008127961970205028,0.010563098508895943
457,0.0008127961970205028,0.010589773000080023
458,0.0008160344288811423,0.010589773000080023
459,0.0008160344288811423,0.010616447491264103
460,0.000817653544811462,0.010616447491264103
461,0.000817653544811462,0.010643121982448185
462,0.0008208917766721015,0.010643121982448185
463,0.0008208917766721015,0.010669796473632266
464,0.0008225108926024213,0.010669796473632266
465,0.0008225108926024213,0.010776494438368587
466,0.000824130008532741,0.010776494438368587
467,0.000824130008532741,0.01080316892955267
468,0.0008273682403933804,0.01080316892955267
469,0.0008273682403933804,0.01082984342073675
470,0.0008289873563237001,0.01082984342073675
471,0.0008289873563237001,0.01085651791192083
472,0.0008387020519056185,0.01085651791192083
473,0.0008387020519056185,0.01090986689428899
474,0.0008403211678359382,0.01090986689428899
475,0.0008403211678359382,0.010936541385473073
476,0.000841940283766258,0.010936541385473073
477,0.000841940283766258,0.010989890367841234
478,0.0008435593996965777,0.010989890367841234
479,0.0008435593996965777,0.011016564859025314
480,0.0008500358634178566,0.011016564859025314
481,0.0008500358634178566,0.011096588332577557
482,0.0008565123271391355,0.011096588332577557
483,0.0008597505589997749,0.011096588332577557
484,0.0008597505589997749,0.011123262823761637
485,0.0008662270227210539,0.011123262823761637
486,0.0008662270227210539,0.011176611806129798
487,0.0008678461386513736,0.011176611806129798
488,0.0008678461386513736,0.011203286297313878
489,0.0008727034864423328,0.011203286297313878
490,0.0008727034864423328,0.011229960788497959
491,0.0008759417183029722,0.011229960788497959
492,0.0008759417183029722,0.01125663527968204
493,0.0008775608342332919,0.01125663527968204
494,0.0008775608342332919,0.011283309770866121
495,0.0008791799501636116,0.011283309770866121
496,0.0008791799501636116,0.011336658753234282
497,0.0008872755298152103,0.011336658753234282
498,0.0008872755298152103,0.011390007735602444
499,0.0008905137616758498,0.011390007735602444
500,0.0008905137616758498,0.011416682226786525
501,0.0009018475731880878,0.011416682226786525
502,0.0009018475731880878,0.011470031209154685
503,0.0009034666891184075,0.011470031209154685
504,0.0009034666891184075,0.011496705700338766
505,0.000906704920979047,0.011496705700338766
506,0.000906704920979047,0.011523380191522846
507,0.0009083240369093668,0.011523380191522846
508,0.0009083240369093668,0.011550054682706928
509,0.0009115622687700062,0.011550054682706928
510,0.0009115622687700062,0.011576729173891008
511,0.000913181384700326,0.011576729173891008
512,0.000913181384700326,0.01165675264744325
513,0.0009228960802822443,0.01165675264744325
514,0.0009228960802822443,0.011710101629811412
515,0.000924515196212564,0.011710101629811412
516,0.000924515196212564,0.011790125103363653
517,0.0009261343121428837,0.011790125103363653
518,0.0009261343121428837,0.011870148576915896
519,0.0009277534280732034,0.011870148576915896
520,0.0009277534280732034,0.011896823068099976
521,0.0009293725440035233,0.011896823068099976
522,0.0009293725440035233,0.01211021899757262
523,0.0009407063555157613,0.01211021899757262
524,0.0009407063555157613,0.012190242471124864
525,0.000942325471446081,0.012190242471124864
526,0.000942325471446081,0.012243591453493024
527,0.0009439445873764007,0.012243591453493024
528,0.0009439445873764007,0.012296940435861187
529,0.0009520401670279994,0.012296940435861187
530,0.0009520401670279994,0.012403638400597508
531,0.0009552783988886389,0.012403638400597508
532,0.0009552783988886389,0.012430312891781588
533,0.0009585166307492783,0.012430312891781588
534,0.0009585166307492783,0.012483661874149751
535,0.000960135746679598,0.012483661874149751
536,0.000960135746679598,0.012510336365333831
537,0.0009617548626099177,0.012510336365333831
538,0.0009617548626099177,0.012617034330070154
539,0.0009666122104008769,0.012617034330070154
540,0.0009666122104008769,0.012643708821254235
541,0.0009795651378434347,0.012643708821254235
542,0.0009795651378434347,0.012670383312438315
543,0.000984422485634394,0.012670383312438315
544,0.000984422485634394,0.012697057803622395
545,0.0009876607174950335,0.012697057803622395
546,0.0009876607174950335,0.012723732294806476
547,0.0009925180652859925,0.012723732294806476
548,0.000995756297146632,0.012723732294806476
549,0.000995756297146632,0.012777081277174638
550,0.0009973754130769518,0.012777081277174638
551,0.0009973754130769518,0.012963802715463203
552,0.0009989945290072714,0.012963802715463203
553,0.0009989945290072714,0.012990477206647283
554,0.0010022327608679108,0.012990477206647283
555,0.0010022327608679108,0.013017151697831363
556,0.0010054709927285503,0.013017151697831363
557,0.0010054709927285503,0.01320387313611993
558,0.00100709010865887,0.01320387313611993
559,0.00100709010865887,0.01323054762730401
560,0.00100870922458919,0.01323054762730401
561,0.00100870922458919,0.01328389660967217
562,0.0010103283405195095,0.01328389660967217
563,0.0010103283405195095,0.013337245592040331
564,0.0010119474564498293,0.013337245592040331
565,0.0010119474564498293,0.013363920083224413
566,0.0010151856883104688,0.013363920083224413
567,0.0010151856883104688,0.013443943556776654
568,0.0010168048042407884,0.013443943556776654
569,0.0010168048042407884,0.013550641521512977
570,0.0010184239201711082,0.013550641521512977
571,0.0010184239201711082,0.013577316012697058
572,0.0010200430361014278,0.013577316012697058
573,0.0010200430361014278,0.013603990503881138
574,0.0010216621520317477,0.013603990503881138
575,0.0010216621520317477,0.01368401397743338
576,0.0010232812679620673,0.01368401397743338
577,0.0010232812679620673,0.013764037450985622
578,0.0010281386157530265,0.013764037450985622
579,0.0010281386157530265,0.013817386433353784
580,0.0010297577316833464,0.013817386433353784
581,0.0010297577316833464,0.013950758889274188
582,0.0010329959635439858,0.013950758889274188
583,0.0010329959635439858,0.013977433380458268
584,0.0010346150794743054,0.013977433380458268
585,0.0010346150794743054,0.014030782362826429
586,0.0010394724272652647,0.014030782362826429
587,0.0010394724272652647,0.01408413134519459
588,0.0010410915431955843,0.01408413134519459
589,0.0010410915431955843,0.014190829309930913
590,0.0010443297750562237,0.014190829309930913
591,0.0010443297750562237,0.014244178292299074
592,0.0010475680069168632,0.014244178292299074
593,0.0010475680069168632,0.014270852783483156
594,0.0010605209343594211,0.014270852783483156
595,0.0010605209343594211,0.014297527274667236
596,0.0010653782821503802,0.014297527274667236
597,0.0010653782821503802,0.014350876257035397
598,0.0010686165140110196,0.014350876257035397
599,0.0010686165140110196,0.014377550748219477
600,0.0010750929777322987,0.014377550748219477
601,0.0010750929777322987,0.01440422523940356
602,0.0010815694414535776,0.01440422523940356
603,0.0010815694414535776,0.01443089973058764
604,0.0010864267892445366,0.01443089973058764
605,0.0010864267892445366,0.01445757422177172
606,0.0010912841370354959,0.01445757422177172
607,0.0010912841370354959,0.014590946677692123
608,0.0010929032529658155,0.014590946677692123
609,0.0010929032529658155,0.014644295660060284
610,0.0010977606007567748,0.014644295660060284
611,0.0010977606007567748,0.014724319133612527
612,0.0011009988326174142,0.014724319133612527
613,0.0011009988326174142,0.01485769158953293
614,0.001102617948547734,0.01485769158953293
615,0.001102617948547734,0.015017738536637414
616,0.0011042370644780536,0.015017738536637414
617,0.0011042370644780536,0.015097762010189655
618,0.001107475296338693,0.015097762010189655
619,0.001107475296338693,0.015151110992557818
620,0.0011123326441296523,0.015151110992557818
621,0.0011123326441296523,0.015204459974925979
622,0.001113951760059972,0.015204459974925979
623,0.001113951760059972,0.01525780895729414
624,0.0011155708759902918,0.01525780895729414
625,0.0011155708759902918,0.01528448344847822
626,0.0011171899919206116,0.01528448344847822
627,0.0011171899919206116,0.015337832430846382
628,0.001120428223781251,0.015337832430846382
629,0.001120428223781251,0.015417855904398623
630,0.00112528557157221,0.015417855904398623
631,0.00112528557157221,0.015444530395582703
632,0.00112690468750253,0.015444530395582703
633,0.00112690468750253,0.015497879377950866
634,0.0011301429193631694,0.015497879377950866
635,0.0011301429193631694,0.015524553869134946
636,0.0011333811512238088,0.015524553869134946
637,0.0011333811512238088,0.015551228360319027
638,0.0011350002671541284,0.015551228360319027
639,0.0011350002671541284,0.01565792632505535
640,0.0011366193830844482,0.01565792632505535
641,0.0011366193830844482,0.01571127530742351
642,0.001138238499014768,0.01571127530742351
643,0.001138238499014768,0.01576462428979167
644,0.001144714962736047,0.01576462428979167
645,0.001144714962736047,0.01579129878097575
646,0.0011463340786663665,0.01579129878097575
647,0.0011463340786663665,0.015817973272159832
648,0.001149572310527006,0.015817973272159832
649,0.001149572310527006,0.015924671236896157
650,0.0011511914264573258,0.015924671236896157
651,0.0011511914264573258,0.015978020219264318
652,0.0011528105423876454,0.015978020219264318
653,0.0011528105423876454,0.016004694710448398
654,0.0011576678901786047,0.016004694710448398
655,0.0011576678901786047,0.016031369201632478
656,0.0011592870061089245,0.016031369201632478
657,0.0011592870061089245,0.01605804369281656
658,0.0011609061220392441,0.01605804369281656
659,0.0011609061220392441,0.01611139267518472
660,0.001162525237969564,0.01611139267518472
661,0.001162525237969564,0.016164741657552884
662,0.0011657634698302034,0.016164741657552884
663,0.0011657634698302034,0.016324788604657366
664,0.001167382585760523,0.016324788604657366
665,0.001167382585760523,0.016351463095841446
666,0.0011706208176211624,0.016351463095841446
667,0.0011706208176211624,0.016378137587025526
668,0.0011722399335514823,0.016378137587025526
669,0.0011722399335514823,0.016404812078209607
670,0.0011754781654121217,0.016404812078209607
671,0.0011754781654121217,0.016538184534130012
672,0.0011770972813424413,0.016538184534130012
673,0.0011770972813424413,0.016591533516498173
674,0.0011787163972727611,0.016591533516498173
675,0.0011787163972727611,0.016671556990050414
676,0.0011803355132030807,0.016671556990050414
677,0.0011803355132030807,0.016724905972418574
678,0.0011819546291334006,0.016724905972418574
679,0.0011819546291334006,0.01677825495478674
680,0.0011835737450637204,0.01677825495478674
681,0.0011835737450637204,0.01691162741070714
682,0.0011868119769243598,0.01691162741070714
683,0.0011868119769243598,0.017071674357811626
684,0.0011932884406456387,0.017071674357811626
685,0.0011932884406456387,0.017125023340179787
686,0.0012046222521578769,0.017125023340179787
687,0.0012046222521578769,0.017151697831363867
688,0.0012062413680881965,0.017151697831363867
689,0.0012062413680881965,0.01725839579610019
690,0.0012110987158791557,0.01725839579610019
691,0.0012110987158791557,0.01728507028728427
692,0.0012143369477397952,0.01728507028728427
693,0.0012143369477397952,0.017365093760836513
694,0.0012159560636701148,0.017365093760836513
695,0.0012159560636701148,0.017445117234388755
696,0.0012175751796004346,0.017445117234388755
697,0.0012175751796004346,0.017471791725572835
698,0.0012191942955307542,0.017471791725572835
699,0.0012191942955307542,0.017498466216756915
700,0.0012224325273913937,0.017498466216756915
701,0.0012224325273913937,0.017551815199125076
702,0.0012240516433217135,0.017551815199125076
703,0.0012240516433217135,0.017605164181493237
704,0.0012256707592520333,0.017605164181493237
705,0.0012256707592520333,0.0176585131638614
706,0.001227289875182353,0.0176585131638614
707,0.001227289875182353,0.01768518765504548
708,0.0012289089911126727,0.01768518765504548
709,0.0012289089911126727,0.017791885619781803
710,0.0012321472229733122,0.017791885619781803
711,0.0012321472229733122,0.017845234602149963
712,0.0012337663389036318,0.017845234602149963
713,0.0012337663389036318,0.017898583584518124
714,0.0012353854548339516,0.017898583584518124
715,0.0012353854548339516,0.017951932566886288
716,0.0012418619185552305,0.017951932566886288
717,0.0012418619185552305,0.01797860705807037
718,0.00124348103448555,0.01797860705807037
719,0.00124348103448555,0.01813865400517485
720,0.0012467192663461898,0.01813865400517485
721,0.0012467192663461898,0.01819200298754301
722,0.0012499574982068292,0.01819200298754301
723,0.0012499574982068292,0.018325375443463417
724,0.0012515766141371488,0.018325375443463417
725,0.0012515766141371488,0.018352049934647497
726,0.0012612913097190671,0.018352049934647497
727,0.0012612913097190671,0.018378724425831577
728,0.001267767773440346,0.018378724425831577
729,0.001267767773440346,0.018432073408199738
730,0.0012693868893706658,0.018432073408199738
731,0.0012693868893706658,0.01845874789938382
732,0.0012710060053009857,0.01845874789938382
733,0.0012710060053009857,0.018618794846488304
734,0.0012726251212313053,0.018618794846488304
735,0.0012726251212313053,0.018645469337672384
736,0.001274244237161625,0.018645469337672384
737,0.001274244237161625,0.018672143828856465
738,0.0012758633530919447,0.018672143828856465
739,0.0012758633530919447,0.018698818320040545
740,0.0012774824690222645,0.018698818320040545
741,0.0012774824690222645,0.018778841793592786
742,0.0012791015849525841,0.018778841793592786
743,0.0012791015849525841,0.018805516284776867
744,0.001280720700882904,0.018805516284776867
745,0.001280720700882904,0.018832190775960947
746,0.0012823398168132236,0.018832190775960947
747,0.0012823398168132236,0.01891221424951319
748,0.0012839589327435434,0.01891221424951319
749,0.0012839589327435434,0.018938888740697272
750,0.001285578048673863,0.018938888740697272
751,0.001285578048673863,0.018992237723065433
752,0.0012871971646041828,0.018992237723065433
753,0.0012871971646041828,0.019018912214249513
754,0.0012936736283254617,0.019018912214249513
755,0.0012936736283254617,0.019045586705433593
756,0.0012952927442557815,0.019045586705433593
757,0.0012952927442557815,0.019125610178985834
758,0.001298530976116421,0.019125610178985834
759,0.001298530976116421,0.019152284670169918
760,0.0013017692079770604,0.019152284670169918
761,0.0013017692079770604,0.01920563365253808
762,0.0013066265557680195,0.01920563365253808
763,0.0013066265557680195,0.01928565712609032
764,0.0013114839035589787,0.01928565712609032
765,0.0013114839035589787,0.01936568059964256
766,0.001316341251349938,0.01936568059964256
767,0.001316341251349938,0.019499053055562966
768,0.0013179603672802576,0.019499053055562966
769,0.0013179603672802576,0.019525727546747047
770,0.0013195794832105774,0.019525727546747047
771,0.0013195794832105774,0.01973912347621969
772,0.001321198599140897,0.01973912347621969
773,0.001321198599140897,0.019792472458587854
774,0.0013228177150712169,0.019792472458587854
775,0.0013228177150712169,0.019845821440956014
776,0.0013244368310015365,0.019845821440956014
777,0.0013244368310015365,0.019872495932140095
778,0.001327675062862176,0.019872495932140095
779,0.001327675062862176,0.019952519405692336
780,0.0013292941787924957,0.019952519405692336
781,0.0013292941787924957,0.020005868388060496
782,0.0013309132947228154,0.020005868388060496
783,0.0013309132947228154,0.02005921737042866
784,0.0013325324106531352,0.02005921737042866
785,0.0013325324106531352,0.020139240843980902
786,0.001334151526583455,0.020139240843980902
787,0.001334151526583455,0.020245938808717223
788,0.0013373897584440944,0.020245938808717223
789,0.0013373897584440944,0.02045933473818987
790,0.001339008874374414,0.02045933473818987
791,0.001339008874374414,0.02053935821174211
792,0.0013406279903047339,0.02053935821174211
793,0.0013406279903047339,0.02061938168529435
794,0.0013422471062350535,0.02061938168529435
795,0.0013422471062350535,0.020646056176478432
796,0.0013438662221653733,0.020646056176478432
797,0.0013438662221653733,0.020672730667662516
798,0.001345485338095693,0.020672730667662516
799,0.001345485338095693,0.020699405158846596
800,0.0013471044540260128,0.020699405158846596
801,0.0013471044540260128,0.020752754141214757
802,0.0013503426858866522,0.020752754141214757
803,0.0013503426858866522,0.020779428632398837
804,0.0013600573814685705,0.020779428632398837
805,0.0013600573814685705,0.020806103123582918
806,0.0013616764973988903,0.020806103123582918
807,0.0013616764973988903,0.02088612659713516
808,0.0013681529611201692,0.02088612659713516
809,0.0013681529611201692,0.02091280108831924
810,0.0013697720770504888,0.02091280108831924
811,0.0013697720770504888,0.02093947557950332
812,0.0013713911929808086,0.02093947557950332
813,0.0013713911929808086,0.020966150070687403
814,0.0013730103089111283,0.020966150070687403
815,0.0013730103089111283,0.021019499053055564
816,0.0013762485407717677,0.021019499053055564
817,0.0013762485407717677,0.021046173544239644
818,0.0013843441204233664,0.021046173544239644
819,0.0013843441204233664,0.021152871508975966
820,0.0013859632363536862,0.021152871508975966
821,0.0013859632363536862,0.021206220491344126
822,0.0013892014682143257,0.021206220491344126
823,0.0013892014682143257,0.021232894982528207
824,0.0013940588160052847,0.021232894982528207
825,0.0013940588160052847,0.02125956947371229
826,0.0013956779319356045,0.02125956947371229
827,0.0013956779319356045,0.02128624396489637
828,0.001398916163796244,0.02128624396489637
829,0.001398916163796244,0.02131291845608045
830,0.0014037735115872032,0.02131291845608045
831,0.0014037735115872032,0.021366267438448612
832,0.0014053926275175229,0.021366267438448612
833,0.0014053926275175229,0.021419616420816773
834,0.0014086308593781623,0.021419616420816773
835,0.0014086308593781623,0.021446290912000853
836,0.0014151073230994412,0.021446290912000853
837,0.0014151073230994412,0.021552988876737175
838,0.0014264411346116793,0.021552988876737175
839,0.0014264411346116793,0.02160633785910534
840,0.0014280602505419991,0.02160633785910534
841,0.0014280602505419991,0.02163301235028942
842,0.0014296793664723187,0.02163301235028942
843,0.0014296793664723187,0.02171303582384166
844,0.0014312984824026386,0.02171303582384166
845,0.0014312984824026386,0.02181973378857798
846,0.0014329175983329582,0.02181973378857798
847,0.0014329175983329582,0.021899757262130226
848,0.001434536714263278,0.021899757262130226
849,0.001434536714263278,0.022059804209234708
850,0.0014361558301935976,0.022059804209234708
851,0.0014361558301935976,0.02211315319160287
852,0.001439394062054237,0.02211315319160287
853,0.001439394062054237,0.022166502173971033
854,0.0014426322939148765,0.022166502173971033
855,0.0014426322939148765,0.022219851156339194
856,0.0014442514098451963,0.022219851156339194
857,0.0014442514098451963,0.022246525647523274
858,0.0014474896417058358,0.022246525647523274
859,0.0014474896417058358,0.022299874629891435
860,0.0014491087576361556,0.022299874629891435
861,0.0014491087576361556,0.022326549121075515
862,0.0014507278735664752,0.022326549121075515
863,0.0014507278735664752,0.022379898103443676
864,0.001457204337287754,0.022379898103443676
865,0.001457204337287754,0.02248659606818
866,0.0014604425691483935,0.02248659606818
867,0.0014604425691483935,0.02251327055936408
868,0.0014669190328696726,0.02251327055936408
869,0.0014669190328696726,0.02253994505054816
870,0.001470157264730312,0.02253994505054816
871,0.001470157264730312,0.022566619541732242
872,0.0014717763806606316,0.022566619541732242
873,0.0014717763806606316,0.022619968524100403
874,0.0014733954965909515,0.022619968524100403
875,0.0014733954965909515,0.022699991997652644
876,0.001476633728451591,0.022699991997652644
877,0.001476633728451591,0.022726666488836724
878,0.0014847293081031894,0.022726666488836724
879,0.0014847293081031894,0.02280668996238897
880,0.0014863484240335092,0.02280668996238897
881,0.0014863484240335092,0.02283336445357305
882,0.001487967539963829,0.02283336445357305
883,0.001487967539963829,0.02296673690949345
884,0.0014912057718244685,0.02296673690949345
885,0.0014912057718244685,0.02299341140067753
886,0.001494444003685108,0.02299341140067753
887,0.001494444003685108,0.02302008589186161
888,0.001499301351476067,0.02302008589186161
889,0.001499301351476067,0.023073434874229776
890,0.0015041586992670262,0.023073434874229776
891,0.0015041586992670262,0.023126783856597936
892,0.0015057778151973459,0.023126783856597936
893,0.0015057778151973459,0.023180132838966097
894,0.0015073969311276657,0.023180132838966097
895,0.0015073969311276657,0.023206807330150177
896,0.0015106351629883051,0.023206807330150177
897,0.0015106351629883051,0.02328683080370242
898,0.0015154925107792644,0.02328683080370242
899,0.0015154925107792644,0.0233135052948865
900,0.001517111626709584,0.0233135052948865
901,0.001517111626709584,0.023366854277254663
902,0.0015203498585702234,0.023366854277254663
903,0.0015203498585702234,0.023420203259622824
904,0.0015235880904308629,0.023420203259622824
905,0.0015235880904308629,0.023446877750806904
906,0.0015284454382218221,0.023446877750806904
907,0.0015284454382218221,0.023553575715543226
908,0.0015300645541521417,0.023553575715543226
909,0.0015300645541521417,0.023580250206727306
910,0.0015333027860127814,0.023580250206727306
911,0.0015333027860127814,0.023606924697911386
912,0.0015365410178734208,0.023606924697911386
913,0.0015430174815946997,0.023606924697911386
914,0.0015430174815946997,0.023633599189095467
915,0.0015462557134553391,0.023633599189095467
916,0.0015462557134553391,0.023660273680279547
917,0.0015478748293856588,0.023660273680279547
918,0.0015478748293856588,0.02371362266264771
919,0.0015494939453159786,0.02371362266264771
920,0.0015494939453159786,0.023766971645015872
921,0.0015511130612462982,0.023766971645015872
922,0.0015511130612462982,0.023793646136199952
923,0.0015543512931069378,0.023793646136199952
924,0.0015575895249675773,0.023793646136199952
925,0.0015575895249675773,0.023873669609752193
926,0.0015608277568282167,0.023873669609752193
927,0.0015608277568282167,0.02403371655685668
928,0.0015624468727585363,0.02403371655685668
929,0.0015624468727585363,0.02408706553922484
930,0.0015656851046191758,0.02408706553922484
931,0.0015656851046191758,0.02416708901277708
932,0.0015673042205494956,0.02416708901277708
933,0.0015673042205494956,0.024247112486329322
934,0.001570542452410135,0.024247112486329322
935,0.001570542452410135,0.024273786977513406
936,0.0015721615683404546,0.024273786977513406
937,0.0015721615683404546,0.024300461468697486
938,0.001577018916131414,0.024300461468697486
939,0.001577018916131414,0.024407159433433807
940,0.0015802571479920534,0.024407159433433807
941,0.0015802571479920534,0.02448718290698605
942,0.0015818762639223732,0.02448718290698605
943,0.0015818762639223732,0.02451385739817013
944,0.0015834953798526928,0.02451385739817013
945,0.0015834953798526928,0.02454053188935421
946,0.001588352727643652,0.02454053188935421
947,0.001588352727643652,0.02456720638053829
948,0.0015899718435739717,0.02456720638053829
949,0.0015899718435739717,0.024593880871722373
950,0.0015915909595042915,0.024593880871722373
951,0.0015915909595042915,0.024620555362906454
952,0.001593210075434611,0.024620555362906454
953,0.001593210075434611,0.024647229854090534
954,0.0015996865391558902,0.024647229854090534
955,0.0015996865391558902,0.024673904345274614
956,0.0016013056550862098,0.024673904345274614
957,0.0016013056550862098,0.024833951292379097
958,0.0016029247710165296,0.024833951292379097
959,0.0016029247710165296,0.02488730027474726
960,0.001606163002877169,0.02488730027474726
961,0.001606163002877169,0.02491397476593134
962,0.0016094012347378085,0.02491397476593134
963,0.0016094012347378085,0.024967323748299502
964,0.0016110203506681281,0.024967323748299502
965,0.0016110203506681281,0.024993998239483582
966,0.001612639466598448,0.024993998239483582
967,0.001612639466598448,0.025047347221851743
968,0.0016142585825287676,0.025047347221851743
969,0.0016142585825287676,0.025074021713035823
970,0.0016158776984590874,0.025074021713035823
971,0.0016158776984590874,0.025100696204219904
972,0.0016191159303197268,0.025100696204219904
973,0.0016191159303197268,0.02523406866014031
974,0.0016255923940410057,0.02523406866014031
975,0.0016255923940410057,0.02526074315132439
976,0.0016272115099713255,0.02526074315132439
977,0.0016272115099713255,0.02534076662487663
978,0.0016288306259016451,0.02534076662487663
979,0.0016288306259016451,0.02536744111606071
980,0.001630449741831965,0.02536744111606071
981,0.001630449741831965,0.02542079009842887
982,0.001635307089622924,0.02542079009842887
983,0.001635307089622924,0.025474139080797032
984,0.0016369262055532438,0.025474139080797032
985,0.0016369262055532438,0.025527488063165196
986,0.0016385453214835634,0.025527488063165196
987,0.0016385453214835634,0.025634186027901518
988,0.0016401644374138833,0.025634186027901518
989,0.0016401644374138833,0.025660860519085598
990,0.001641783553344203,0.025660860519085598
991,0.001641783553344203,0.02568753501026968
992,0.0016450217852048425,0.02568753501026968
993,0.0016450217852048425,0.02574088399263784
994,0.0016466409011351621,0.02574088399263784
995,0.0016466409011351621,0.025820907466190084
996,0.001648260017065482,0.025820907466190084
997,0.001648260017065482,0.025847581957374164
998,0.0016498791329958016,0.025847581957374164
999,0.0016498791329958016,0.025874256448558244
1000,0.0016514982489261214,0.025874256448558244
1001,0.0016514982489261214,0.025900930939742325
1002,0.001653117364856441,0.025900930939742325
1003,0.001653117364856441,0.025927605430926405
1004,0.0016563555967170805,0.025927605430926405
1005,0.0016563555967170805,0.025980954413294566
1006,0.0016579747126474003,0.025980954413294566
1007,0.0016579747126474003,0.026034303395662726
1008,0.0016612129445080397,0.026034303395662726
1009,0.0016612129445080397,0.026167675851583132
1010,0.0016628320604383596,0.026167675851583132
1011,0.0016628320604383596,0.026247699325135373
1012,0.0016644511763686792,0.026247699325135373
1013,0.0016644511763686792,0.026274373816319453
1014,0.0016725467560202779,0.026274373816319453
1015,0.0016725467560202779,0.026301048307503534
1016,0.0016741658719505975,0.026301048307503534
1017,0.0016741658719505975,0.026354397289871694
1018,0.001677404103811237,0.026354397289871694
1019,0.001677404103811237,0.02640774627223986
1020,0.0016806423356718763,0.02640774627223986
1021,0.0016806423356718763,0.02646109525460802
1022,0.001683880567532516,0.02646109525460802
1023,0.001683880567532516,0.0264877697457921
1024,0.0016854996834628356,0.0264877697457921
1025,0.0016854996834628356,0.026727840166448826
1026,0.0016871187993931554,0.026727840166448826
1027,0.0016871187993931554,0.026781189148816987
1028,0.001688737915323475,0.026781189148816987
1029,0.001688737915323475,0.02688788711355331
1030,0.0016919761471841145,0.02688788711355331
1031,0.0016919761471841145,0.02691456160473739
1032,0.0016935952631144343,0.02691456160473739
1033,0.0016935952631144343,0.02694123609592147
1034,0.0016968334949750738,0.02694123609592147
1035,0.0016968334949750738,0.027047934060657794
1036,0.0016984526109053934,0.027047934060657794
1037,0.0016984526109053934,0.027181306516578196
1038,0.0017000717268357132,0.027181306516578196
1039,0.0017000717268357132,0.027207981007762276
1040,0.0017016908427660328,0.027207981007762276
1041,0.0017016908427660328,0.027261329990130437
1042,0.001706548190556992,0.027261329990130437
1043,0.001706548190556992,0.02728800448131452
1044,0.001708167306487312,0.02728800448131452
1045,0.001708167306487312,0.0273146789724986
1046,0.0017097864224176315,0.0273146789724986
1047,0.0017097864224176315,0.02734135346368268
1048,0.0017114055383479513,0.02734135346368268
1049,0.0017114055383479513,0.027448051428419003
1050,0.0017211202339298696,0.027448051428419003
1051,0.0017211202339298696,0.027474725919603083
1052,0.0017227393498601893,0.027474725919603083
1053,0.0017227393498601893,0.027501400410787163
1054,0.001724358465790509,0.027501400410787163
1055,0.001724358465790509,0.027528074901971244
1056,0.0017259775817208287,0.027528074901971244
1057,0.0017259775817208287,0.027554749393155324
1058,0.0017292158135814683,0.027554749393155324
1059,0.0017292158135814683,0.02763477286670757
1060,0.001730834929511788,0.02763477286670757
1061,0.001730834929511788,0.02779481981381205
1062,0.0017340731613724274,0.02779481981381205
1063,0.0017340731613724274,0.02782149430499613
1064,0.0017356922773027472,0.02782149430499613
1065,0.0017356922773027472,0.02784816879618021
1066,0.0017405496250937063,0.02784816879618021
1067,0.0017405496250937063,0.027901517778548376
1068,0.001742168741024026,0.027901517778548376
1069,0.001742168741024026,0.027954866760916536
1070,0.0017437878569543457,0.027954866760916536
1071,0.0017437878569543457,0.027981541252100617
1072,0.0017454069728846655,0.027981541252100617
1073,0.0017454069728846655,0.028034890234468778
1074,0.0017470260888149851,0.028034890234468778
1075,0.0017470260888149851,0.028088239216836938
1076,0.0017518834366059444,0.028088239216836938
1077,0.0017518834366059444,0.02811491370802102
1078,0.0017535025525362642,0.02811491370802102
1079,0.0017535025525362642,0.0281415881992051
1080,0.0017551216684665838,0.0281415881992051
1081,0.0017551216684665838,0.028274960655125504
1082,0.0017567407843969037,0.028274960655125504
1083,0.0017567407843969037,0.028301635146309585
1084,0.0017583599003272233,0.028301635146309585
1085,0.0017583599003272233,0.028488356584598147
1086,0.0017615981321878627,0.028488356584598147
1087,0.0017615981321878627,0.02854170556696631
1088,0.0017632172481181825,0.02854170556696631
1089,0.0017632172481181825,0.028675078022886713
1090,0.0017648363640485022,0.028675078022886713
1091,0.0017648363640485022,0.028755101496438954
1092,0.001766455479978822,0.028755101496438954
1093,0.001766455479978822,0.02880845047880712
1094,0.0017680745959091416,0.02880845047880712
1095,0.0017680745959091416,0.0288351249699912
1096,0.0017696937118394614,0.0288351249699912
1097,0.0017696937118394614,0.02888847395235936
1098,0.0017729319437001009,0.02888847395235936
1099,0.0017729319437001009,0.02891514844354344
1100,0.0017777892914910601,0.02891514844354344
1101,0.0017777892914910601,0.0289684974259116
1102,0.0017810275233516996,0.0289684974259116
1103,0.0017810275233516996,0.02899517191709568
1104,0.0017826466392820192,0.02899517191709568
1105,0.0017826466392820192,0.029075195390647922
1106,0.0017875039870729784,0.029075195390647922
1107,0.0017875039870729784,0.029128544373016086
1108,0.001789123103003298,0.029128544373016086
1109,0.001789123103003298,0.029421963776040973
1110,0.0017988377985852166,0.029421963776040973
1111,0.0017988377985852166,0.029501987249593215
1112,0.001802076030445856,0.029501987249593215
1113,0.001802076030445856,0.029528661740777295
1114,0.0018053142623064955,0.029528661740777295
1115,0.0018053142623064955,0.029555336231961375
1116,0.0018150289578884138,0.029555336231961375
1117,0.0018150289578884138,0.029582010723145456
1118,0.0018166480738187336,0.029582010723145456
1119,0.0018166480738187336,0.029635359705513616
1120,0.001824743653470332,0.029635359705513616
1121,0.001824743653470332,0.029662034196697697
1122,0.001826362769400652,0.029662034196697697
1123,0.001826362769400652,0.02974205767024994
1124,0.0018296010012612913,0.02974205767024994
1125,0.0018296010012612913,0.02976873216143402
1126,0.001831220117191611,0.02976873216143402
1127,0.001831220117191611,0.030008802582090748
1128,0.0018328392331219308,0.030008802582090748
1129,0.0018328392331219308,0.03003547707327483
1130,0.0018360774649825702,0.03003547707327483
1131,0.0018360774649825702,0.03008882605564299
1132,0.00183769658091289,0.03008882605564299
1133,0.00183769658091289,0.03011550054682707
1134,0.001842553928703849,0.03011550054682707
1135,0.001842553928703849,0.03024887300274747
1136,0.001844173044634169,0.03024887300274747
1137,0.001844173044634169,0.030275547493931552
1138,0.0018457921605644885,0.030275547493931552
1139,0.0018457921605644885,0.030328896476299716
1140,0.0018474112764948084,0.030328896476299716
1141,0.0018474112764948084,0.030355570967483796
1142,0.001849030392425128,0.030355570967483796
1143,0.001849030392425128,0.030382245458667877
1144,0.0018506495083554478,0.030382245458667877
1145,0.0018506495083554478,0.030488943423404198
1146,0.0018522686242857674,0.030488943423404198
1147,0.0018522686242857674,0.03054229240577236
1148,0.0018538877402160872,0.03054229240577236
1149,0.0018538877402160872,0.03059564138814052
1150,0.0018571259720767267,0.03059564138814052
1151,0.0018571259720767267,0.030622315879324603
1152,0.0018587450880070465,0.030622315879324603
1153,0.0018587450880070465,0.030648990370508684
1154,0.001861983319867686,0.030648990370508684
1155,0.001861983319867686,0.030729013844060925
1156,0.0018636024357980055,0.030729013844060925
1157,0.0018636024357980055,0.030755688335245005
1158,0.001866840667658645,0.030755688335245005
1159,0.001866840667658645,0.030809037317613166
1160,0.0018684597835889648,0.030809037317613166
1161,0.0018684597835889648,0.030835711808797246
1162,0.0018716980154496043,0.030835711808797246
1163,0.0018716980154496043,0.030889060791165407
1164,0.0018749362473102437,0.030889060791165407
1165,0.0018749362473102437,0.031022433247085812
1166,0.0018765553632405633,0.031022433247085812
1167,0.0018765553632405633,0.031075782229453973
1168,0.0018797935951012027,0.031075782229453973
1169,0.0018797935951012027,0.031102456720638053
1170,0.0018814127110315226,0.031102456720638053
1171,0.0018814127110315226,0.031209154685374378
1172,0.0018830318269618424,0.031209154685374378
1173,0.0018830318269618424,0.03126250366774254
1174,0.001884650942892162,0.03126250366774254
1175,0.001884650942892162,0.0313158526501107
1176,0.0018862700588224818,0.0313158526501107
1177,0.0018862700588224818,0.031395876123662944
1178,0.0018878891747528014,0.031395876123662944
1179,0.0018878891747528014,0.03142255061484702
1180,0.0018895082906831213,0.03142255061484702
1181,0.0018895082906831213,0.031635946544319664
1182,0.0018911274066134409,0.031635946544319664
1183,0.0018911274066134409,0.03166262103550375
1184,0.0018927465225437607,0.03166262103550375
1185,0.0018927465225437607,0.03168929552668783
1186,0.0018943656384740803,0.03168929552668783
1187,0.0018943656384740803,0.03171597001787191
1188,0.0018959847544044001,0.03171597001787191
1189,0.0018959847544044001,0.031956040438528635
1190,0.0019008421021953592,0.031956040438528635
1191,0.0019008421021953592,0.032009389420896796
1192,0.001902461218125679,0.032009389420896796
1193,0.001902461218125679,0.03208941289444904
1194,0.0019040803340559988,0.03208941289444904
1195,0.0019040803340559988,0.03211608738563312
1196,0.001908937681846958,0.03211608738563312
1197,0.001908937681846958,0.03230280882392168
1198,0.0019105567977772777,0.03230280882392168
1199,0.0019105567977772777,0.03238283229747393
1200,0.0019137950296379172,0.03238283229747393
1201,0.0019137950296379172,0.03259622822694657
1202,0.0019154141455682368,0.03259622822694657
1203,0.0019154141455682368,0.032622902718130654
1204,0.0019186523774288762,0.032622902718130654
1205,0.0019186523774288762,0.032676251700498815
1206,0.001920271493359196,0.032676251700498815
1207,0.001920271493359196,0.03275627517405105
1208,0.0019218906092895156,0.03275627517405105
1209,0.0019218906092895156,0.03278294966523514
1210,0.0019235097252198355,0.03278294966523514
1211,0.0019235097252198355,0.03280962415641921
1212,0.001926747957080475,0.03280962415641921
1213,0.001926747957080475,0.03286297313878738
1214,0.0019283670730107947,0.03286297313878738
1215,0.0019283670730107947,0.03288964762997146
1216,0.0019364626526623932,0.03288964762997146
1217,0.0019364626526623932,0.03291632212115554
1218,0.001938081768592713,0.03291632212115554
1219,0.001938081768592713,0.0329696711035237
1220,0.0019397008845230327,0.0329696711035237
1221,0.0019397008845230327,0.033076369068260024
1222,0.0019413200004533525,0.033076369068260024
1223,0.0019413200004533525,0.033129718050628185
1224,0.001942939116383672,0.033129718050628185
1225,0.001942939116383672,0.03315639254181226
1226,0.0019494155801049512,0.03315639254181226
1227,0.0019494155801049512,0.03336978847128491
1228,0.0019526538119655906,0.03336978847128491
1229,0.0019526538119655906,0.03344981194483715
1230,0.00195751115975655,0.03344981194483715
1231,0.00195751115975655,0.03347648643602123
1232,0.0019591302756868695,0.03347648643602123
1233,0.0019591302756868695,0.03350316092720532
1234,0.0019623685075475087,0.03350316092720532
1235,0.0019623685075475087,0.03352983541838939
1236,0.0019720832031294273,0.03352983541838939
1237,0.0019720832031294273,0.03360985889194164
1238,0.001975321434990067,0.03360985889194164
1239,0.001975321434990067,0.033636533383125715
1240,0.0019801787827810257,0.033636533383125715
1241,0.0019801787827810257,0.033743231347862036
1242,0.0019834170146416654,0.033743231347862036
1243,0.0019834170146416654,0.033796580330230204
1244,0.001985036130571985,0.033796580330230204
1245,0.001985036130571985,0.033849929312598365
1246,0.0019866552465023046,0.033849929312598365
1247,0.0019866552465023046,0.033903278294966525
1248,0.0019882743624326247,0.033903278294966525
1249,0.0019882743624326247,0.033956627277334686
1250,0.0019898934783629443,0.033956627277334686
1251,0.0019898934783629443,0.03400997625970285
1252,0.001991512594293264,0.03400997625970285
1253,0.001991512594293264,0.034036650750886924
1254,0.0019947508261539035,0.034036650750886924
1255,0.0019947508261539035,0.03406332524207101
1256,0.001996369942084223,0.03406332524207101
1257,0.001996369942084223,0.03408999973325509
1258,0.0019979890580145428,0.03408999973325509
1259,0.0019979890580145428,0.03411667422443917
1260,0.001999608173944863,0.03411667422443917
1261,0.001999608173944863,0.03419669769799141
1262,0.0020012272898751824,0.03419669769799141
1263,0.0020012272898751824,0.034303395662727734
1264,0.002002846405805502,0.034303395662727734
1265,0.002002846405805502,0.03443676811864814
1266,0.0020044655217358216,0.03443676811864814
1267,0.0020044655217358216,0.03473018752167303
1268,0.0020060846376661417,0.03473018752167303
1269,0.0020060846376661417,0.03478353650404119
1270,0.0020077037535964613,0.03478353650404119
1271,0.0020077037535964613,0.034810210995225264
1272,0.00201418021731774,0.034810210995225264
1273,0.00201418021731774,0.034863559977593425
1274,0.0020157993332480598,0.034863559977593425
1275,0.0020157993332480598,0.035130304889434236
1276,0.0020222757969693386,0.035130304889434236
1277,0.0020222757969693386,0.03515697938061831
1278,0.0020238949128996587,0.03515697938061831
1279,0.0020238949128996587,0.035183653871802396
1280,0.0020287522606906175,0.035183653871802396
1281,0.0020287522606906175,0.0353170263277228
1282,0.002031990492551257,0.0353170263277228
1283,0.002031990492551257,0.03534370081890688
1284,0.0020336096084815768,0.03534370081890688
1285,0.0020336096084815768,0.03537037531009096
1286,0.002035228724411897,0.03537037531009096
1287,0.002035228724411897,0.03542372429245912
1288,0.0020368478403422164,0.03542372429245912
1289,0.0020368478403422164,0.035530422257195445
1290,0.002038466956272536,0.035530422257195445
1291,0.002038466956272536,0.035583771239563605
1292,0.0020400860722028557,0.035583771239563605
1293,0.0020400860722028557,0.03561044573074769
1294,0.0020433243040634953,0.03561044573074769
1295,0.0020433243040634953,0.03566379471311585
1296,0.002044943419993815,0.03566379471311585
1297,0.002044943419993815,0.03577049267785217
1298,0.0020481816518544546,0.03577049267785217
1299,0.0020481816518544546,0.03579716716903625
1300,0.002051419883715094,0.03579716716903625
1301,0.002051419883715094,0.03582384166022033
1302,0.0020530389996454134,0.03582384166022033
1303,0.0020530389996454134,0.03585051615140441
1304,0.0020546581155757335,0.03585051615140441
1305,0.0020546581155757335,0.03595721411614074
1306,0.002056277231506053,0.03595721411614074
1307,0.002056277231506053,0.036037237589692975
1308,0.0020578963474363727,0.036037237589692975
1309,0.0020578963474363727,0.03611726106324522
1310,0.002062753695227332,0.03611726106324522
1311,0.002062753695227332,0.036197284536797464
1312,0.0020643728111576515,0.036197284536797464
1313,0.0020643728111576515,0.03622395902798154
1314,0.0020659919270879716,0.03622395902798154
1315,0.0020659919270879716,0.036250633519165625
1316,0.0020821830863911686,0.036250633519165625
1317,0.0020821830863911686,0.0362773080103497
1318,0.002085421318251808,0.0362773080103497
1319,0.002085421318251808,0.036357331483901946
1320,0.0020886595501124474,0.036357331483901946
1321,0.0020886595501124474,0.03638400597508602
1322,0.0020902786660427675,0.03638400597508602
1323,0.0020902786660427675,0.03654405292219051
1324,0.0020935168979034067,0.03654405292219051
1325,0.0020935168979034067,0.03665075088692683
1326,0.002098374245694366,0.03665075088692683
1327,0.002098374245694366,0.036704099869294994
1328,0.0020999933616246856,0.036704099869294994
1329,0.0020999933616246856,0.036757448851663155
1330,0.0021032315934853252,0.036757448851663155
1331,0.0021032315934853252,0.03678412334284724
1332,0.0021064698253459645,0.03678412334284724
1333,0.0021064698253459645,0.0368374723252154
1334,0.0021080889412762845,0.0368374723252154
1335,0.0021080889412762845,0.03705086825468804
1336,0.0021113271731369237,0.03705086825468804
1337,0.0021113271731369237,0.03723758969297661
1338,0.0021129462890672433,0.03723758969297661
1339,0.0021129462890672433,0.037317613166528846
1340,0.0021145654049975634,0.037317613166528846
1341,0.0021145654049975634,0.03734428765771293
1342,0.002119422752788522,0.03734428765771293
1343,0.002119422752788522,0.037370962148897006
1344,0.0021210418687188422,0.037370962148897006
1345,0.0021210418687188422,0.037477660113633335
1346,0.002122660984649162,0.037477660113633335
1347,0.002122660984649162,0.037531009096001496
1348,0.0021242801005794815,0.037531009096001496
1349,0.0021242801005794815,0.03763770706073782
1350,0.0021258992165098015,0.03763770706073782
1351,0.0021258992165098015,0.03771773053429006
1352,0.0021291374483704407,0.03771773053429006
1353,0.0021291374483704407,0.0377977540078423
1354,0.0021307565643007603,0.0377977540078423
1355,0.0021307565643007603,0.03782442849902638
1356,0.0021323756802310804,0.03782442849902638
1357,0.0021323756802310804,0.03785110299021046
1358,0.0021339947961614,0.03785110299021046
1359,0.0021339947961614,0.03801114993731495
1360,0.0021356139120917196,0.03801114993731495
1361,0.0021356139120917196,0.03811784790205127
1362,0.0021372330280220392,0.03811784790205127
1363,0.0021372330280220392,0.03825122035797167
1364,0.0021388521439523593,0.03825122035797167
1365,0.0021388521439523593,0.03833124383152391
1366,0.002145328607673638,0.03833124383152391
1367,0.002145328607673638,0.038384592813892074
1368,0.0021469477236039577,0.038384592813892074
1369,0.0021469477236039577,0.03841126730507616
1370,0.0021501859554645974,0.03841126730507616
1371,0.0021501859554645974,0.03846461628744432
1372,0.002151805071394917,0.03846461628744432
1373,0.002151805071394917,0.038491290778628395
1374,0.0021534241873252366,0.038491290778628395
1375,0.0021534241873252366,0.03851796526981248
1376,0.002158281535116196,0.03851796526981248
1377,0.002158281535116196,0.03857131425218064
1378,0.002161519766976835,0.03857131425218064
1379,0.002161519766976835,0.038597988743364724
1380,0.002163138882907155,0.038597988743364724
1381,0.002163138882907155,0.0386246632345488
1382,0.0021647579988374748,0.0386246632345488
1383,0.0021647579988374748,0.038651337725732884
1384,0.002169615346628434,0.038651337725732884
1385,0.002169615346628434,0.038758035690469206
1386,0.0021712344625587536,0.038758035690469206
1387,0.0021712344625587536,0.03899810611112593
1388,0.0021744726944193933,0.03899810611112593
1389,0.0021744726944193933,0.039104804075862254
1390,0.002179330042210352,0.039104804075862254
1391,0.002179330042210352,0.039211502040598575
1392,0.002180949158140672,0.039211502040598575
1393,0.002180949158140672,0.0393182000053349
1394,0.002185806505931631,0.0393182000053349
1395,0.002185806505931631,0.0394515724612553
1396,0.0021890447377922707,0.0394515724612553
1397,0.0021890447377922707,0.03950492144362346
1398,0.0021906638537225903,0.03950492144362346
1399,0.0021906638537225903,0.03955827042599162
1400,0.002197140317443869,0.03955827042599162
1401,0.002197140317443869,0.03990503881138467
1402,0.002198759433374189,0.03990503881138467
1403,0.002198759433374189,0.03995838779375283
1404,0.002200378549304509,0.03995838779375283
1405,0.002200378549304509,0.039985062284936916
1406,0.0022019976652348284,0.039985062284936916
1407,0.0022019976652348284,0.040065085758489154
1408,0.002203616781165148,0.040065085758489154
1409,0.002203616781165148,0.04009176024967324
1410,0.002205235897095468,0.04009176024967324
1411,0.002205235897095468,0.04017178372322548
1412,0.0022084741289561073,0.04017178372322548
1413,0.0022084741289561073,0.04025180719677772
1414,0.0022133314767470665,0.04025180719677772
1415,0.0022133314767470665,0.04030515617914588
1416,0.002216569708607706,0.04030515617914588
1417,0.002216569708607706,0.040491877617434446
1418,0.002218188824538026,0.040491877617434446
1419,0.002218188824538026,0.04051855210861853
1420,0.002223046172328985,0.04051855210861853
1421,0.002223046172328985,0.04059857558217077
1422,0.0022262844041896243,0.04059857558217077
1423,0.0022262844041896243,0.04062525007335485
1424,0.002229522636050264,0.04062525007335485
1425,0.002229522636050264,0.04067859905572301
1426,0.0022311417519805836,0.04067859905572301
1427,0.0022311417519805836,0.040838646002827494
1428,0.002232760867910903,0.040838646002827494
1429,0.002232760867910903,0.04086532049401158
1430,0.002234379983841223,0.04086532049401158
1431,0.002234379983841223,0.04091866947637974
1432,0.002235999099771543,0.04091866947637974
1433,0.002235999099771543,0.040945343967563816
1434,0.0022376182157018624,0.040945343967563816
1435,0.0022376182157018624,0.0409720184587479
1436,0.002239237331632182,0.0409720184587479
1437,0.002239237331632182,0.041052041932300144
1438,0.002240856447562502,0.041052041932300144
1439,0.002240856447562502,0.041105390914668305
1440,0.002245713795353461,0.041105390914668305
1441,0.002245713795353461,0.04113206540585238
1442,0.002247332911283781,0.04113206540585238
1443,0.002247332911283781,0.041158739897036466
1444,0.0022489520272141006,0.041158739897036466
1445,0.0022489520272141006,0.04118541438822054
1446,0.00225057114314442,0.04118541438822054
1447,0.00225057114314442,0.041212088879404626
1448,0.00225219025907474,0.041212088879404626
1449,0.00225219025907474,0.04137213582650911
1450,0.00225380937500506,0.04137213582650911
1451,0.00225380937500506,0.04142548480887727
1452,0.002257047606865699,0.04142548480887727
1453,0.002257047606865699,0.04145215930006135
1454,0.0022602858387263387,0.04145215930006135
1455,0.0022602858387263387,0.04147883379124543
1456,0.002265143186517298,0.04147883379124543
1457,0.002265143186517298,0.04153218277361359
1458,0.002268381418377937,0.04153218277361359
1459,0.002268381418377937,0.041612206247165835
1460,0.002270000534308257,0.041612206247165835
1461,0.002270000534308257,0.04163888073834992
1462,0.002271619650238577,0.04163888073834992
1463,0.002271619650238577,0.04171890421190216
1464,0.0022732387661688965,0.04171890421190216
1465,0.0022732387661688965,0.04177225319427032
1466,0.002276476998029536,0.04177225319427032
1467,0.002276476998029536,0.04190562565019072
1468,0.002282953461750815,0.04190562565019072
1469,0.002282953461750815,0.042012323614927044
1470,0.002286191693611454,0.042012323614927044
1471,0.002286191693611454,0.042065672597295205
1472,0.002287810809541774,0.042065672597295205
1473,0.002287810809541774,0.04214569607084745
1474,0.0022910490414024135,0.04214569607084745
1475,0.0022910490414024135,0.04225239403558377
1476,0.002292668157332733,0.04225239403558377
1477,0.002292668157332733,0.04235909200032009
1478,0.0022942872732630527,0.04235909200032009
1479,0.0022942872732630527,0.042385766491504176
1480,0.0022975255051236924,0.042385766491504176
1481,0.0022975255051236924,0.04241244098268825
1482,0.002299144621054012,0.04241244098268825
1483,0.002299144621054012,0.04254581343860866
1484,0.0023023828529146516,0.04254581343860866
1485,0.0023023828529146516,0.04270586038571314
1486,0.0023040019688449712,0.04270586038571314
1487,0.0023040019688449712,0.042785883859265385
1488,0.002307240200705611,0.042785883859265385
1489,0.002307240200705611,0.04281255835044947
1490,0.0023088593166359305,0.04281255835044947
1491,0.0023088593166359305,0.042892581824001706
1492,0.0023120975484965697,0.042892581824001706
1493,0.0023120975484965697,0.04294593080636987
1494,0.0023137166644268898,0.04294593080636987
1495,0.0023137166644268898,0.04299927978873803
1496,0.0023153357803572094,0.04299927978873803
1497,0.0023153357803572094,0.04305262877110619
1498,0.002316954896287529,0.04305262877110619
1499,0.002316954896287529,0.04315932673584252
1500,0.002318574012217849,0.04315932673584252
1501,0.002318574012217849,0.043239350209394754
1502,0.002325050475939128,0.043239350209394754
1503,0.002325050475939128,0.04326602470057884
1504,0.0023299078237300867,0.04326602470057884
1505,0.0023299078237300867,0.043319373682947
1506,0.0023315269396604068,0.043319373682947
1507,0.0023315269396604068,0.043346048174131076
1508,0.0023331460555907264,0.043346048174131076
1509,0.0023331460555907264,0.043399397156499236
1510,0.0023396225193120053,0.043399397156499236
1511,0.0023396225193120053,0.043612793085971886
1512,0.002341241635242325,0.043612793085971886
1513,0.002341241635242325,0.04377284003307637
1514,0.0023477180989636037,0.04377284003307637
1515,0.0023477180989636037,0.04382618901544453
1516,0.002349337214893924,0.04382618901544453
1517,0.002349337214893924,0.04387953799781269
1518,0.0023509563308242434,0.04387953799781269
1519,0.0023509563308242434,0.04393288698018085
1520,0.0023541945626848826,0.04393288698018085
1521,0.0023541945626848826,0.044012910453733095
1522,0.0023558136786152027,0.044012910453733095
1523,0.0023558136786152027,0.04403958494491718
1524,0.002359051910475842,0.04403958494491718
1525,0.002359051910475842,0.04409293392728534
1526,0.0023622901423364815,0.04409293392728534
1527,0.0023622901423364815,0.044119608418469416
1528,0.00237038572198808,0.044119608418469416
1529,0.00237038572198808,0.0441462829096535
1530,0.0023736239538487197,0.0441462829096535
1531,0.0023736239538487197,0.04417295740083758
1532,0.0023752430697790393,0.04417295740083758
1533,0.0023752430697790393,0.04419963189202166
1534,0.0023784813016396785,0.04419963189202166
1535,0.0023784813016396785,0.044333004347942066
1536,0.0023801004175699986,0.044333004347942066
1537,0.0023801004175699986,0.04449305129504655
1538,0.002381719533500318,0.04449305129504655
1539,0.002381719533500318,0.044519725786230625
1540,0.002384957765360958,0.044519725786230625
1541,0.002384957765360958,0.04454640027741471
1542,0.002388195997221597,0.04454640027741471
1543,0.002388195997221597,0.044573074768598786
1544,0.0023914342290822367,0.044573074768598786
1545,0.0023914342290822367,0.044626423750966954
1546,0.002394672460942876,0.044626423750966954
1547,0.002394672460942876,0.04470644722451919
1548,0.0023962915768731955,0.04470644722451919
1549,0.0023962915768731955,0.04481314518925551
1550,0.0023979106928035156,0.04481314518925551
1551,0.0023979106928035156,0.0448398196804396
1552,0.002401148924664155,0.0448398196804396
1553,0.002401148924664155,0.04505321560991224
1554,0.0024027680405944744,0.04505321560991224
1555,0.0024027680405944744,0.0451065645922804
1556,0.002406006272455114,0.0451065645922804
1557,0.002406006272455114,0.045186588065832645
1558,0.002412482736176393,0.045186588065832645
1559,0.002412482736176393,0.045239937048200805
1560,0.0024157209680370326,0.045239937048200805
1561,0.0024157209680370326,0.04531996052175305
1562,0.002417340083967352,0.04531996052175305
1563,0.002417340083967352,0.04542665848648937
1564,0.0024205783158279914,0.04542665848648937
1565,0.0024205783158279914,0.04553335645122569
1566,0.0024254356636189507,0.04553335645122569
1567,0.0024254356636189507,0.045640054415962014
1568,0.0024270547795492703,0.045640054415962014
1569,0.0024270547795492703,0.04572007788951426
1570,0.0024286738954795903,0.04572007788951426
1571,0.0024286738954795903,0.045746752380698336
1572,0.0024319121273402296,0.045746752380698336
1573,0.0024319121273402296,0.045906799327802825
1574,0.0024335312432705496,0.045906799327802825
1575,0.0024335312432705496,0.045960148310170985
1576,0.0024383885910615084,0.045960148310170985
1577,0.0024383885910615084,0.046013497292539146
1578,0.0024432459388524677,0.046013497292539146
1579,0.0024432459388524677,0.04606684627490731
1580,0.0024448650547827873,0.04606684627490731
1581,0.0024448650547827873,0.046093520766091384
1582,0.0024464841707131074,0.046093520766091384
1583,0.0024464841707131074,0.04617354423964363
1584,0.0024513415185040666,0.04617354423964363
1585,0.0024513415185040666,0.04633359118674811
1586,0.002454579750364706,0.04633359118674811
1587,0.002454579750364706,0.04638694016911627
1588,0.0024578179822253455,0.04638694016911627
1589,0.0024578179822253455,0.0464936381338526
1590,0.0024610562140859847,0.0464936381338526
1591,0.0024610562140859847,0.04657366160740484
1592,0.0024642944459466244,0.04657366160740484
1593,0.0024642944459466244,0.04660033609858892
1594,0.002469151793737583,0.04660033609858892
1595,0.002469151793737583,0.046627010589773
1596,0.0024756282574588625,0.046627010589773
1597,0.0024756282574588625,0.04665368508095708
1598,0.0024788664893195017,0.04665368508095708
1599,0.0024788664893195017,0.04670703406332524
1600,0.0024804856052498213,0.04670703406332524
1601,0.0024804856052498213,0.04689375550161381
1602,0.0024821047211801414,0.04689375550161381
1603,0.0024821047211801414,0.046920429992797885
1604,0.002483723837110461,0.046920429992797885
1605,0.002483723837110461,0.04694710448398197
1606,0.0024853429530407806,0.04694710448398197
1607,0.0024853429530407806,0.046973778975166046
1608,0.0024869620689711,0.046973778975166046
1609,0.0024869620689711,0.04702712795753421
1610,0.0024885811849014203,0.04702712795753421
1611,0.0024885811849014203,0.04710715143108645
1612,0.00249020030083174,0.04710715143108645
1613,0.00249020030083174,0.04716050041345461
1614,0.0024918194167620595,0.04716050041345461
1615,0.0024918194167620595,0.047187174904638696
1616,0.0025047723442046172,0.047187174904638696
1617,0.0025047723442046172,0.04721384939582277
1618,0.0025063914601349373,0.04721384939582277
1619,0.0025063914601349373,0.04740057083411134
1620,0.002508010576065257,0.04740057083411134
1621,0.002508010576065257,0.047693990237136226
1622,0.002511248807925896,0.047693990237136226
1623,0.002511248807925896,0.04772066472832031
1624,0.002512867923856216,0.04772066472832031
1625,0.002512867923856216,0.04774733921950439
1626,0.0025161061557168554,0.04774733921950439
1627,0.0025161061557168554,0.04780068820187255
1628,0.0025177252716471754,0.04780068820187255
1629,0.0025177252716471754,0.04793406065779295
1630,0.0025209635035078146,0.04793406065779295
1631,0.0025209635035078146,0.0480140841313452
1632,0.0025225826194381342,0.0480140841313452
1633,0.0025225826194381342,0.04817413107844968
1634,0.0025242017353684543,0.04817413107844968
1635,0.0025242017353684543,0.04868094641094721
1636,0.0025274399672290935,0.04868094641094721
1637,0.0025274399672290935,0.04870762090213129
1638,0.002530678199089733,0.04870762090213129
1639,0.002530678199089733,0.04878764437568353
1640,0.0025322973150200528,0.04878764437568353
1641,0.0025322973150200528,0.048814318866867615
1642,0.002535535546880692,0.048814318866867615
1643,0.002535535546880692,0.048867667849235776
1644,0.002537154662811012,0.048867667849235776
1645,0.002537154662811012,0.0489743658139721
1646,0.0025387737787413316,0.0489743658139721
1647,0.0025387737787413316,0.04902771479634026
1648,0.0025403928946716513,0.04902771479634026
1649,0.0025403928946716513,0.0491077382698925
1650,0.0025420120106019713,0.0491077382698925
1651,0.0025420120106019713,0.04916108725226066
1652,0.002543631126532291,0.04916108725226066
1653,0.002543631126532291,0.04924111072581291
1654,0.00254848847432325,0.04924111072581291
1655,0.00254848847432325,0.04940115767291739
1656,0.00255010759025357,0.04940115767291739
1657,0.00255010759025357,0.049427832164101466
1658,0.002554964938044529,0.049427832164101466
1659,0.002554964938044529,0.04956120462002187
1660,0.0025565840539748487,0.04956120462002187
1661,0.0025565840539748487,0.049587879111205956
1662,0.0025582031699051683,0.049587879111205956
1663,0.0025582031699051683,0.04969457707594228
1664,0.0025598222858354883,0.04969457707594228
1665,0.0025598222858354883,0.049721251567126354
1666,0.002564679633626447,0.049721251567126354
1667,0.002564679633626447,0.04974792605831044
1668,0.002567917865487087,0.04974792605831044
1669,0.002567917865487087,0.04977460054949452
1670,0.0025695369814174064,0.04977460054949452
1671,0.0025695369814174064,0.04988129851423084
1672,0.002571156097347726,0.04988129851423084
1673,0.002571156097347726,0.04990797300541492
1674,0.002572775213278046,0.04990797300541492
1675,0.002572775213278046,0.050041345461335325
1676,0.0025743943292083657,0.050041345461335325
1677,0.0025743943292083657,0.05006801995251941
1678,0.002577632561069005,0.05006801995251941
1679,0.002577632561069005,0.050094694443703486
1680,0.002582489908859964,0.050094694443703486
1681,0.002582489908859964,0.05017471791725573
1682,0.002584109024790284,0.05017471791725573
1683,0.002584109024790284,0.05020139240843981
1684,0.002585728140720604,0.05020139240843981
1685,0.002585728140720604,0.05030809037317613
1686,0.0025873472566509234,0.05030809037317613
1687,0.0025873472566509234,0.05038811384672837
1688,0.002588966372581243,0.05038811384672837
1689,0.002588966372581243,0.05046813732028062
1690,0.002590585488511563,0.05046813732028062
1691,0.002590585488511563,0.05057483528501694
1692,0.0025938237203722023,0.05057483528501694
1693,0.0025938237203722023,0.050654858758569184
1694,0.002597061952232842,0.050654858758569184
1695,0.002597061952232842,0.050761556723305505
1696,0.0026051575318844404,0.050761556723305505
1697,0.0026051575318844404,0.05078823121448958
1698,0.00260677664781476,0.05078823121448958
1699,0.00260677664781476,0.050814905705673666
1700,0.00260839576374508,0.050814905705673666
1701,0.00260839576374508,0.05092160367040999
1702,0.0026116339956057193,0.05092160367040999
1703,0.0026116339956057193,0.05102830163514631
1704,0.0026164913433966786,0.05102830163514631
1705,0.0026164913433966786,0.05105497612633039
1706,0.002618110459326998,0.05105497612633039
1707,0.002618110459326998,0.05118834858225079
1708,0.002619729575257318,0.05118834858225079
1709,0.002619729575257318,0.05124169756461895
1710,0.002621348691187638,0.05124169756461895
1711,0.002621348691187638,0.05129504654698712
1712,0.002624586923048277,0.05129504654698712
1713,0.002624586923048277,0.051321721038171196
1714,0.0026278251549089167,0.051321721038171196
1715,0.0026278251549089167,0.05148176798527568
1716,0.0026294442708392363,0.05148176798527568
1717,0.0026294442708392363,0.051721838405932405
1718,0.002631063386769556,0.051721838405932405
1719,0.002631063386769556,0.05174851289711649
1720,0.002635920734560515,0.05174851289711649
1721,0.002635920734560515,0.05180186187948465
1722,0.002642397198281794,0.05180186187948465
1723,0.002642397198281794,0.05190855984422097
1724,0.0026440163142121137,0.05190855984422097
1725,0.0026440163142121137,0.051988583317773215
1726,0.002650492777933393,0.051988583317773215
1727,0.002650492777933393,0.052335351703166264
1728,0.0026537310097940322,0.052335351703166264
1729,0.0026537310097940322,0.052442049667902585
1730,0.002655350125724352,0.052442049667902585
1731,0.002655350125724352,0.05246872415908667
1732,0.002656969241654672,0.05246872415908667
1733,0.002656969241654672,0.05252207314145483
1734,0.0026585883575849915,0.05252207314145483
1735,0.0026585883575849915,0.05278881805329563
1736,0.002660207473515311,0.05278881805329563
1737,0.002660207473515311,0.0529755394915842
1738,0.0026618265894456307,0.0529755394915842
1739,0.0026618265894456307,0.053002213982768276
1740,0.0026634457053759508,0.053002213982768276
1741,0.0026634457053759508,0.05308223745632052
1742,0.0026650648213062704,0.05308223745632052
1743,0.0026650648213062704,0.053108911947504604
1744,0.00266668393723659,0.053108911947504604
1745,0.00266668393723659,0.05313558643868868
1746,0.00266830305316691,0.05313558643868868
1747,0.00266830305316691,0.05318893542105684
1748,0.0026715412850275492,0.05318893542105684
1749,0.0026715412850275492,0.053215609912240926
1750,0.002674779516888189,0.053215609912240926
1751,0.002674779516888189,0.05340233135052949
1752,0.002678017748748828,0.05340233135052949
1753,0.002678017748748828,0.05342900584171357
1754,0.0026796368646791477,0.05342900584171357
1755,0.0026796368646791477,0.05350902931526581
1756,0.0026812559806094678,0.05350902931526581
1757,0.0026812559806094678,0.05374909973592254
1758,0.0026861133284004266,0.05374909973592254
1759,0.0026861133284004266,0.0538024487182907
1760,0.0026877324443307466,0.0538024487182907
1761,0.0026877324443307466,0.05382912320947478
1762,0.0026893515602610663,0.05382912320947478
1763,0.0026893515602610663,0.05385579770065886
1764,0.0026942089080520255,0.05385579770065886
1765,0.0026942089080520255,0.053989170156579266
1766,0.002695828023982345,0.053989170156579266
1767,0.002695828023982345,0.05401584464776334
1768,0.0026974471399126647,0.05401584464776334
1769,0.0026974471399126647,0.05425591506842007
1770,0.002699066255842985,0.05425591506842007
1771,0.002699066255842985,0.054389287524340475
1772,0.0027039236036339436,0.054389287524340475
1773,0.0027039236036339436,0.05441596201552455
1774,0.0027055427195642637,0.05441596201552455
1775,0.0027055427195642637,0.054442636506708636
1776,0.0027071618354945833,0.054442636506708636
1777,0.0027071618354945833,0.05465603243618128
1778,0.002708780951424903,0.05465603243618128
1779,0.002708780951424903,0.05470938141854944
1780,0.0027104000673552225,0.05470938141854944
1781,0.0027104000673552225,0.05473605590973352
1782,0.0027120191832855425,0.05473605590973352
1783,0.0027120191832855425,0.0547627304009176
1784,0.002713638299215862,0.0547627304009176
1785,0.002713638299215862,0.054789404892101684
1786,0.0027152574151461818,0.054789404892101684
1787,0.0027152574151461818,0.05481607938328576
1788,0.0027184956470068214,0.05481607938328576
1789,0.0027184956470068214,0.054842753874469845
1790,0.002720114762937141,0.054842753874469845
1791,0.002720114762937141,0.054896102856838006
1792,0.0027217338788674606,0.054896102856838006
1793,0.0027217338788674606,0.05492277734802209
1794,0.0027233529947977807,0.05492277734802209
1795,0.0027233529947977807,0.054949451839206166
1796,0.0027249721107281003,0.054949451839206166
1797,0.0027249721107281003,0.05497612633039025
1798,0.00272659122665842,0.05497612633039025
1799,0.00272659122665842,0.05508282429512657
1800,0.0027282103425887395,0.05508282429512657
1801,0.0027282103425887395,0.05521619675104698
1802,0.0027298294585190595,0.05521619675104698
1803,0.0027298294585190595,0.05526954573341514
1804,0.002734686806310019,0.05526954573341514
1805,0.002734686806310019,0.055349569206967375
1806,0.0027363059222403384,0.055349569206967375
1807,0.0027363059222403384,0.05537624369815146
1808,0.002737925038170658,0.05537624369815146
1809,0.002737925038170658,0.05542959268051962
1810,0.0027395441541009776,0.05542959268051962
1811,0.0027395441541009776,0.055509616154071864
1812,0.0027411632700312977,0.055509616154071864
1813,0.0027411632700312977,0.05553629064525594
1814,0.0027427823859616173,0.05553629064525594
1815,0.0027427823859616173,0.05569633759236042
1816,0.0027460206178222565,0.05569633759236042
1817,0.0027460206178222565,0.05580303555709675
1818,0.002749258849682896,0.05580303555709675
1819,0.002749258849682896,0.05582971004828083
1820,0.002750877965613216,0.05582971004828083
1821,0.002750877965613216,0.05593640801301715
1822,0.0027524970815435354,0.05593640801301715
1823,0.0027524970815435354,0.05598975699538531
1824,0.002755735313404175,0.05598975699538531
1825,0.002755735313404175,0.05604310597775347
1826,0.0027589735452648147,0.05604310597775347
1827,0.0027589735452648147,0.05609645496012164
1828,0.0027638308930557735,0.05609645496012164
1829,0.0027638308930557735,0.0561498039424898
1830,0.002767069124916413,0.0561498039424898
1831,0.002767069124916413,0.05622982741604204
1832,0.002768688240846733,0.05622982741604204
1833,0.002768688240846733,0.0562831763984102
1834,0.0027703073567770524,0.0562831763984102
1835,0.0027703073567770524,0.056469897836698764
1836,0.0027719264727073725,0.056469897836698764
1837,0.0027719264727073725,0.056736642748539574
1838,0.002773545588637692,0.056736642748539574
1839,0.002773545588637692,0.05681666622209181
1840,0.0027751647045680117,0.05681666622209181
1841,0.0027751647045680117,0.05692336418682813
1842,0.0027767838204983313,0.05692336418682813
1843,0.0027767838204983313,0.05700338766038038
1844,0.0027784029364286513,0.05700338766038038
1845,0.0027784029364286513,0.05703006215156446
1846,0.0027816411682892906,0.05703006215156446
1847,0.0027816411682892906,0.05705673664274854
1848,0.00278487940014993,0.05705673664274854
1849,0.00278487940014993,0.057243458081037105
1850,0.00278649851608025,0.057243458081037105
1851,0.00278649851608025,0.05727013257222118
1852,0.0027881176320105694,0.05727013257222118
1853,0.0027881176320105694,0.057296807063405265
1854,0.0027897367479408895,0.057296807063405265
1855,0.0027897367479408895,0.05732348155458935
1856,0.002791355863871209,0.05732348155458935
1857,0.002791355863871209,0.05737683053695751
1858,0.0027929749798015287,0.05737683053695751
1859,0.0027929749798015287,0.05745685401050975
1860,0.0027945940957318483,0.05745685401050975
1861,0.0027945940957318483,0.05756355197524607
1862,0.0027994514435228076,0.05756355197524607
1863,0.0027994514435228076,0.05761690095761424
1864,0.002804308791313767,0.05761690095761424
1865,0.002804308791313767,0.05772359892235056
1866,0.0028075470231744065,0.05772359892235056
1867,0.0028075470231744065,0.057750273413534635
1868,0.002809166139104726,0.057750273413534635
1869,0.002809166139104726,0.057856971378270956
1870,0.0028107852550350457,0.057856971378270956
1871,0.0028107852550350457,0.05788364586945504
1872,0.002818880834686644,0.05788364586945504
1873,0.002818880834686644,0.05812371629011177
1874,0.0028204999506169642,0.05812371629011177
1875,0.0028204999506169642,0.05820373976366401
1876,0.002822119066547284,0.05820373976366401
1877,0.002822119066547284,0.05833711221958441
1878,0.0028237381824776035,0.05833711221958441
1879,0.0028237381824776035,0.05839046120195257
1880,0.002826976414338243,0.05839046120195257
1881,0.002826976414338243,0.058417135693136654
1882,0.0028302146461988823,0.058417135693136654
1883,0.0028302146461988823,0.05844381018432073
1884,0.0028318337621292024,0.05844381018432073
1885,0.0028318337621292024,0.0584971591666889
1886,0.0028350719939898416,0.0584971591666889
1887,0.0028350719939898416,0.05855050814905706
1888,0.002836691109920161,0.05855050814905706
1889,0.002836691109920161,0.05873722958734562
1890,0.002839929341780801,0.05873722958734562
1891,0.002839929341780801,0.05881725306089786
1892,0.0028431675736414405,0.05881725306089786
1893,0.0028431675736414405,0.05884392755208195
1894,0.0028480249214323993,0.05884392755208195
1895,0.0028480249214323993,0.05900397449918643
1896,0.0028528822692233586,0.05900397449918643
1897,0.0028528822692233586,0.05905732348155459
1898,0.0028545013851536782,0.05905732348155459
1899,0.0028545013851536782,0.059190695937474995
1900,0.0028561205010839983,0.059190695937474995
1901,0.0028561205010839983,0.059297393902211316
1902,0.002857739617014318,0.059297393902211316
1903,0.002857739617014318,0.05943076635813172
1904,0.0028593587329446375,0.05943076635813172
1905,0.0028593587329446375,0.0594574408493158
1906,0.002860977848874957,0.0594574408493158
1907,0.002860977848874957,0.059590813305236204
1908,0.002862596964805277,0.059590813305236204
1909,0.002862596964805277,0.059644162287604365
1910,0.0028642160807355968,0.059644162287604365
1911,0.0028642160807355968,0.05967083677878844
1912,0.0028658351966659164,0.05967083677878844
1913,0.0028658351966659164,0.05983088372589293
1914,0.0028674543125962364,0.05983088372589293
1915,0.0028674543125962364,0.05996425618181333
1916,0.002869073428526556,0.05996425618181333
1917,0.002869073428526556,0.06004427965536557
1918,0.0028706925444568756,0.06004427965536557
1919,0.0028706925444568756,0.060097628637733734
1920,0.0028739307763175153,0.060097628637733734
1921,0.0028739307763175153,0.06012430312891782
1922,0.002875549892247835,0.06012430312891782
1923,0.002875549892247835,0.060150977620101895
1924,0.0028771690081781545,0.060150977620101895
1925,0.0028771690081781545,0.06023100109365414
1926,0.002878788124108474,0.06023100109365414
1927,0.002878788124108474,0.060311024567206384
1928,0.0028820263559691138,0.060311024567206384
1929,0.0028820263559691138,0.060471071514310866
1930,0.002886883703760073,0.060471071514310866
1931,0.002886883703760073,0.060551094987863104
1932,0.0028885028196903926,0.060551094987863104
1933,0.0028885028196903926,0.06060444397023127
1934,0.0028901219356207123,0.06060444397023127
1935,0.0028901219356207123,0.06063111846141535
1936,0.0028917410515510323,0.06063111846141535
1937,0.0028917410515510323,0.06065779295259943
1938,0.0028949792834116715,0.06065779295259943
1939,0.0028949792834116715,0.06071114193496759
1940,0.0028998366312026308,0.06071114193496759
1941,0.0028998366312026308,0.06095121235562432
1942,0.0029014557471329504,0.06095121235562432
1943,0.0029014557471329504,0.06103123582917656
1944,0.00290469397899359,0.06103123582917656
1945,0.00290469397899359,0.0611112593027288
1946,0.0029127895586451885,0.0611112593027288
1947,0.0029127895586451885,0.06119128277628104
1948,0.002916027790505828,0.06119128277628104
1949,0.002916027790505828,0.06135132972338553
1950,0.002917646906436148,0.06135132972338553
1951,0.002917646906436148,0.06140467870575369
1952,0.0029192660223664674,0.06140467870575369
1953,0.0029192660223664674,0.061538051161674094
1954,0.002920885138296787,0.061538051161674094
1955,0.002920885138296787,0.06156472565285817
1956,0.002922504254227107,0.06156472565285817
1957,0.002922504254227107,0.06161807463522633
1958,0.0029241233701574267,0.06161807463522633
1959,0.0029241233701574267,0.06167142361759449
1960,0.002927361602018066,0.06167142361759449
1961,0.002927361602018066,0.061698098108778576
1962,0.002928980717948386,0.061698098108778576
1963,0.002928980717948386,0.06175144709114674
1964,0.0029305998338787055,0.06175144709114674
1965,0.0029305998338787055,0.06185814505588306
1966,0.002932218949809025,0.06185814505588306
1967,0.002932218949809025,0.06191149403825122
1968,0.002933838065739345,0.06191149403825122
1969,0.002933838065739345,0.0619381685294353
1970,0.002935457181669665,0.0619381685294353
1971,0.002935457181669665,0.06196484302061938
1972,0.0029370762975999844,0.06196484302061938
1973,0.0029370762975999844,0.06201819200298754
1974,0.002938695413530304,0.06201819200298754
1975,0.002938695413530304,0.062044866494171624
1976,0.002940314529460624,0.062044866494171624
1977,0.002940314529460624,0.062204913441276107
1978,0.0029419336453909437,0.062204913441276107
1979,0.0029419336453909437,0.06223158793246019
1980,0.0029435527613212633,0.06223158793246019
1981,0.0029435527613212633,0.06244498386193283
1982,0.002945171877251583,0.06244498386193283
1983,0.002945171877251583,0.062498332844300994
1984,0.0029516483409728618,0.062498332844300994
1985,0.0029516483409728618,0.06257835631785323
1986,0.002953267456903182,0.06257835631785323
1987,0.002953267456903182,0.06260503080903732
1988,0.0029548865728335014,0.06260503080903732
1989,0.0029548865728335014,0.0626317053002214
1990,0.002956505688763821,0.0626317053002214
1991,0.002956505688763821,0.06268505428258955
1992,0.002958124804694141,0.06268505428258955
1993,0.002958124804694141,0.06303182266798261
1994,0.0029629821524851,0.06303182266798261
1995,0.0029629821524851,0.06319186961508709
1996,0.0029662203843457396,0.06319186961508709
1997,0.0029662203843457396,0.06321854410627117
1998,0.002969458616206379,0.06321854410627117
1999,0.002969458616206379,0.06335191656219158
2000,0.002971077732136699,0.06335191656219158
2001,0.002971077732136699,0.06353863800048014
2002,0.0029726968480670185,0.06353863800048014
2003,0.0029726968480670185,0.06372535943876871
2004,0.0029791733117882973,0.06372535943876871
2005,0.0029791733117882973,0.06380538291232095
2006,0.002980792427718617,0.06380538291232095
2007,0.002980792427718617,0.0638587318946891
2008,0.0029840306595792566,0.0638587318946891
2009,0.0029840306595792566,0.06393875536824135
2010,0.002985649775509576,0.06393875536824135
2011,0.002985649775509576,0.06412547680652991
2012,0.002988888007370216,0.06412547680652991
2013,0.002988888007370216,0.06420550028008215
2014,0.0029905071233005355,0.06420550028008215
2015,0.0029905071233005355,0.06433887273600256
2016,0.002992126239230855,0.06433887273600256
2017,0.002992126239230855,0.06436554722718664
2018,0.0029969835870218143,0.06436554722718664
2019,0.0029969835870218143,0.06439222171837072
2020,0.002998602702952134,0.06439222171837072
2021,0.002998602702952134,0.06444557070073888
2022,0.003000221818882454,0.06444557070073888
2023,0.003000221818882454,0.06449891968310704
2024,0.0030034600507430932,0.06449891968310704
2025,0.0030034600507430932,0.06452559417429113
2026,0.003005079166673413,0.06452559417429113
2027,0.003005079166673413,0.06457894315665928
2028,0.0030083173985340525,0.06457894315665928
2029,0.0030083173985340525,0.0646856411213956
2030,0.003009936514464372,0.0646856411213956
2031,0.003009936514464372,0.06481901357731601
2032,0.0030115556303946917,0.06481901357731601
2033,0.0030115556303946917,0.06487236255968418
2034,0.0030147938622553314,0.06487236255968418
2035,0.0030147938622553314,0.06492571154205233
2036,0.003016412978185651,0.06492571154205233
2037,0.003016412978185651,0.0649790605244205
2038,0.0030196512100462906,0.0649790605244205
2039,0.0030196512100462906,0.06505908399797274
2040,0.0030212703259766102,0.06505908399797274
2041,0.0030212703259766102,0.06508575848915682
2042,0.00302450855783725,0.06508575848915682
2043,0.00302450855783725,0.0651124329803409
2044,0.0030261276737675695,0.0651124329803409
2045,0.0030261276737675695,0.06513910747152499
2046,0.0030293659056282087,0.06513910747152499
2047,0.0030293659056282087,0.06524580543626131
2048,0.0030326041374888484,0.06524580543626131
2049,0.0030326041374888484,0.0653791778921817
2050,0.003034223253419168,0.0653791778921817
2051,0.003034223253419168,0.06540585238336578
2052,0.0030358423693494876,0.06540585238336578
2053,0.0030358423693494876,0.06543252687454987
2054,0.0030374614852798076,0.06543252687454987
2055,0.0030374614852798076,0.06548587585691804
2056,0.0030390806012101272,0.06548587585691804
2057,0.0030390806012101272,0.06553922483928619
2058,0.003040699717140447,0.06553922483928619
2059,0.003040699717140447,0.06556589933047027
2060,0.0030439379490010865,0.06556589933047027
2061,0.0030439379490010865,0.06572594627757476
2062,0.003045557064931406,0.06572594627757476
2063,0.003045557064931406,0.06585931873349515
2064,0.0030471761808617257,0.06585931873349515
2065,0.0030471761808617257,0.06591266771586332
2066,0.0030487952967920458,0.06591266771586332
2067,0.0030487952967920458,0.06612606364533596
2068,0.0030504144127223654,0.06612606364533596
2069,0.0030504144127223654,0.0662060871188882
2070,0.003052033528652685,0.0662060871188882
2071,0.003052033528652685,0.06628611059244045
2072,0.0030536526445830046,0.06628611059244045
2073,0.0030536526445830046,0.06636613406599269
2074,0.0030552717605133247,0.06636613406599269
2075,0.0030552717605133247,0.0664995065219131
2076,0.0030601291083042835,0.0664995065219131
2077,0.0030601291083042835,0.06655285550428125
2078,0.0030617482242346035,0.06655285550428125
2079,0.0030617482242346035,0.06660620448664942
2080,0.003066605572025563,0.06660620448664942
2081,0.003066605572025563,0.0666328789778335
2082,0.0030682246879558824,0.0666328789778335
2083,0.0030682246879558824,0.06665955346901759
2084,0.0030730820357468417,0.06665955346901759
2085,0.0030730820357468417,0.06668622796020165
2086,0.003076320267607481,0.06668622796020165
2087,0.003076320267607481,0.06673957694256982
2088,0.0030779393835378005,0.06673957694256982
2089,0.0030779393835378005,0.06681960041612206
2090,0.0030827967313287598,0.06681960041612206
2091,0.0030827967313287598,0.06695297287204247
2092,0.00308441584725908,0.06695297287204247
2093,0.00308441584725908,0.06697964736322655
2094,0.0030892731950500386,0.06697964736322655
2095,0.0030892731950500386,0.0670329963455947
2096,0.0030908923109803587,0.0670329963455947
2097,0.0030908923109803587,0.06719304329269919
2098,0.0030925114269106783,0.06719304329269919
2099,0.0030925114269106783,0.0673264157486196
2100,0.003094130542840998,0.0673264157486196
2101,0.003094130542840998,0.06740643922217184
2102,0.0030957496587713175,0.06740643922217184
2103,0.0030957496587713175,0.06743311371335592
2104,0.0030973687747016376,0.06743311371335592
2105,0.0030973687747016376,0.06751313718690816
2106,0.0031006070065622768,0.06751313718690816
2107,0.0031006070065622768,0.06761983515164448
2108,0.0031038452384229164,0.06761983515164448
2109,0.0031038452384229164,0.06764650964282856
2110,0.003105464354353236,0.06764650964282856
2111,0.003105464354353236,0.06767318413401265
2112,0.0031070834702835557,0.06767318413401265
2113,0.0031070834702835557,0.06777988209874897
2114,0.0031103217021441953,0.06777988209874897
2115,0.0031103217021441953,0.06780655658993305
2116,0.003111940818074515,0.06780655658993305
2117,0.003111940818074515,0.0678599055723012
2118,0.0031135599340048345,0.0678599055723012
2119,0.0031135599340048345,0.06799327802822161
2120,0.003116798165865474,0.06799327802822161
2121,0.003116798165865474,0.06809997599295793
2122,0.003118417281795794,0.06809997599295793
2123,0.003118417281795794,0.0681533249753261
2124,0.0031200363977261134,0.0681533249753261
2125,0.0031200363977261134,0.06831337192243057
2126,0.0031216555136564334,0.06831337192243057
2127,0.0031216555136564334,0.0684200698871669
2128,0.0031265128614473923,0.0684200698871669
2129,0.0031265128614473923,0.06850009336071915
2130,0.0031281319773777123,0.06850009336071915
2131,0.0031281319773777123,0.06852676785190323
2132,0.003129751093308032,0.06852676785190323
2133,0.003129751093308032,0.06863346581663955
2134,0.0031313702092383515,0.06863346581663955
2135,0.0031313702092383515,0.0686868147990077
2136,0.003134608441098991,0.0686868147990077
2137,0.003134608441098991,0.06871348929019179
2138,0.0031378466729596304,0.06871348929019179
2139,0.0031378466729596304,0.06882018725492811
2140,0.00314108490482027,0.06882018725492811
2141,0.00314108490482027,0.06895355971084852
2142,0.0031443231366809093,0.06895355971084852
2143,0.0031443231366809093,0.06903358318440075
2144,0.0031491804844718686,0.06903358318440075
2145,0.0031491804844718686,0.06914028114913708
2146,0.0031507996004021886,0.06914028114913708
2147,0.0031507996004021886,0.06930032809624156
2148,0.003152418716332508,0.06930032809624156
2149,0.003152418716332508,0.06972711995518685
2150,0.003154037832262828,0.06972711995518685
2151,0.003154037832262828,0.0698071434287391
2152,0.0031556569481931474,0.0698071434287391
2153,0.0031556569481931474,0.06986049241110726
2154,0.003158895180053787,0.06986049241110726
2155,0.003158895180053787,0.06988716690229134
2156,0.0031605142959841067,0.06988716690229134
2157,0.0031605142959841067,0.07004721384939583
2158,0.0031621334119144263,0.07004721384939583
2159,0.0031621334119144263,0.07010056283176398
2160,0.0031669907597053856,0.07010056283176398
2161,0.0031669907597053856,0.07015391181413215
2162,0.003168609875635705,0.07015391181413215
2163,0.003168609875635705,0.07018058630531622
2164,0.003171848107496345,0.07018058630531622
2165,0.003171848107496345,0.0702072607965003
2166,0.0031734672234266645,0.0702072607965003
2167,0.0031734672234266645,0.07028728427005256
2168,0.003176705455287304,0.07028728427005256
2169,0.003176705455287304,0.07039398223478888
2170,0.0031783245712176237,0.07039398223478888
2171,0.0031783245712176237,0.07042065672597295
2172,0.003183181919008583,0.07042065672597295
2173,0.003183181919008583,0.07060737816426152
2174,0.003186420150869222,0.07060737816426152
2175,0.003186420150869222,0.0706340526554456
2176,0.0031912774986601815,0.0706340526554456
2177,0.0031912774986601815,0.07068740163781376
2178,0.0031928966145905015,0.07068740163781376
2179,0.0031928966145905015,0.07087412307610233
2180,0.003194515730520821,0.07087412307610233
2181,0.003194515730520821,0.0709007975672864
2182,0.0031961348464511407,0.0709007975672864
2183,0.0031961348464511407,0.07095414654965457
2184,0.0031977539623814603,0.07095414654965457
2185,0.0031977539623814603,0.07111419349675904
2186,0.0031993730783117804,0.07111419349675904
2187,0.0031993730783117804,0.07124756595267945
2188,0.0032009921942421,0.07124756595267945
2189,0.0032009921942421,0.07138093840859985
2190,0.003204230426102739,0.07138093840859985
2191,0.003204230426102739,0.07140761289978394
2192,0.003207468657963379,0.07140761289978394
2193,0.003207468657963379,0.07143428739096802
2194,0.0032090877738936985,0.07143428739096802
2195,0.0032090877738936985,0.07148763637333617
2196,0.003210706889824018,0.07148763637333617
2197,0.003210706889824018,0.07154098535570434
2198,0.0032155642376149774,0.07154098535570434
2199,0.0032155642376149774,0.07167435781162475
2200,0.0032236598172665763,0.07167435781162475
2201,0.0032236598172665763,0.07183440475872922
2202,0.003225278933196896,0.07183440475872922
2203,0.003225278933196896,0.07188775374109739
2204,0.0032268980491272155,0.07188775374109739
2205,0.0032268980491272155,0.07194110272346554
2206,0.003228517165057535,0.07194110272346554
2207,0.003228517165057535,0.07204780068820187
2208,0.003230136280987855,0.07204780068820187
2209,0.003230136280987855,0.07210114967057003
2210,0.0032317553969181748,0.07210114967057003
2211,0.0032317553969181748,0.07218117314412227
2212,0.0032333745128484944,0.07218117314412227
2213,0.0032333745128484944,0.07244791805596308
2214,0.003234993628778814,0.07244791805596308
2215,0.003234993628778814,0.07247459254714717
2216,0.003236612744709134,0.07247459254714717
2217,0.003236612744709134,0.07266131398543572
2218,0.0032382318606394536,0.07266131398543572
2219,0.0032382318606394536,0.07274133745898798
2220,0.0032398509765697732,0.07274133745898798
2221,0.0032398509765697732,0.07276801195017205
2222,0.0032414700925000933,0.07276801195017205
2223,0.0032414700925000933,0.07279468644135613
2224,0.003243089208430413,0.07279468644135613
2225,0.003243089208430413,0.07287470991490837
2226,0.003246327440291052,0.07287470991490837
2227,0.003246327440291052,0.07300808237082877
2228,0.0032495656721516918,0.07300808237082877
2229,0.0032495656721516918,0.07303475686201286
2230,0.0032511847880820114,0.07303475686201286
2231,0.0032511847880820114,0.07306143135319694
2232,0.003252803904012331,0.07306143135319694
2233,0.003252803904012331,0.0731147803355651
2234,0.003254423019942651,0.0731147803355651
2235,0.003254423019942651,0.07327482728266958
2236,0.0032560421358729707,0.07327482728266958
2237,0.0032560421358729707,0.0735415721945104
2238,0.0032576612518032903,0.0735415721945104
2239,0.0032576612518032903,0.07386166608871936
2240,0.0032592803677336103,0.07386166608871936
2241,0.0032592803677336103,0.07399503854463976
2242,0.00326089948366393,0.07399503854463976
2243,0.00326089948366393,0.07402171303582385
2244,0.003264137715524569,0.07402171303582385
2245,0.003264137715524569,0.074075062018192
2246,0.003265756831454889,0.074075062018192
2247,0.003265756831454889,0.07412841100056017
2248,0.003267375947385209,0.07412841100056017
2249,0.003267375947385209,0.07431513243884873
2250,0.0032689950633155284,0.07431513243884873
2251,0.0032689950633155284,0.0743684814212169
2252,0.003270614179245848,0.0743684814212169
2253,0.003270614179245848,0.07439515591240096
2254,0.003272233295176168,0.07439515591240096
2255,0.003272233295176168,0.0745018538771373
2256,0.0032738524111064877,0.0745018538771373
2257,0.0032738524111064877,0.07455520285950545
2258,0.003277090642967127,0.07455520285950545
2259,0.003277090642967127,0.07460855184187362
2260,0.003278709758897447,0.07460855184187362
2261,0.003278709758897447,0.07463522633305769
2262,0.0032803288748277665,0.07463522633305769
2263,0.0032803288748277665,0.07466190082424178
2264,0.003283567106688406,0.07466190082424178
2265,0.003283567106688406,0.07471524980660994
2266,0.003285186222618726,0.07471524980660994
2267,0.003285186222618726,0.0747685987889781
2268,0.0032868053385490454,0.0747685987889781
2269,0.0032868053385490454,0.07479527328016218
2270,0.003288424454479365,0.07479527328016218
2271,0.003288424454479365,0.07492864573608259
2272,0.003290043570409685,0.07492864573608259
2273,0.003290043570409685,0.07498199471845074
2274,0.0032932818022703243,0.07498199471845074
2275,0.0032932818022703243,0.07514204166555523
2276,0.003294900918200644,0.07514204166555523
2277,0.003294900918200644,0.0751953906479234
2278,0.003296520034130964,0.0751953906479234
2279,0.003296520034130964,0.07524873963029155
2280,0.003299758265991603,0.07524873963029155
2281,0.003299758265991603,0.07532876310384379
2282,0.0033046156137825624,0.07532876310384379
2283,0.0033046156137825624,0.07535543759502787
2284,0.0033110920775038413,0.07535543759502787
2285,0.0033110920775038413,0.07540878657739604
2286,0.003312711193434161,0.07540878657739604
2287,0.003312711193434161,0.07548881005094828
2288,0.0033159494252948006,0.07548881005094828
2289,0.0033159494252948006,0.07554215903331644
2290,0.00331756854122512,0.07554215903331644
2291,0.00331756854122512,0.0755955080156846
2292,0.00331918765715544,0.0755955080156846
2293,0.00331918765715544,0.07564885699805277
2294,0.00332080677308576,0.07564885699805277
2295,0.00332080677308576,0.07575555496278909
2296,0.003324045004946399,0.07575555496278909
2297,0.003324045004946399,0.07578222945397317
2298,0.003325664120876719,0.07578222945397317
2299,0.003325664120876719,0.07596895089226173
2300,0.0033272832368070387,0.07596895089226173
2301,0.0033272832368070387,0.07612899783936622
2302,0.0033289023527373583,0.07612899783936622
2303,0.0033289023527373583,0.07615567233055029
2304,0.003332140584597998,0.07615567233055029
2305,0.003332140584597998,0.07626237029528661
2306,0.003336997932388957,0.07626237029528661
2307,0.003336997932388957,0.07631571927765478
2308,0.003338617048319277,0.07631571927765478
2309,0.003338617048319277,0.07636906826002295
2310,0.0033450935120405557,0.07636906826002295
2311,0.0033450935120405557,0.07644909173357518
2312,0.0033467126279708753,0.07644909173357518
2313,0.0033467126279708753,0.0765557896983115
2314,0.003348331743901195,0.0765557896983115
2315,0.003348331743901195,0.076715836645416
2316,0.003349950859831515,0.076715836645416
2317,0.003349950859831515,0.07692923257488864
2318,0.0033515699757618346,0.07692923257488864
2319,0.0033515699757618346,0.07735602443383392
2320,0.003353189091692154,0.07735602443383392
2321,0.003353189091692154,0.07762276934567473
2322,0.003356427323552794,0.07762276934567473
2323,0.003356427323552794,0.07780949078396329
2324,0.003359665555413433,0.07780949078396329
2325,0.003359665555413433,0.0779428632398837
2326,0.0033612846713437527,0.0779428632398837
2327,0.0033612846713437527,0.07802288671343593
2328,0.0033645229032043924,0.07802288671343593
2329,0.0033645229032043924,0.07815625916935634
2330,0.003366142019134712,0.07815625916935634
2331,0.003366142019134712,0.07820960815172451
2332,0.0033693802509953516,0.07820960815172451
2333,0.0033693802509953516,0.07826295713409266
2334,0.0033709993669256712,0.07826295713409266
2335,0.0033709993669256712,0.07828963162527675
2336,0.003374237598786311,0.07828963162527675
2337,0.003374237598786311,0.07842300408119715
2338,0.0033758567147166305,0.07842300408119715
2339,0.0033758567147166305,0.07844967857238123
2340,0.00337747583064695,0.07844967857238123
2341,0.00337747583064695,0.07850302755474939
2342,0.0033790949465772697,0.07850302755474939
2343,0.0033790949465772697,0.07868974899303796
2344,0.0033807140625075898,0.07868974899303796
2345,0.0033807140625075898,0.07874309797540611
2346,0.0033823331784379094,0.07874309797540611
2347,0.0033823331784379094,0.07879644695777428
2348,0.003383952294368229,0.07879644695777428
2349,0.003383952294368229,0.07892981941369469
2350,0.0033855714102985486,0.07892981941369469
2351,0.0033855714102985486,0.0790631918696151
2352,0.0033871905262288686,0.0790631918696151
2353,0.0033871905262288686,0.07908986636079916
2354,0.0033888096421591882,0.07908986636079916
2355,0.0033888096421591882,0.07911654085198325
2356,0.003392047874019828,0.07911654085198325
2357,0.003392047874019828,0.07916988983435141
2358,0.0033936669899501475,0.07916988983435141
2359,0.0033936669899501475,0.07922323881671957
2360,0.0033936669899501475,0.07927658779908774
2361,0.0033936669899501475,0.07938328576382406
2362,0.0033969052218107867,0.07938328576382406
2363,0.0033969052218107867,0.07943663474619221
2364,0.0033985243377411068,0.07943663474619221
2365,0.0033985243377411068,0.07951665821974446
2366,0.003401762569601746,0.07951665821974446
2367,0.003401762569601746,0.0795966816932967
2368,0.0034050008014623856,0.0795966816932967
2369,0.0034050008014623856,0.07967670516684894
2370,0.0034066199173927053,0.07967670516684894
2371,0.0034066199173927053,0.07989010109632158
2372,0.0034098581492533445,0.07989010109632158
2373,0.0034098581492533445,0.07991677558750566
2374,0.0034114772651836645,0.07991677558750566
2375,0.0034114772651836645,0.07994345007868975
2376,0.0034147154970443037,0.07994345007868975
2377,0.0034147154970443037,0.08002347355224199
2378,0.003416334612974624,0.08002347355224199
2379,0.003416334612974624,0.08015684600816239
2380,0.0034179537289049434,0.08015684600816239
2381,0.0034179537289049434,0.08021019499053056
2382,0.003419572844835263,0.08021019499053056
2383,0.003419572844835263,0.08023686948171464
2384,0.0034211919607655826,0.08023686948171464
2385,0.0034211919607655826,0.0802902184640828
2386,0.0034228110766959027,0.0802902184640828
2387,0.0034228110766959027,0.08034356744645096
2388,0.0034244301926262223,0.08034356744645096
2389,0.0034244301926262223,0.08045026541118729
2390,0.003426049308556542,0.08045026541118729
2391,0.003426049308556542,0.08050361439355544
2392,0.0034276684244868615,0.08050361439355544
2393,0.0034276684244868615,0.08055696337592361
2394,0.0034292875404171815,0.08055696337592361
2395,0.0034292875404171815,0.08058363786710769
2396,0.0034357640041384604,0.08058363786710769
2397,0.0034357640041384604,0.08066366134065993
2398,0.0034390022359990996,0.08066366134065993
2399,0.0034390022359990996,0.08069033583184401
2400,0.0034422404678597393,0.08069033583184401
2401,0.0034422404678597393,0.08071701032302808
2402,0.0034454786997203785,0.08071701032302808
2403,0.0034454786997203785,0.08077035930539625
2404,0.0034470978156506986,0.08077035930539625
2405,0.0034470978156506986,0.08079703379658033
2406,0.0034519551634416574,0.08079703379658033
2407,0.0034519551634416574,0.08087705727013257
2408,0.0034535742793719774,0.08087705727013257
2409,0.0034535742793719774,0.08090373176131666
2410,0.003455193395302297,0.08090373176131666
2411,0.003455193395302297,0.08095708074368481
2412,0.0034568125112326166,0.08095708074368481
2413,0.0034568125112326166,0.08101042972605298
2414,0.0034584316271629367,0.08101042972605298
2415,0.0034584316271629367,0.0811171276907893
2416,0.003461669859023576,0.0811171276907893
2417,0.003461669859023576,0.08114380218197338
2418,0.0034632889749538955,0.08114380218197338
2419,0.0034632889749538955,0.08117047667315747
2420,0.0034649080908842156,0.08117047667315747
2421,0.0034649080908842156,0.08119715116434154
2422,0.003466527206814535,0.08119715116434154
2423,0.003466527206814535,0.0812505001467097
2424,0.003473003670535814,0.0812505001467097
2425,0.003473003670535814,0.08127717463789379
2426,0.0034746227864661337,0.08127717463789379
2427,0.0034746227864661337,0.08133052362026194
2428,0.0034762419023964533,0.08133052362026194
2429,0.0034762419023964533,0.08146389607618235
2430,0.0034810992501874125,0.08146389607618235
2431,0.0034810992501874125,0.08151724505855051
2432,0.0034827183661177326,0.08151724505855051
2433,0.0034827183661177326,0.08159726853210275
2434,0.0034891948298390115,0.08159726853210275
2435,0.0034891948298390115,0.08162394302328684
2436,0.003490813945769331,0.08162394302328684
2437,0.003490813945769331,0.08189068793512763
2438,0.0034924330616996507,0.08189068793512763
2439,0.0034924330616996507,0.08191736242631172
2440,0.0034940521776299703,0.08191736242631172
2441,0.0034940521776299703,0.0820774093734162
2442,0.00349729040949061,0.0820774093734162
2443,0.00349729040949061,0.08210408386460029
2444,0.0035005286413512496,0.08210408386460029
2445,0.0035005286413512496,0.08218410733815253
2446,0.003502147757281569,0.08218410733815253
2447,0.003502147757281569,0.08221078182933661
2448,0.0035053859891422084,0.08221078182933661
2449,0.0035053859891422084,0.08226413081170476
2450,0.0035070051050725285,0.08226413081170476
2451,0.0035070051050725285,0.08231747979407293
2452,0.003508624221002848,0.08231747979407293
2453,0.003508624221002848,0.08242417775880925
2454,0.0035102433369331677,0.08245085224999334
2455,0.0035102433369331677,0.08253087572354557
2456,0.0035134815687938073,0.08253087572354557
2457,0.0035134815687938073,0.08255755021472966
2458,0.0035167198006544466,0.08255755021472966
2459,0.0035167198006544466,0.08258422470591373
2460,0.0035199580325150862,0.08258422470591373
2461,0.0035199580325150862,0.08271759716183413
2462,0.003521577148445406,0.08271759716183413
2463,0.003521577148445406,0.08274427165301822
2464,0.0035231962643757254,0.08274427165301822
2465,0.0035231962643757254,0.08279762063538638
2466,0.0035248153803060455,0.08279762063538638
2467,0.0035248153803060455,0.08293099309130679
2468,0.003526434496236365,0.08293099309130679
2469,0.003526434496236365,0.08298434207367494
2470,0.0035296727280970043,0.08298434207367494
2471,0.0035296727280970043,0.08311771452959535
2472,0.0035312918440273244,0.08311771452959535
2473,0.0035312918440273244,0.08314438902077943
2474,0.003532910959957644,0.08314438902077943
2475,0.003532910959957644,0.0831710635119635
2476,0.003536149191818283,0.0831710635119635
2477,0.003536149191818283,0.08319773800314759
2478,0.0035377683077486032,0.08319773800314759
2479,0.0035377683077486032,0.08322441249433167
2480,0.003539387423678923,0.08322441249433167
2481,0.003539387423678923,0.08327776147669984
2482,0.0035426256555395625,0.08327776147669984
2483,0.0035426256555395625,0.08330443596788391
2484,0.003544244771469882,0.08330443596788391
2485,0.003544244771469882,0.08335778495025208
2486,0.0035458638874002017,0.08335778495025208
2487,0.0035458638874002017,0.08338445944143616
2488,0.0035474830033305213,0.08338445944143616
2489,0.0035474830033305213,0.08370455333564512
2490,0.0035491021192608414,0.08370455333564512
2491,0.0035491021192608414,0.08375790231801328
2492,0.0035523403511214806,0.08375790231801328
2493,0.0035523403511214806,0.08378457680919736
2494,0.0035539594670518,0.08378457680919736
2495,0.0035539594670518,0.08391794926511777
2496,0.0035555785829821203,0.08391794926511777
2497,0.0035555785829821203,0.08394462375630185
2498,0.00355719769891244,0.08394462375630185
2499,0.00355719769891244,0.08399797273867
2500,0.0035588168148427595,0.08399797273867
2501,0.0035588168148427595,0.08405132172103817
2502,0.003562055046703399,0.08405132172103817
2503,0.003562055046703399,0.08413134519459041
2504,0.0035636741626337187,0.08413134519459041
2505,0.0035636741626337187,0.08418469417695858
2506,0.0035652932785640384,0.08418469417695858
2507,0.0035652932785640384,0.08421136866814266
2508,0.0035669123944943584,0.08421136866814266
2509,0.0035669123944943584,0.08423804315932673
2510,0.003568531510424678,0.08423804315932673
2511,0.003568531510424678,0.08431806663287898
2512,0.0035733888582156373,0.08431806663287898
2513,0.0035733888582156373,0.0844247645976153
2514,0.003575007974145957,0.0844247645976153
2515,0.003575007974145957,0.08445143908879939
2516,0.003578246206006596,0.08445143908879939
2517,0.003578246206006596,0.08447811357998346
2518,0.003579865321936916,0.08447811357998346
2519,0.003579865321936916,0.08450478807116754
2520,0.0035814844378672358,0.08450478807116754
2521,0.0035814844378672358,0.08463816052708795
2522,0.0035831035537975554,0.08463816052708795
2523,0.0035831035537975554,0.08466483501827203
2524,0.003584722669727875,0.08466483501827203
2525,0.003584722669727875,0.0848248819653765
2526,0.003586341785658195,0.0848248819653765
2527,0.003586341785658195,0.08490490543892876
2528,0.003592818249379474,0.08490490543892876
2529,0.003592818249379474,0.08501160340366508
2530,0.003596056481240113,0.08501160340366508
2531,0.003596056481240113,0.0851183013684014
2532,0.003597675597170433,0.0851183013684014
2533,0.003597675597170433,0.0852516738243218
2534,0.0036009138290310724,0.0852516738243218
2535,0.0036009138290310724,0.08527834831550588
2536,0.003602532944961392,0.08527834831550588
2537,0.003602532944961392,0.08535837178905813
2538,0.003604152060891712,0.08535837178905813
2539,0.003604152060891712,0.08541172077142628
2540,0.0036073902927523513,0.08541172077142628
2541,0.0036073902927523513,0.08562511670089894
2542,0.003610628524612991,0.08562511670089894
2543,0.003610628524612991,0.08570514017445117
2544,0.0036122476405433105,0.08570514017445117
2545,0.0036122476405433105,0.08573181466563526
2546,0.00361386675647363,0.08573181466563526
2547,0.00361386675647363,0.0860785830510283
2548,0.00361548587240395,0.0860785830510283
2549,0.00361548587240395,0.08615860652458054
2550,0.00361710498833427,0.08615860652458054
2551,0.00361710498833427,0.08618528101576463
2552,0.0036187241042645894,0.08618528101576463
2553,0.0036187241042645894,0.0863453279628691
2554,0.003620343220194909,0.0863453279628691
2555,0.003620343220194909,0.08639867694523727
2556,0.003621962336125229,0.08639867694523727
2557,0.003621962336125229,0.08645202592760542
2558,0.0036235814520555487,0.08645202592760542
2559,0.0036235814520555487,0.08647870041878951
2560,0.003626819683916188,0.08647870041878951
2561,0.003626819683916188,0.08655872389234176
2562,0.003628438799846508,0.08655872389234176
2563,0.003628438799846508,0.08661207287470991
2564,0.0036300579157768275,0.08661207287470991
2565,0.0036300579157768275,0.08679879431299847
2566,0.003631677031707147,0.08679879431299847
2567,0.003631677031707147,0.08690549227773481
2568,0.003633296147637467,0.08690549227773481
2569,0.003633296147637467,0.08695884126010296
