fpr,tpr
0.0,0.0
0.0,0.0005490483162518302
0.0,0.0006405563689604685
0.0,0.0008235724743777453
0.0,0.0009150805270863836
0.0,0.0010980966325036604
0.0,0.0011896046852122987
5.037732617303604e-06,0.0015556368960468522
5.037732617303604e-06,0.001738653001464129
5.037732617303604e-06,0.0021046852122986823
5.037732617303604e-06,0.0021961932650073207
1.0075465234607208e-05,0.0021961932650073207
1.0075465234607208e-05,0.0031112737920937043
1.0075465234607208e-05,0.003294289897510981
1.0075465234607208e-05,0.003751830161054173
1.5113197851910811e-05,0.003751830161054173
1.5113197851910811e-05,0.004209370424597365
2.0150930469214415e-05,0.004209370424597365
2.0150930469214415e-05,0.005948023426061494
2.0150930469214415e-05,0.00613103953147877
2.0150930469214415e-05,0.006863103953147877
2.0150930469214415e-05,0.007046120058565154
2.0150930469214415e-05,0.008876281112737921
2.518866308651802e-05,0.008876281112737921
2.518866308651802e-05,0.00896778916544656
2.518866308651802e-05,0.009150805270863836
3.0226395703821623e-05,0.009150805270863836
3.0226395703821623e-05,0.010706442166910688
3.526412832112523e-05,0.010706442166910688
3.526412832112523e-05,0.013177159590043924
3.526412832112523e-05,0.013360175695461201
3.526412832112523e-05,0.015007320644216691
3.526412832112523e-05,0.015190336749633968
3.526412832112523e-05,0.019765739385065886
4.030186093842883e-05,0.019765739385065886
4.030186093842883e-05,0.019857247437774523
4.030186093842883e-05,0.0200402635431918
4.533959355573244e-05,0.0200402635431918
4.533959355573244e-05,0.020863836017569547
4.533959355573244e-05,0.021046852122986823
4.533959355573244e-05,0.021870424597364567
5.037732617303604e-05,0.021870424597364567
5.037732617303604e-05,0.032210834553440704
5.5415058790339646e-05,0.032210834553440704
5.5415058790339646e-05,0.03413250366032211
6.0452791407643246e-05,0.03413250366032211
6.0452791407643246e-05,0.035322108345534405
6.549052402494685e-05,0.035322108345534405
6.549052402494685e-05,0.040812591508052706
6.549052402494685e-05,0.040995607613469986
6.549052402494685e-05,0.04785871156661786
7.052825664225046e-05,0.04785871156661786
7.052825664225046e-05,0.05499633967789166
7.052825664225046e-05,0.05517935578330893
7.052825664225046e-05,0.06048682284040996
7.556598925955406e-05,0.06048682284040996
7.556598925955406e-05,0.06780746705710103
8.060372187685766e-05,0.06780746705710103
8.060372187685766e-05,0.07759882869692533
8.060372187685766e-05,0.07778184480234261
8.060372187685766e-05,0.08583455344070279
8.060372187685766e-05,0.08601756954612005
8.060372187685766e-05,0.09004392386530015
8.564145449416126e-05,0.09004392386530015
8.564145449416126e-05,0.09068448023426061
8.564145449416126e-05,0.09086749633967789
8.564145449416126e-05,0.09324670571010249
8.564145449416126e-05,0.09342972181551977
8.564145449416126e-05,0.09736456808199122
9.067918711146488e-05,0.09736456808199122
9.067918711146488e-05,0.1221632503660322
9.571691972876848e-05,0.1221632503660322
9.571691972876848e-05,0.125
0.00010075465234607208,0.125
0.00010075465234607208,0.13177159590043924
0.00010579238496337569,0.13177159590043924
0.00010579238496337569,0.13415080527086384
0.00010579238496337569,0.1343338213762811
0.00010579238496337569,0.13488286969253294
0.00011083011758067929,0.13488286969253294
0.00011083011758067929,0.13872620790629575
0.00011586785019798289,0.13872620790629575
0.00011586785019798289,0.149798682284041
0.00012090558281528649,0.149798682284041
0.00012090558281528649,0.1509882869692533
0.0001259433154325901,0.1509882869692533
0.0001259433154325901,0.15117130307467058
0.0001259433154325901,0.15135431918008785
0.0001259433154325901,0.15602122986822842
0.0001309810480498937,0.15602122986822842
0.0001309810480498937,0.15858345534407028
0.00013601878066719732,0.15858345534407028
0.00013601878066719732,0.15904099560761348
0.00014105651328450092,0.15904099560761348
0.00014105651328450092,0.16233528550512444
0.00014609424590180452,0.16233528550512444
0.00014609424590180452,0.17093704245973645
0.00015113197851910812,0.17093704245973645
0.00015113197851910812,0.17112005856515372
0.00015113197851910812,0.17130307467057102
0.00015113197851910812,0.17404831625183015
0.00015113197851910812,0.17423133235724744
0.00015113197851910812,0.17862371888726208
0.00015616971113641172,0.17862371888726208
0.00015616971113641172,0.19454612005856514
0.00016120744375371532,0.19454612005856514
0.00016120744375371532,0.1977489019033675
0.00016624517637101892,0.1977489019033675
0.00016624517637101892,0.2032393850658858
0.00017128290898832252,0.2032393850658858
0.00017128290898832252,0.2266654465592972
0.00017632064160562615,0.2266654465592972
0.00017632064160562615,0.22776354319180087
0.00018135837422292975,0.22776354319180087
0.00018135837422292975,0.229502196193265
0.00018639610684023335,0.229502196193265
0.00018639610684023335,0.24222181551976574
0.00019143383945753695,0.24222181551976574
0.00019143383945753695,0.25082357247437775
0.00019143383945753695,0.251006588579795
0.00019143383945753695,0.25466691068814057
0.00019647157207484055,0.25466691068814057
0.00019647157207484055,0.25988286969253294
0.00020150930469214415,0.25988286969253294
0.00020150930469214415,0.2645497803806735
0.00020654703730944775,0.2645497803806735
0.00020654703730944775,0.26756954612005857
0.00021158476992675138,0.26756954612005857
0.00021158476992675138,0.27150439238653
0.00021662250254405498,0.27150439238653
0.00021662250254405498,0.2721449487554905
0.00022166023516135858,0.2721449487554905
0.00022166023516135858,0.28513909224011713
0.00022669796777866218,0.28513909224011713
0.00022669796777866218,0.2865117130307467
0.00023173570039596578,0.2865117130307467
0.00023173570039596578,0.2931918008784773
0.00023677343301326938,0.2931918008784773
0.00023677343301326938,0.3148792093704246
0.00024181116563057298,0.3148792093704246
0.00024181116563057298,0.316800878477306
0.0002468488982478766,0.316800878477306
0.0002468488982478766,0.3203696925329429
0.0002518866308651802,0.3203696925329429
0.0002518866308651802,0.32311493411420206
0.0002569243634824838,0.32311493411420206
0.0002569243634824838,0.32878843338213765
0.0002569243634824838,0.3289714494875549
0.0002569243634824838,0.32933748169838944
0.0002619620960997874,0.32933748169838944
0.0002619620960997874,0.33217423133235724
0.000266999828717091,0.33217423133235724
0.000266999828717091,0.3337298682284041
0.00027203756133439464,0.3337298682284041
0.00027203756133439464,0.33400439238653
0.0002770752939516982,0.33400439238653
0.0002770752939516982,0.3384882869692533
0.0002770752939516982,0.3386713030746706
0.0002770752939516982,0.34672401171303074
0.00028211302656900184,0.34672401171303074
0.00028211302656900184,0.3475475841874085
0.00028211302656900184,0.34773060029282576
0.00028211302656900184,0.34837115666178625
0.0002871507591863054,0.34837115666178625
0.0002871507591863054,0.35248901903367497
0.00029218849180360904,0.35248901903367497
0.00029218849180360904,0.3538616398243045
0.0002972262244209126,0.3538616398243045
0.0002972262244209126,0.3556918008784773
0.00030226395703821624,0.3556918008784773
0.00030226395703821624,0.35715592972181553
0.0003073016896555198,0.35715592972181553
0.0003073016896555198,0.362097364568082
0.00031233942227282344,0.362097364568082
0.00031233942227282344,0.36292093704245976
0.00031737715489012707,0.36292093704245976
0.00031737715489012707,0.3642020497803807
0.00032241488750743065,0.3642020497803807
0.00032241488750743065,0.37042459736456806
0.00032745262012473427,0.37042459736456806
0.00032745262012473427,0.37079062957540265
0.00033249035274203785,0.37079062957540265
0.00033249035274203785,0.37133967789165445
0.0003375280853593415,0.37133967789165445
0.0003375280853593415,0.3714311859443631
0.00034256581797664505,0.3714311859443631
0.00034256581797664505,0.37198023426061494
0.0003476035505939487,0.37198023426061494
0.0003476035505939487,0.3765556368960469
0.0003526412832112523,0.3765556368960469
0.0003526412832112523,0.3794838945827233
0.0003576790158285559,0.3794838945827233
0.0003576790158285559,0.38232064421669104
0.0003627167484458595,0.38232064421669104
0.0003627167484458595,0.38396778916544655
0.0003677544810631631,0.38396778916544655
0.0003677544810631631,0.3869875549048316
0.0003778299462977703,0.3869875549048316
0.0003778299462977703,0.38872620790629575
0.0003828676789150739,0.38872620790629575
0.0003828676789150739,0.39229502196193267
0.00038790541153237753,0.39229502196193267
0.00038790541153237753,0.39348462664714495
0.0003929431441496811,0.39348462664714495
0.0003929431441496811,0.4006222547584187
0.00039798087676698473,0.4006222547584187
0.00039798087676698473,0.4008967789165447
0.0004030186093842883,0.4008967789165447
0.0004030186093842883,0.4024524158125915
0.00040805634200159193,0.4024524158125915
0.00040805634200159193,0.410688140556369
0.0004130940746188955,0.410688140556369
0.0004130940746188955,0.4136163982430454
0.00041813180723619913,0.4136163982430454
0.00041813180723619913,0.4141654465592972
0.00042316953985350276,0.4141654465592972
0.00042316953985350276,0.41590409956076135
0.00042820727247080634,0.41590409956076135
0.00042820727247080634,0.4177342606149341
0.00044332047032271716,0.4177342606149341
0.00044332047032271716,0.4185578330893119
0.00044835820294002074,0.4185578330893119
0.00044835820294002074,0.4210285505124451
0.00045339593555732436,0.4210285505124451
0.00045339593555732436,0.42441434846266474
0.00045843366817462794,0.42441434846266474
0.00045843366817462794,0.4251464128843338
0.00046347140079193157,0.4251464128843338
0.00046347140079193157,0.42624450951683746
0.0004685091334092352,0.42624450951683746
0.0004685091334092352,0.42780014641288433
0.00047354686602653877,0.42780014641288433
0.00047354686602653877,0.42944729136163984
0.0004785845986438424,0.42944729136163984
0.0004785845986438424,0.43045387994143486
0.00048362233126114597,0.43045387994143486
0.00048362233126114597,0.4318265007320644
0.0004886600638784495,0.4318265007320644
0.0004886600638784495,0.4341142020497804
0.0004936977964957532,0.4341142020497804
0.0004936977964957532,0.4355783308931186
0.0004987355291130568,0.4355783308931186
0.0004987355291130568,0.43667642752562225
0.0005037732617303604,0.43667642752562225
0.0005037732617303604,0.43804904831625185
0.000508810994347664,0.43804904831625185
0.000508810994347664,0.4381405563689605
0.0005138487269649676,0.4381405563689605
0.0005138487269649676,0.4386896046852123
0.0005188864595822712,0.4386896046852123
0.0005188864595822712,0.4389641288433382
0.0005239241921995748,0.4389641288433382
0.0005239241921995748,0.4410688140556369
0.0005289619248168785,0.4410688140556369
0.0005289619248168785,0.4412518301610542
0.000533999657434182,0.4412518301610542
0.000533999657434182,0.44143484626647145
0.0005390373900514856,0.44143484626647145
0.0005390373900514856,0.44427159590043924
0.0005440751226687893,0.44427159590043924
0.0005440751226687893,0.4465592972181552
0.0005491128552860929,0.4465592972181552
0.0005491128552860929,0.4470168374816984
0.0005541505879033964,0.4470168374816984
0.0005541505879033964,0.44719985358711567
0.0005591883205207,0.44719985358711567
0.0005591883205207,0.44747437774524157
0.0005642260531380037,0.44747437774524157
0.0005642260531380037,0.45031112737920936
0.0005692637857553073,0.45031112737920936
0.0005692637857553073,0.45195827232796487
0.0005743015183726108,0.45195827232796487
0.0005743015183726108,0.45497803806734993
0.0005793392509899145,0.45497803806734993
0.0005793392509899145,0.45534407027818447
0.0005843769836072181,0.45534407027818447
0.0005843769836072181,0.45763177159590046
0.0005894147162245217,0.45763177159590046
0.0005894147162245217,0.457997803806735
0.0005944524488418252,0.4580893118594436
0.0005944524488418252,0.4601939970717423
0.0005994901814591289,0.4601939970717423
0.0005994901814591289,0.4614751098096633
0.0006045279140764325,0.4614751098096633
0.0006045279140764325,0.4637628111273792
0.0006095656466937361,0.4637628111273792
0.0006095656466937361,0.4670571010248902
0.0006146033793110396,0.4670571010248902
0.0006146033793110396,0.4675146412884334
0.0006196411119283433,0.4675146412884334
0.0006196411119283433,0.46861273792093705
0.0006297165771629505,0.46861273792093705
0.0006297165771629505,0.46961932650073207
0.0006397920423975577,0.46961932650073207
0.0006397920423975577,0.4706259150805271
0.0006448297750148613,0.4706259150805271
0.0006448297750148613,0.47172401171303074
0.0006498675076321649,0.47172401171303074
0.0006498675076321649,0.4738286969253294
0.0006549052402494685,0.4738286969253294
0.0006549052402494685,0.4740117130307467
0.0006549052402494685,0.474194729136164
0.0006549052402494685,0.4759333821376281
0.0006599429728667721,0.4759333821376281
0.0006599429728667721,0.4814238653001464
0.0006649807054840757,0.4814238653001464
0.0006649807054840757,0.48252196193265007
0.0006700184381013794,0.48252196193265007
0.0006700184381013794,0.4830710102489019
0.000675056170718683,0.4830710102489019
0.000675056170718683,0.48316251830161056
0.0006800939033359865,0.48316251830161056
0.0006800939033359865,0.4832540263543192
0.0006851316359532901,0.4832540263543192
0.0006851316359532901,0.48499267935578333
0.0006901693685705938,0.48499267935578333
0.0006901693685705938,0.4854502196193265
0.0006952071011878973,0.4854502196193265
0.0006952071011878973,0.48700585651537337
0.0007002448338052009,0.48700585651537337
0.0007002448338052009,0.4889275256222548
0.0007153580316571118,0.4889275256222548
0.0007153580316571118,0.48938506588579794
0.0007203957642744153,0.48938506588579794
0.0007203957642744153,0.49002562225475843
0.000725433496891719,0.49002562225475843
0.000725433496891719,0.491398243045388
0.0007304712295090226,0.491398243045388
0.0007304712295090226,0.4918557833089312
0.0007355089621263262,0.4918557833089312
0.0007355089621263262,0.49194729136163984
0.0007405466947436298,0.49194729136163984
0.0007405466947436298,0.4921303074670571
0.0007455844273609334,0.4921303074670571
0.0007455844273609334,0.49267935578330896
0.000750622159978237,0.49267935578330896
0.000750622159978237,0.4943265007320644
0.0007556598925955406,0.4943265007320644
0.0007556598925955406,0.495699121522694
0.0007606976252128442,0.495699121522694
0.0007606976252128442,0.4978038067349927
0.0007657353578301478,0.4978038067349927
0.0007657353578301478,0.4978953147877013
0.0007707730904474514,0.4978953147877013
0.0007707730904474514,0.4988103953147877
0.0007758108230647551,0.4988103953147877
0.0007758108230647551,0.4993594436310395
0.0007808485556820586,0.4993594436310395
0.0007808485556820586,0.49945095168374815
0.0007858862882993622,0.49945095168374815
0.0007858862882993622,0.5001830161054173
0.0007909240209166658,0.5001830161054173
0.0007909240209166658,0.5004575402635432
0.000800999486151273,0.5004575402635432
0.000800999486151273,0.5028367496339677
0.0008060372187685766,0.5028367496339677
0.0008060372187685766,0.5036603221083455
0.0008110749513858803,0.5036603221083455
0.0008110749513858803,0.5052159590043924
0.0008161126840031839,0.5052159590043924
0.0008161126840031839,0.5058565153733529
0.000826188149237791,0.5058565153733529
0.000826188149237791,0.5059480234260615
0.0008312258818550947,0.5059480234260615
0.0008312258818550947,0.5060395314787701
0.0008362636144723983,0.5060395314787701
0.0008362636144723983,0.509608345534407
0.0008413013470897018,0.509608345534407
0.0008413013470897018,0.5102489019033675
0.0008463390797070055,0.5102489019033675
0.0008463390797070055,0.5111639824304539
0.0008513768123243091,0.5111639824304539
0.0008513768123243091,0.5113469985358712
0.0008564145449416127,0.5113469985358712
0.0008564145449416127,0.5114385065885798
0.0008614522775589162,0.5114385065885798
0.0008614522775589162,0.5121705710102489
0.0008715277427935235,0.5121705710102489
0.0008715277427935235,0.5138177159590044
0.0008816032080281306,0.5138177159590044
0.0008816032080281306,0.5145497803806734
0.0008866409406454343,0.5145497803806734
0.0008866409406454343,0.5170204978038068
0.0008916786732627379,0.5170204978038068
0.0008916786732627379,0.5175695461200586
0.0008967164058800415,0.5175695461200586
0.0008967164058800415,0.5183931185944363
0.0009017541384973452,0.5183931185944363
0.0009017541384973452,0.5191251830161054
0.0009067918711146487,0.5191251830161054
0.0009067918711146487,0.5195827232796486
0.0009118296037319523,0.5195827232796486
0.0009118296037319523,0.5209553440702782
0.0009168673363492559,0.5209553440702782
0.0009168673363492559,0.5216874084919473
0.0009219050689665596,0.5216874084919473
0.0009219050689665596,0.5217789165446559
0.0009269428015838631,0.5217789165446559
0.0009269428015838631,0.5219619326500732
0.0009370182668184704,0.5219619326500732
0.0009370182668184704,0.5220534407027818
0.000942055999435774,0.5220534407027818
0.000942055999435774,0.5226939970717424
0.0009470937320530775,0.5226939970717424
0.0009470937320530775,0.52351756954612
0.0009521314646703811,0.52351756954612
0.0009521314646703811,0.5245241581259151
0.0009622069299049884,0.5245241581259151
0.0009622069299049884,0.5248901903367497
0.0009672446625222919,0.5248901903367497
0.0009672446625222919,0.5280929721815519
0.0009722823951395956,0.5280929721815519
0.0009722823951395956,0.529099560761347
0.000977320127756899,0.529099560761347
0.000977320127756899,0.5293740849194729
0.0009823578603742028,0.5293740849194729
0.0009823578603742028,0.5294655929721815
0.0009873955929915064,0.5294655929721815
0.0009873955929915064,0.5298316251830161
0.00099243332560881,0.5298316251830161
0.00099243332560881,0.530106149341142
0.0009974710582261136,0.530106149341142
0.0009974710582261136,0.5301976573938506
0.0010025087908434173,0.5301976573938506
0.0010025087908434173,0.5307467057101025
0.0010075465234607207,0.5307467057101025
0.0010075465234607207,0.5308382137628112
0.0010125842560780244,0.5308382137628112
0.0010125842560780244,0.5322108345534406
0.001017621988695328,0.5322108345534406
0.001017621988695328,0.532393850658858
0.0010226597213126316,0.532393850658858
0.0010226597213126316,0.5325768667642753
0.0010276974539299352,0.5325768667642753
0.0010276974539299352,0.533400439238653
0.0010327351865472387,0.533400439238653
0.0010327351865472387,0.5336749633967789
0.0010377729191645424,0.5336749633967789
0.0010377729191645424,0.5351390922401171
0.001042810651781846,0.5351390922401171
0.001042810651781846,0.5352306002928258
0.0010478483843991495,0.5352306002928258
0.0010478483843991495,0.5353221083455344
0.0010528861170164532,0.5353221083455344
0.0010528861170164532,0.5359626647144948
0.001057923849633757,0.5359626647144948
0.001057923849633757,0.5366032210834554
0.0010629615822510604,0.5366032210834554
0.0010629615822510604,0.5370607613469985
0.001067999314868364,0.5370607613469985
0.001067999314868364,0.5387994143484627
0.0010780747801029712,0.5387994143484627
0.0010780747801029712,0.5404465592972182
0.0010831125127202749,0.5404465592972182
0.0010831125127202749,0.5409040995607614
0.0010881502453375786,0.5409040995607614
0.0010881502453375786,0.5416361639824304
0.001093187977954882,0.5416361639824304
0.001093187977954882,0.5437408491947291
0.0010982257105721857,0.5437408491947291
0.0010982257105721857,0.5449304538799414
0.0011032634431894892,0.5449304538799414
0.0011032634431894892,0.5453879941434846
0.0011083011758067929,0.5453879941434846
0.0011083011758067929,0.5457540263543191
0.0011133389084240965,0.5457540263543191
0.0011133389084240965,0.5469436310395315
0.0011183766410414,0.5469436310395315
0.0011183766410414,0.5471266471449487
0.0011234143736587037,0.5471266471449487
0.0011234143736587037,0.5475841874084919
0.0011284521062760074,0.5475841874084919
0.0011284521062760074,0.5492313323572474
0.0011334898388933108,0.5492313323572474
0.0011334898388933108,0.5497803806734992
0.0011385275715106145,0.5497803806734992
0.0011385275715106145,0.5505124450951684
0.0011435653041279182,0.5505124450951684
0.0011435653041279182,0.5509699853587116
0.0011486030367452217,0.5509699853587116
0.0011486030367452217,0.5519765739385066
0.0011536407693625253,0.5519765739385066
0.0011536407693625253,0.5532576866764275
0.001158678501979829,0.5532576866764275
0.001158678501979829,0.5538067349926794
0.0011637162345971325,0.5538067349926794
0.0011637162345971325,0.5545387994143485
0.0011687539672144362,0.5545387994143485
0.0011687539672144362,0.5547218155197657
0.0011737916998317396,0.5547218155197657
0.0011737916998317396,0.5549963396778916
0.0011788294324490433,0.5549963396778916
0.0011788294324490433,0.5556368960468521
0.001183867165066347,0.5556368960468521
0.001183867165066347,0.5558199121522694
0.0011889048976836505,0.5558199121522694
0.0011889048976836505,0.5560944363103953
0.0011939426303009541,0.5560944363103953
0.0011939426303009541,0.5566434846266471
0.0011989803629182578,0.5566434846266471
0.0011989803629182578,0.5575585651537335
0.0012040180955355613,0.5575585651537335
0.0012040180955355613,0.5579245973645681
0.001209055828152865,0.5579245973645681
0.001209055828152865,0.558199121522694
0.0012140935607701687,0.558199121522694
0.0012140935607701687,0.5583821376281113
0.0012191312933874721,0.5583821376281113
0.0012191312933874721,0.5587481698389458
0.0012292067586220793,0.5587481698389458
0.0012292067586220793,0.5588396778916545
0.001234244491239383,0.5588396778916545
0.001234244491239383,0.5589311859443631
0.0012392822238566866,0.5589311859443631
0.0012392822238566866,0.5597547584187409
0.00124431995647399,0.5597547584187409
0.00124431995647399,0.5599377745241582
0.0012493576890912938,0.5599377745241582
0.0012493576890912938,0.5603038067349927
0.0012543954217085975,0.5603038067349927
0.0012543954217085975,0.5607613469985359
0.001259433154325901,0.5607613469985359
0.001259433154325901,0.5608528550512445
0.0012644708869432046,0.5608528550512445
0.0012644708869432046,0.5616764275256223
0.0012695086195605083,0.5616764275256223
0.0012695086195605083,0.5627745241581259
0.0012795840847951154,0.5627745241581259
0.0012795840847951154,0.5634150805270863
0.0012846218174124191,0.5634150805270863
0.0012846218174124191,0.5638726207906296
0.0012946972826470263,0.5638726207906296
0.0012946972826470263,0.5652452415812591
0.0012997350152643297,0.5652452415812591
0.0012997350152643297,0.5653367496339677
0.0013047727478816334,0.5653367496339677
0.0013047727478816334,0.5662518301610542
0.001309810480498937,0.5662518301610542
0.001309810480498937,0.5663433382137628
0.0013148482131162406,0.5663433382137628
0.0013148482131162406,0.5678074670571011
0.0013198859457335442,0.5678074670571011
0.0013198859457335442,0.5678989751098097
0.001324923678350848,0.5678989751098097
0.001324923678350848,0.5684480234260615
0.0013299614109681514,0.5684480234260615
0.0013299614109681514,0.5693631039531479
0.001334999143585455,0.5693631039531479
0.001334999143585455,0.5707357247437774
0.0013450746088200622,0.5707357247437774
0.0013450746088200622,0.5726573938506588
0.001350112341437366,0.5726573938506588
0.001350112341437366,0.5732064421669106
0.0013551500740546696,0.5732064421669106
0.0013551500740546696,0.5739385065885798
0.001360187806671973,0.5739385065885798
0.001360187806671973,0.5742130307467057
0.0013652255392892767,0.5742130307467057
0.0013652255392892767,0.5743045387994143
0.0013753010045238839,0.5743045387994143
0.0013753010045238839,0.5744875549048316
0.0013803387371411876,0.5744875549048316
0.0013803387371411876,0.5749450951683748
0.001385376469758491,0.5749450951683748
0.001385376469758491,0.5752196193265008
0.0013904142023757947,0.5752196193265008
0.0013904142023757947,0.5757686676427526
0.0013954519349930984,0.5757686676427526
0.0013954519349930984,0.5758601756954612
0.0014004896676104018,0.5758601756954612
0.0014004896676104018,0.5761346998535871
0.0014105651328450092,0.5761346998535871
0.0014105651328450092,0.5771412884333821
0.0014156028654623127,0.5771412884333821
0.0014156028654623127,0.5772327964860908
0.0014206405980796164,0.5772327964860908
0.0014206405980796164,0.5775988286969254
0.0014307160633142235,0.5775988286969254
0.0014307160633142235,0.5779648609077599
0.0014357537959315272,0.5779648609077599
0.0014357537959315272,0.5781478770131772
0.0014407915285488306,0.5781478770131772
0.0014407915285488306,0.5782393850658858
0.0014458292611661343,0.5782393850658858
0.0014458292611661343,0.5791544655929722
0.001450866993783438,0.5791544655929722
0.001450866993783438,0.5792459736456809
0.0014559047264007415,0.5792459736456809
0.0014559047264007415,0.5803440702781845
0.0014609424590180452,0.5803440702781845
0.0014609424590180452,0.5808016105417276
0.0014659801916353488,0.5808016105417276
0.0014659801916353488,0.58199121522694
0.0014710179242526523,0.58199121522694
0.0014710179242526523,0.5824487554904831
0.001476055656869956,0.5824487554904831
0.001476055656869956,0.5829978038067349
0.0014810933894872597,0.5829978038067349
0.0014810933894872597,0.5831808199121523
0.0014861311221045631,0.5831808199121523
0.0014861311221045631,0.5849194729136163
0.0014911688547218668,0.5849194729136163
0.0014911688547218668,0.5851024890190337
0.001501244319956474,0.5851024890190337
0.001501244319956474,0.5857430453879942
0.0015062820525737776,0.5857430453879942
0.0015062820525737776,0.5858345534407028
0.001511319785191081,0.5858345534407028
0.001511319785191081,0.58601756954612
0.0015163575178083848,0.58601756954612
0.0015163575178083848,0.5861090775988287
0.0015213952504256885,0.5861090775988287
0.0015213952504256885,0.5863836017569546
0.0015314707156602956,0.5863836017569546
0.0015314707156602956,0.5866581259150805
0.0015365084482775993,0.5866581259150805
0.0015365084482775993,0.5872071742313324
0.0015465839135122064,0.5872071742313324
0.0015465839135122064,0.587298682284041
0.0015516216461295101,0.587298682284041
0.0015516216461295101,0.5878477306002928
0.0015566593787468136,0.5878477306002928
0.0015566593787468136,0.5885797950219619
0.0015616971113641173,0.5885797950219619
0.0015616971113641173,0.5890373352855052
0.0015717725765987244,0.5890373352855052
0.0015717725765987244,0.5894033674963397
0.001576810309216028,0.5894033674963397
0.001576810309216028,0.590318448023426
0.0015818480418333316,0.590318448023426
0.0015818480418333316,0.5907759882869692
0.0015868857744506353,0.5907759882869692
0.0015868857744506353,0.5913250366032211
0.001591923507067939,0.5913250366032211
0.001591923507067939,0.592606149341142
0.0016070367049198498,0.592606149341142
0.0016070367049198498,0.5933382137628112
0.001617112170154457,0.5933382137628112
0.001617112170154457,0.593887262079063
0.0016221499027717606,0.593887262079063
0.0016221499027717606,0.5940702781844802
0.001627187635389064,0.5940702781844802
0.001627187635389064,0.5942532942898975
0.0016322253680063677,0.5942532942898975
0.0016322253680063677,0.5949853587115667
0.0016372631006236712,0.5949853587115667
0.0016372631006236712,0.5951683748169839
0.0016423008332409749,0.5951683748169839
0.0016423008332409749,0.5952598828696926
0.0016473385658582786,0.5952598828696926
0.0016473385658582786,0.5957174231332357
0.001652376298475582,0.5957174231332357
0.001652376298475582,0.5961749633967789
0.0016574140310928857,0.5961749633967789
0.0016574140310928857,0.5970900439238653
0.0016674894963274929,0.5970900439238653
0.0016674894963274929,0.5973645680819912
0.0016775649615621002,0.5973645680819912
0.0016775649615621002,0.5975475841874085
0.0016876404267967074,0.5975475841874085
0.0016876404267967074,0.5976390922401171
0.001692678159414011,0.5976390922401171
0.001692678159414011,0.5977306002928258
0.0016977158920313145,0.5977306002928258
0.0016977158920313145,0.5978221083455344
0.0017027536246486182,0.5978221083455344
0.0017027536246486182,0.5980051244509517
0.0017077913572659217,0.5980051244509517
0.0017077913572659217,0.5981881405563689
0.0017128290898832253,0.5981881405563689
0.0017128290898832253,0.599194729136164
0.001717866822500529,0.599194729136164
0.001717866822500529,0.5994692532942899
0.0017229045551178325,0.5994692532942899
0.0017229045551178325,0.600201317715959
0.0017279422877351362,0.600201317715959
0.0017279422877351362,0.6002928257686676
0.0017329800203524399,0.6002928257686676
0.0017329800203524399,0.6005673499267935
0.0017380177529697433,0.6005673499267935
0.0017380177529697433,0.6008418740849195
0.001743055485587047,0.6008418740849195
0.001743055485587047,0.6012994143484627
0.0017531309508216541,0.6012994143484627
0.0017531309508216541,0.6015739385065886
0.0017581686834389578,0.6015739385065886
0.0017581686834389578,0.602214494875549
0.0017632064160562613,0.602214494875549
0.0017632064160562613,0.6023060029282576
0.001768244148673565,0.6023060029282576
0.001768244148673565,0.6028550512445096
0.0017783196139081721,0.6028550512445096
0.0017783196139081721,0.6029465592972182
0.0017833573465254758,0.6029465592972182
0.0017833573465254758,0.6030380673499268
0.001793432811760083,0.6030380673499268
0.001793432811760083,0.6034040995607614
0.0017984705443773866,0.6034040995607614
0.0017984705443773866,0.60349560761347
0.0018035082769946903,0.60349560761347
0.0018035082769946903,0.6037701317715959
0.0018085460096119938,0.6037701317715959
0.0018085460096119938,0.6041361639824304
0.0018135837422292975,0.6041361639824304
0.0018135837422292975,0.6045937042459737
0.0018186214748466011,0.6045937042459737
0.0018186214748466011,0.604776720351391
0.0018236592074639046,0.604776720351391
0.0018236592074639046,0.6051427525622255
0.0018286969400812083,0.6051427525622255
0.0018286969400812083,0.6053257686676428
0.0018337346726985118,0.6053257686676428
0.0018337346726985118,0.60550878477306
0.0018438101379331191,0.60550878477306
0.0018438101379331191,0.6061493411420205
0.0018488478705504226,0.6061493411420205
0.0018488478705504226,0.6076134699853587
0.0018538856031677263,0.6076134699853587
0.0018538856031677263,0.6083455344070278
0.00185892333578503,0.6083455344070278
0.00185892333578503,0.6086200585651538
0.001868998801019637,0.6086200585651538
0.001868998801019637,0.608803074670571
0.0018740365336369408,0.608803074670571
0.0018740365336369408,0.6089860907759883
0.0018790742662542442,0.6089860907759883
0.0018790742662542442,0.6091691068814056
0.001884111998871548,0.6091691068814056
0.001884111998871548,0.6094436310395315
0.0018891497314888516,0.6094436310395315
0.0018891497314888516,0.6099011713030746
0.0018992251967234587,0.6099011713030746
0.0018992251967234587,0.6103587115666179
0.0019042629293407622,0.6103587115666179
0.0019042629293407622,0.611090775988287
0.001909300661958066,0.611090775988287
0.001909300661958066,0.6113653001464129
0.0019143383945753696,0.6113653001464129
0.0019143383945753696,0.612097364568082
0.0019244138598099767,0.612097364568082
0.0019244138598099767,0.6121888726207906
0.0019294515924272804,0.6121888726207906
0.0019294515924272804,0.6122803806734992
0.0019344893250445839,0.6122803806734992
0.0019344893250445839,0.612371888726208
0.0019395270576618876,0.612371888726208
0.0019395270576618876,0.6125549048316252
0.0019445647902791912,0.6125549048316252
0.0019445647902791912,0.6136530014641288
0.001954640255513798,0.6136530014641288
0.001954640255513798,0.6137445095168375
0.001969753453365709,0.6137445095168375
0.001969753453365709,0.6138360175695461
0.001974791185983013,0.6138360175695461
0.001974791185983013,0.6142020497803806
0.0019798289186003164,0.6142020497803806
0.0019798289186003164,0.614385065885798
0.00198486665121762,0.614385065885798
0.00198486665121762,0.6146595900439239
0.0019899043838349237,0.6146595900439239
0.0019899043838349237,0.6159407027818448
0.001994942116452227,0.6159407027818448
0.001994942116452227,0.616123718887262
0.0019999798490695306,0.616123718887262
0.0019999798490695306,0.6171303074670571
0.002010055314304138,0.6171303074670571
0.002010055314304138,0.617404831625183
0.002035243977390656,0.617404831625183
0.002035243977390656,0.6180453879941434
0.0020402817100079597,0.6180453879941434
0.0020402817100079597,0.6190519765739385
0.002045319442625263,0.6190519765739385
0.002045319442625263,0.6191434846266471
0.002050357175242567,0.6191434846266471
0.002050357175242567,0.619418008784773
0.002060432640477174,0.619418008784773
0.002060432640477174,0.6201500732064422
0.0020654703730944774,0.6201500732064422
0.0020654703730944774,0.6203330893118595
0.0020705081057117813,0.6203330893118595
0.0020705081057117813,0.6204245973645681
0.002075545838329085,0.6204245973645681
0.002075545838329085,0.6209736456808199
0.002085621303563692,0.6209736456808199
0.002085621303563692,0.6211566617862372
0.0020906590361809956,0.6211566617862372
0.0020906590361809956,0.6212481698389458
0.002100734501415603,0.6212481698389458
0.002100734501415603,0.6219802342606149
0.0021057722340329064,0.6219802342606149
0.0021057722340329064,0.6223462664714495
0.00211080996665021,0.6223462664714495
0.00211080996665021,0.6226207906295754
0.002115847699267514,0.6226207906295754
0.002115847699267514,0.6228038067349927
0.0021259231645021207,0.6228038067349927
0.0021259231645021207,0.6228953147877013
0.0021309608971194246,0.6228953147877013
0.0021309608971194246,0.6239019033674963
0.002135998629736728,0.6239019033674963
0.002135998629736728,0.6239934114202049
0.0021410363623540316,0.6239934114202049
0.0021410363623540316,0.6248169838945827
0.0021460740949713355,0.6248169838945827
0.0021460740949713355,0.6249084919472914
0.002151111827588639,0.6249084919472914
0.002151111827588639,0.6252745241581259
0.0021561495602059424,0.6252745241581259
0.0021561495602059424,0.6259150805270863
0.0021611872928232463,0.6259150805270863
0.0021611872928232463,0.6260980966325037
0.0021662250254405498,0.6260980966325037
0.0021662250254405498,0.6265556368960469
0.0021712627580578532,0.6265556368960469
0.0021712627580578532,0.6274707174231332
0.002176300490675157,0.6274707174231332
0.002176300490675157,0.6278367496339677
0.0021813382232924606,0.6278367496339677
0.0021813382232924606,0.6282027818448024
0.002186375955909764,0.6282027818448024
0.002186375955909764,0.6287518301610542
0.002191413688527068,0.6287518301610542
0.002191413688527068,0.6288433382137628
0.0021964514211443714,0.6288433382137628
0.0021964514211443714,0.6291178623718887
0.002201489153761675,0.6291178623718887
0.002201489153761675,0.629300878477306
0.0022065268863789783,0.629300878477306
0.0022065268863789783,0.6298499267935578
0.0022115646189962822,0.6298499267935578
0.0022115646189962822,0.6302159590043924
0.0022166023516135857,0.6302159590043924
0.0022166023516135857,0.6304904831625183
0.002226677816848193,0.6304904831625183
0.002226677816848193,0.6307650073206442
0.0022317155494654965,0.6307650073206442
0.0022317155494654965,0.6309480234260615
0.0022367532820828,0.6309480234260615
0.0022367532820828,0.6314055636896047
0.002241791014700104,0.6314055636896047
0.002241791014700104,0.6314970717423133
0.0022468287473174074,0.6314970717423133
0.0022468287473174074,0.6315885797950219
0.002251866479934711,0.6315885797950219
0.002251866479934711,0.6319546120058566
0.002261941945169318,0.6319546120058566
0.002261941945169318,0.6323206442166911
0.0022720174104039256,0.6323206442166911
0.0022720174104039256,0.6324121522693997
0.002277055143021229,0.6324121522693997
0.002277055143021229,0.6325036603221084
0.0022820928756385325,0.6325036603221084
0.0022820928756385325,0.632595168374817
0.0022871306082558364,0.632595168374817
0.0022871306082558364,0.6327781844802343
0.0023022438061077472,0.6327781844802343
0.0023022438061077472,0.6331442166910688
0.002327432469194265,0.6331442166910688
0.002327432469194265,0.6334187408491947
0.0023324702018115684,0.6334187408491947
0.0023324702018115684,0.633601756954612
0.002342545667046176,0.633601756954612
0.002342545667046176,0.6340592972181552
0.0023475833996634793,0.6340592972181552
0.0023475833996634793,0.634608345534407
0.002352621132280783,0.634608345534407
0.002352621132280783,0.6349743777452416
0.0023576588648980866,0.6349743777452416
0.0023576588648980866,0.6352489019033675
0.002367734330132694,0.6352489019033675
0.002367734330132694,0.6361639824304539
0.0023727720627499975,0.6361639824304539
0.0023727720627499975,0.6365300146412884
0.002377809795367301,0.6365300146412884
0.002377809795367301,0.6369875549048316
0.002382847527984605,0.6369875549048316
0.002382847527984605,0.6371705710102489
0.0023929229932192118,0.6371705710102489
0.0023929229932192118,0.6375366032210834
0.0023979607258365157,0.6375366032210834
0.0023979607258365157,0.6377196193265008
0.002402998458453819,0.6377196193265008
0.002402998458453819,0.637902635431918
0.0024080361910711226,0.637902635431918
0.0024080361910711226,0.6387262079062958
0.00241811165630573,0.6387262079062958
0.00241811165630573,0.6390922401171303
0.0024231493889230334,0.6390922401171303
0.0024231493889230334,0.6393667642752562
0.0024332248541576408,0.6393667642752562
0.0024332248541576408,0.6395497803806734
0.0024382625867749442,0.6395497803806734
0.0024382625867749442,0.6396412884333821
0.002443300319392248,0.6396412884333821
0.002443300319392248,0.6397327964860908
0.0024483380520095516,0.6397327964860908
0.0024483380520095516,0.6398243045387995
0.0024584135172441585,0.6398243045387995
0.0024584135172441585,0.6400988286969254
0.0024735267150960694,0.6400988286969254
0.0024735267150960694,0.6405563689604685
0.0024836021803306767,0.6405563689604685
0.0024836021803306767,0.6416544655929722
0.002493677645565284,0.6416544655929722
0.002493677645565284,0.6420204978038068
0.0024987153781825876,0.6420204978038068
0.0024987153781825876,0.6422950219619327
0.002503753110799891,0.6422950219619327
0.002503753110799891,0.6424780380673499
0.002508790843417195,0.6424780380673499
0.002508790843417195,0.643210102489019
0.002528941773886409,0.643210102489019
0.002528941773886409,0.6435761346998536
0.0025339795065037127,0.6435761346998536
0.0025339795065037127,0.6437591508052709
0.0025390172391210166,0.6437591508052709
0.0025390172391210166,0.6441251830161054
0.0025490927043556235,0.6441251830161054
0.0025490927043556235,0.6443081991215227
0.0025541304369729274,0.6443081991215227
0.0025541304369729274,0.64449121522694
0.002559168169590231,0.64449121522694
0.002559168169590231,0.6446742313323572
0.0025642059022075343,0.6446742313323572
0.0025642059022075343,0.6453147877013177
0.0025692436348248382,0.6453147877013177
0.0025692436348248382,0.6454062957540263
0.0025742813674421417,0.6454062957540263
0.0025742813674421417,0.6455893118594437
0.002579319100059445,0.6455893118594437
0.002579319100059445,0.6456808199121523
0.002584356832676749,0.6456808199121523
0.002584356832676749,0.6458638360175696
0.0025893945652940525,0.6458638360175696
0.0025893945652940525,0.6459553440702782
0.002594432297911356,0.6459553440702782
0.002594432297911356,0.6463213762811127
0.0025994700305286595,0.6463213762811127
0.0025994700305286595,0.6466874084919473
0.0026045077631459634,0.6466874084919473
0.0026045077631459634,0.6468704245973645
0.0026145832283805703,0.6468704245973645
0.0026145832283805703,0.6471449487554904
0.002619620960997874,0.6471449487554904
0.002619620960997874,0.6472364568081991
0.0026246586936151776,0.6472364568081991
0.0026246586936151776,0.6473279648609077
0.002629696426232481,0.6473279648609077
0.002629696426232481,0.6476939970717424
0.002634734158849785,0.6476939970717424
0.002634734158849785,0.6481515373352855
0.0026548850893189993,0.6481515373352855
0.0026548850893189993,0.6483345534407028
0.0026800737524055175,0.6483345534407028
0.0026800737524055175,0.6484260614934114
0.0026901492176401244,0.6484260614934114
0.0026901492176401244,0.6489751098096632
0.0026951869502574283,0.6489751098096632
0.0026951869502574283,0.6495241581259151
0.0027052624154920353,0.6495241581259151
0.0027052624154920353,0.6497071742313324
0.0027153378807266426,0.6497071742313324
0.0027153378807266426,0.6500732064421669
0.0027304510785785534,0.6500732064421669
0.0027304510785785534,0.6501647144948756
0.0027405265438131604,0.6501647144948756
0.0027405265438131604,0.6503477306002928
0.0027455642764304643,0.6503477306002928
0.0027455642764304643,0.6505307467057101
0.0027506020090477677,0.6505307467057101
0.0027506020090477677,0.6506222547584187
0.002760677474282375,0.6506222547584187
0.002760677474282375,0.6507137628111274
0.002770752939516982,0.6507137628111274
0.002770752939516982,0.6508967789165446
0.002775790672134286,0.6508967789165446
0.002775790672134286,0.6511713030746705
0.0027909038699861968,0.6511713030746705
0.0027909038699861968,0.6519033674963397
0.0028009793352208037,0.6519033674963397
0.0028009793352208037,0.6519948755490483
0.0028060170678381076,0.6519948755490483
0.0028060170678381076,0.6522693997071742
0.002811054800455411,0.6522693997071742
0.002811054800455411,0.6523609077598829
0.0028211302656900184,0.6523609077598829
0.0028211302656900184,0.6529099560761347
0.0028412811961592327,0.6529099560761347
0.0028412811961592327,0.6533674963396779
0.002846318928776536,0.6533674963396779
0.002846318928776536,0.6536420204978038
0.00285135666139384,0.6536420204978038
0.00285135666139384,0.6548316251830161
0.0028563943940111435,0.6548316251830161
0.0028563943940111435,0.6552891654465594
0.002861432126628447,0.6552891654465594
0.002861432126628447,0.6557467057101025
0.0028815830570976613,0.6557467057101025
0.0028815830570976613,0.6562042459736457
0.002886620789714965,0.6562042459736457
0.002886620789714965,0.656387262079063
0.0028916585223322687,0.656387262079063
0.0028916585223322687,0.6570278184480234
0.002896696254949572,0.6570278184480234
0.002896696254949572,0.6573023426061494
0.0029067717201841795,0.6573023426061494
0.0029067717201841795,0.6575768667642753
0.002916847185418787,0.6575768667642753
0.002916847185418787,0.6585834553440703
0.0029218849180360903,0.6585834553440703
0.0029218849180360903,0.6587664714494875
0.0029319603832706977,0.6587664714494875
0.0029319603832706977,0.6588579795021962
0.002936998115888001,0.6588579795021962
0.002936998115888001,0.6589494875549048
0.0029420358485053046,0.6589494875549048
0.0029420358485053046,0.6590409956076134
0.0029470735811226085,0.6590409956076134
0.0029470735811226085,0.6593155197657394
0.002952111313739912,0.6593155197657394
0.002952111313739912,0.6594985358711567
0.0029571490463572154,0.6594985358711567
0.0029571490463572154,0.6597730600292826
0.002967224511591823,0.6597730600292826
0.002967224511591823,0.6599560761346999
0.0029823377094437336,0.6599560761346999
0.0029823377094437336,0.6600475841874085
0.002987375442061037,0.6600475841874085
0.002987375442061037,0.6603221083455344
0.0029924131746783406,0.6603221083455344
0.0029924131746783406,0.6605051244509517
0.0029974509072956445,0.6605051244509517
0.0029974509072956445,0.6607796486090776
0.003002488639912948,0.6607796486090776
0.003002488639912948,0.6610541727672035
0.0030075263725302514,0.6610541727672035
0.0030075263725302514,0.6613286969253295
0.0030176018377648588,0.6613286969253295
0.0030176018377648588,0.6614202049780381
0.0030327150356167696,0.6614202049780381
0.0030327150356167696,0.661694729136164
0.003037752768234073,0.661694729136164
0.003037752768234073,0.6617862371888726
0.003042790500851377,0.6617862371888726
0.003042790500851377,0.6622437774524158
0.0030478282334686804,0.6622437774524158
0.0030478282334686804,0.6624267935578331
0.0030579036987032878,0.6624267935578331
0.0030579036987032878,0.6629758418740849
0.0030730168965551986,0.6629758418740849
0.0030730168965551986,0.6632503660322109
0.003078054629172502,0.6632503660322109
0.003078054629172502,0.6638909224011713
0.0030830923617898055,0.6638909224011713
0.0030830923617898055,0.6642569546120058
0.0030881300944071094,0.6642569546120058
0.0030881300944071094,0.6643484626647145
0.003093167827024413,0.6643484626647145
0.003093167827024413,0.6644399707174231
0.0031082810248763237,0.6644399707174231
0.0031082810248763237,0.6648060029282576
0.003113318757493627,0.6648060029282576
0.003113318757493627,0.6649890190336749
0.003118356490110931,0.6649890190336749
0.003118356490110931,0.6652635431918009
0.0031233942227282346,0.6652635431918009
0.0031233942227282346,0.6654465592972182
0.003128431955345538,0.6654465592972182
0.003128431955345538,0.6657210834553441
0.0031334696879628415,0.6657210834553441
0.0031334696879628415,0.6662701317715959
0.0031385074205801454,0.6662701317715959
0.0031385074205801454,0.6665446559297218
0.003143545153197449,0.6665446559297218
0.003143545153197449,0.666727672035139
0.0031586583510493597,0.666727672035139
0.0031586583510493597,0.6677342606149341
0.003163696083666663,0.6677342606149341
0.003163696083666663,0.6678257686676428
0.003168733816283967,0.6678257686676428
0.003168733816283967,0.6679172767203514
0.003178809281518574,0.6679172767203514
0.003178809281518574,0.66800878477306
0.003183847014135878,0.66800878477306
0.003183847014135878,0.6681002928257687
0.0031888847467531813,0.6681002928257687
0.0031888847467531813,0.6682833089311859
0.003193922479370485,0.6682833089311859
0.003193922479370485,0.6686493411420205
0.0032090356772223956,0.6686493411420205
0.0032090356772223956,0.6687408491947291
0.003219111142457003,0.6687408491947291
0.003219111142457003,0.6688323572474377
0.0032241488750743065,0.6688323572474377
0.0032241488750743065,0.6689238653001464
0.0032392620729262173,0.6689238653001464
0.0032392620729262173,0.6691068814055637
0.003254375270778128,0.6691068814055637
0.003254375270778128,0.669289897510981
0.0032644507360127355,0.669289897510981
0.0032644507360127355,0.6698389458272328
0.0032745262012473424,0.6698389458272328
0.0032745262012473424,0.6699304538799414
0.0032795639338646463,0.6699304538799414
0.0032795639338646463,0.6702049780380673
0.0032896393990992532,0.6702049780380673
0.0032896393990992532,0.670296486090776
0.003294677131716557,0.670296486090776
0.003294677131716557,0.6703879941434846
0.003304752596951164,0.6703879941434846
0.003304752596951164,0.6709370424597365
0.003309790329568468,0.6709370424597365
0.003309790329568468,0.6710285505124451
0.003319865794803075,0.6710285505124451
0.003319865794803075,0.6715775988286969
0.003324903527420379,0.6715775988286969
0.003324903527420379,0.6716691068814056
0.0033299412600376822,0.6716691068814056
0.0033299412600376822,0.6717606149341142
0.0033500921905068965,0.6717606149341142
0.0033500921905068965,0.6718521229868228
0.003360167655741504,0.6718521229868228
0.003360167655741504,0.6727672035139092
0.0033652053883588074,0.6727672035139092
0.0033652053883588074,0.6728587115666179
0.0033752808535934147,0.6728587115666179
0.0033752808535934147,0.6729502196193266
0.003380318586210718,0.6729502196193266
0.003380318586210718,0.6732247437774525
0.003385356318828022,0.6732247437774525
0.003385356318828022,0.6736822840409956
0.003395431784062629,0.6736822840409956
0.003395431784062629,0.674322840409956
0.0034004695166799325,0.674322840409956
0.0034004695166799325,0.6745058565153733
0.0034055072492972364,0.6745058565153733
0.0034055072492972364,0.6750549048316252
0.003435733645001058,0.6750549048316252
0.003435733645001058,0.6752379209370425
0.003450846842852969,0.6752379209370425
0.003450846842852969,0.6753294289897511
0.0034558845754702723,0.6753294289897511
0.0034558845754702723,0.6754209370424598
0.003460922308087576,0.6754209370424598
0.003460922308087576,0.6757869692532943
0.0034659600407048797,0.6757869692532943
0.0034659600407048797,0.6758784773060029
0.0034760355059394866,0.6758784773060029
0.0034760355059394866,0.6759699853587116
0.003486110971174094,0.6759699853587116
0.003486110971174094,0.6764275256222547
0.0034911487037913975,0.6764275256222547
0.0034911487037913975,0.6767020497803806
0.0034961864364087014,0.6767020497803806
0.0034961864364087014,0.6770680819912153
0.003501224169026005,0.6770680819912153
0.003501224169026005,0.6772510980966325
0.0035163373668779157,0.6772510980966325
0.0035163373668779157,0.6775256222547584
0.003521375099495219,0.6775256222547584
0.003521375099495219,0.6781661786237189
0.0035264128321125226,0.6781661786237189
0.0035264128321125226,0.6782576866764275
0.0035314505647298265,0.6782576866764275
0.0035314505647298265,0.6788067349926794
0.00353648829734713,0.6788067349926794
0.00353648829734713,0.678898243045388
0.0035415260299644334,0.678898243045388
0.0035415260299644334,0.6792642752562226
0.0035465637625817373,0.6792642752562226
0.0035465637625817373,0.6794472913616398
0.0035516014951990408,0.6794472913616398
0.0035516014951990408,0.6795387994143485
0.003561676960433648,0.6795387994143485
0.003561676960433648,0.6796303074670571
0.0035667146930509516,0.6796303074670571
0.0035667146930509516,0.6799963396778916
0.003576790158285559,0.6799963396778916
0.003576790158285559,0.6802708638360175
0.0035818278909028624,0.6802708638360175
0.0035818278909028624,0.6803623718887262
0.003586865623520166,0.6803623718887262
0.003586865623520166,0.6808199121522694
0.00359190335613747,0.6808199121522694
0.00359190335613747,0.6809114202049781
0.0035969410887547733,0.6809114202049781
0.0035969410887547733,0.681185944363104
0.0036070165539893806,0.681185944363104
0.0036070165539893806,0.6815519765739385
0.003612054286606684,0.6815519765739385
0.003612054286606684,0.6816434846266471
0.0036170920192239876,0.6816434846266471
0.0036170920192239876,0.6817349926793558
0.0036221297518412915,0.6817349926793558
0.0036221297518412915,0.681918008784773
0.0036322052170758984,0.681918008784773
0.0036322052170758984,0.6822840409956076
0.0036372429496932023,0.6822840409956076
0.0036372429496932023,0.6823755490483162
0.0036422806823105057,0.6823755490483162
0.0036422806823105057,0.6824670571010248
0.003647318414927809,0.6824670571010248
0.003647318414927809,0.683199121522694
0.00366243161277972,0.683199121522694
0.00366243161277972,0.6833821376281113
0.0036674693453970235,0.6833821376281113
0.0036674693453970235,0.6834736456808199
0.0036725070780143274,0.6834736456808199
0.0036725070780143274,0.6838396778916545
0.003677544810631631,0.6838396778916545
0.003677544810631631,0.6841142020497804
0.003702733473718149,0.6841142020497804
0.003702733473718149,0.6844802342606149
0.0037077712063354525,0.6844802342606149
0.0037077712063354525,0.6845717423133236
0.003712808938952756,0.6845717423133236
0.003712808938952756,0.6847547584187409
0.00371784667157006,0.6847547584187409
0.00371784667157006,0.6849377745241582
0.0037329598694219707,0.6849377745241582
0.0037329598694219707,0.6857613469985359
0.003737997602039274,0.6857613469985359
0.003737997602039274,0.6860358711566618
0.0037480730672738815,0.6860358711566618
0.0037480730672738815,0.6863103953147877
0.0037581485325084885,0.6863103953147877
0.0037581485325084885,0.6864934114202049
0.0037732617303603993,0.6864934114202049
0.0037732617303603993,0.6866764275256223
0.0037833371955950067,0.6866764275256223
0.0037833371955950067,0.6867679355783309
0.00378837492821231,0.6867679355783309
0.00378837492821231,0.6868594436310396
0.0037934126608296136,0.6869509516837482
0.0037934126608296136,0.6871339677891655
0.0037984503934469175,0.6871339677891655
0.0037984503934469175,0.6872254758418741
0.0038085258586815244,0.6872254758418741
0.0038085258586815244,0.6873169838945827
0.003818601323916132,0.6873169838945827
0.003818601323916132,0.6875915080527086
0.0038236390565334353,0.6875915080527086
0.0038236390565334353,0.6876830161054173
0.0038337145217680426,0.6876830161054173
0.0038337145217680426,0.6880490483162518
0.00384378998700265,0.6880490483162518
0.00384378998700265,0.6888726207906296
0.003853865452237257,0.6888726207906296
0.003853865452237257,0.6897877013177159
0.0038639409174718643,0.6897877013177159
0.0038639409174718643,0.6899707174231332
0.0038689786500891677,0.6899707174231332
0.0038689786500891677,0.6902452415812591
0.0038740163827064716,0.6902452415812591
0.0038740163827064716,0.6903367496339677
0.003879054115323775,0.6903367496339677
0.003879054115323775,0.6905197657393851
0.0038891295805583825,0.6905197657393851
0.0038891295805583825,0.6909773060029283
0.003894167313175686,0.6909773060029283
0.003894167313175686,0.6912518301610542
0.0038992050457929894,0.6912518301610542
0.0038992050457929894,0.6914348462664714
0.0039042427784102933,0.6914348462664714
0.0039042427784102933,0.6915263543191801
0.0039143182436449,0.6915263543191801
0.0039143182436449,0.6916178623718887
0.003919355976262204,0.6916178623718887
0.003919355976262204,0.6924414348462665
0.003924393708879507,0.6924414348462665
0.003924393708879507,0.6926244509516838
0.003929431441496811,0.6926244509516838
0.003929431441496811,0.6927159590043924
0.003934469174114115,0.6927159590043924
0.003934469174114115,0.6928074670571011
0.003939506906731418,0.6928074670571011
0.003939506906731418,0.6929904831625183
0.003944544639348722,0.6929904831625183
0.003944544639348722,0.693081991215227
0.003959657837200633,0.693081991215227
0.003959657837200633,0.6932650073206442
0.00396973330243524,0.6932650073206442
0.00396973330243524,0.6933565153733529
0.0039747710350525435,0.6933565153733529
0.0039747710350525435,0.6934480234260615
0.0039848465002871505,0.6934480234260615
0.0039848465002871505,0.6936310395314788
0.003989884232904454,0.6936310395314788
0.003989884232904454,0.693814055636896
0.003994921965521758,0.693814055636896
0.003994921965521758,0.6944546120058566
0.004004997430756365,0.6944546120058566
0.004004997430756365,0.6945461200585652
0.004015072895990972,0.6945461200585652
0.004015072895990972,0.6946376281112738
0.004030186093842883,0.6946376281112738
0.004030186093842883,0.6950036603221084
0.004035223826460187,0.6950036603221084
0.004035223826460187,0.6956442166910688
0.004040261559077491,0.6956442166910688
0.004040261559077491,0.6957357247437774
0.004045299291694794,0.6957357247437774
0.004045299291694794,0.6959187408491947
0.004055374756929402,0.6959187408491947
0.004055374756929402,0.6961932650073206
0.004060412489546705,0.6961932650073206
0.004060412489546705,0.6962847730600292
0.0040654502221640085,0.6962847730600292
0.0040654502221640085,0.6964677891654466
0.004070487954781312,0.6964677891654466
0.004070487954781312,0.6965592972181552
0.0040755256873986154,0.6965592972181552
0.0040755256873986154,0.697108345534407
0.004080563420015919,0.697108345534407
0.004080563420015919,0.6971998535871157
0.004090638885250526,0.6971998535871157
0.004090638885250526,0.6974743777452416
0.004100714350485134,0.6974743777452416
0.004100714350485134,0.6975658857979502
0.004110789815719741,0.6975658857979502
0.004110789815719741,0.6976573938506588
0.004120865280954348,0.6976573938506588
0.004120865280954348,0.6977489019033675
0.004125903013571652,0.6977489019033675
0.004125903013571652,0.6980234260614934
0.004135978478806259,0.6980234260614934
0.004135978478806259,0.698389458272328
0.004141016211423563,0.698389458272328
0.004141016211423563,0.6985724743777453
0.0041561294092754735,0.6985724743777453
0.0041561294092754735,0.6987554904831625
0.0041611671418927765,0.6987554904831625
0.0041611671418927765,0.6988469985358712
0.00416620487451008,0.6988469985358712
0.00416620487451008,0.6993045387994143
0.004171242607127384,0.6993045387994143
0.004171242607127384,0.699396046852123
0.004176280339744687,0.699396046852123
0.004176280339744687,0.6995790629575402
0.004181318072361991,0.6995790629575402
0.004181318072361991,0.6997620790629575
0.004196431270213902,0.6997620790629575
0.004196431270213902,0.7000366032210834
0.004206506735448509,0.7000366032210834
0.004206506735448509,0.7002196193265008
0.004211544468065813,0.7002196193265008
0.004211544468065813,0.700402635431918
0.004216582200683117,0.700402635431918
0.004216582200683117,0.7004941434846267
0.00422161993330042,0.7004941434846267
0.00422161993330042,0.7005856515373353
0.004226657665917724,0.7005856515373353
0.004226657665917724,0.7008601756954612
0.004231695398535028,0.7008601756954612
0.004231695398535028,0.7010431918008785
0.004236733131152331,0.7010431918008785
0.004236733131152331,0.7013177159590044
0.0042417708637696346,0.7013177159590044
0.0042417708637696346,0.701409224011713
0.0042468085963869385,0.701409224011713
0.0042468085963869385,0.7015007320644217
0.0042518463290042415,0.7015007320644217
0.0042518463290042415,0.7015922401171303
0.004261921794238849,0.7015922401171303
0.004261921794238849,0.7022327964860908
0.004266959526856152,0.7022327964860908
0.004266959526856152,0.7024158125915081
0.004287110457325367,0.7024158125915081
0.004287110457325367,0.7025988286969254
0.004292148189942671,0.7025988286969254
0.004292148189942671,0.7031478770131772
0.004297185922559974,0.7031478770131772
0.004297185922559974,0.7032393850658858
0.004307261387794582,0.7032393850658858
0.004307261387794582,0.7037884333821376
0.004312299120411885,0.7037884333821376
0.004312299120411885,0.7039714494875549
0.004317336853029189,0.7039714494875549
0.004317336853029189,0.7042459736456809
0.0043425255161157065,0.7042459736456809
0.0043425255161157065,0.7044289897510981
0.004362676446584921,0.7044289897510981
0.004362676446584921,0.7046120058565154
0.004372751911819528,0.7046120058565154
0.004372751911819528,0.704703513909224
0.004377789644436832,0.704703513909224
0.004377789644436832,0.7047950219619327
0.004382827377054136,0.7047950219619327
0.004382827377054136,0.7048865300146413
0.004392902842288743,0.7048865300146413
0.004392902842288743,0.7049780380673499
0.004397940574906046,0.7049780380673499
0.004397940574906046,0.7053440702781845
0.004408016040140654,0.7053440702781845
0.004408016040140654,0.7054355783308931
0.004413053772757957,0.7054355783308931
0.004413053772757957,0.7058016105417276
0.004418091505375261,0.7058016105417276
0.004418091505375261,0.7061676427525623
0.004438242435844475,0.7061676427525623
0.004438242435844475,0.7063506588579795
0.004443280168461778,0.7063506588579795
0.004443280168461778,0.7066251830161054
0.004448317901079082,0.7066251830161054
0.004448317901079082,0.7068997071742313
0.004453355633696386,0.7068997071742313
0.004453355633696386,0.70699121522694
0.004458393366313689,0.70699121522694
0.004458393366313689,0.7070827232796486
0.004483582029400208,0.7070827232796486
0.004483582029400208,0.7072657393850659
0.004488619762017511,0.7072657393850659
0.004488619762017511,0.7076317715959004
0.004493657494634815,0.7076317715959004
0.004493657494634815,0.707723279648609
0.004498695227252119,0.707723279648609
0.004498695227252119,0.7078147877013177
0.004503732959869422,0.7078147877013177
0.004503732959869422,0.7080893118594437
0.0045087706924867256,0.7080893118594437
0.0045087706924867256,0.708272327964861
0.0045188461577213325,0.708272327964861
0.0045188461577213325,0.7084553440702782
0.004533959355573243,0.7084553440702782
0.004533959355573243,0.7086383601756955
0.004549072553425154,0.7086383601756955
0.004549072553425154,0.7087298682284041
0.004559148018659762,0.7087298682284041
0.004559148018659762,0.7089128843338214
0.00458433668174628,0.7089128843338214
0.00458433668174628,0.7090959004392386
0.0045994498795981905,0.7090959004392386
0.0045994498795981905,0.7094619326500732
0.0046044876122154944,0.7094619326500732
0.0046044876122154944,0.7095534407027818
0.0046095253448327975,0.7095534407027818
0.0046095253448327975,0.7097364568081991
0.004614563077450101,0.7097364568081991
0.004614563077450101,0.7101024890190337
0.004619600810067405,0.7101024890190337
0.004619600810067405,0.7103770131771596
0.004629676275302012,0.7103770131771596
0.004629676275302012,0.7104685212298683
0.004634714007919316,0.7104685212298683
0.004634714007919316,0.7105600292825769
0.004639751740536619,0.7105600292825769
0.004639751740536619,0.7107430453879942
0.004644789473153923,0.7107430453879942
0.004644789473153923,0.7109260614934114
0.00465486493838853,0.7109260614934114
0.00465486493838853,0.71101756954612
0.004659902671005834,0.71101756954612
0.004659902671005834,0.7111090775988287
0.004669978136240441,0.7111090775988287
0.004669978136240441,0.7112005856515373
0.004680053601475048,0.7112005856515373
0.004680053601475048,0.711292093704246
0.0046951667993269585,0.711292093704246
0.0046951667993269585,0.7113836017569546
0.004715317729796173,0.7113836017569546
0.004715317729796173,0.7114751098096632
0.004730430927648084,0.7114751098096632
0.004730430927648084,0.7117496339677891
0.004740506392882691,0.7117496339677891
0.004740506392882691,0.7120241581259151
0.004750581858117299,0.7120241581259151
0.004750581858117299,0.712298682284041
0.004755619590734602,0.712298682284041
0.004755619590734602,0.7126647144948756
0.00476569505596921,0.7126647144948756
0.00476569505596921,0.7127562225475842
0.004775770521203817,0.7127562225475842
0.004775770521203817,0.7128477306002928
0.0047808082538211205,0.7128477306002928
0.0047808082538211205,0.7132137628111274
0.0047858459864384235,0.7132137628111274
0.0047858459864384235,0.7140373352855052
0.004795921451673031,0.7140373352855052
0.004795921451673031,0.7142203513909224
0.004800959184290334,0.7142203513909224
0.004800959184290334,0.7144033674963397
0.004805996916907638,0.7144033674963397
0.004805996916907638,0.7144948755490483
0.004811034649524942,0.7144948755490483
0.004811034649524942,0.714586383601757
0.004831185579994156,0.714586383601757
0.004831185579994156,0.7147693997071742
0.004841261045228764,0.7147693997071742
0.004841261045228764,0.7150439238653001
0.004846298777846067,0.7150439238653001
0.004846298777846067,0.7152269399707174
0.004861411975697978,0.7152269399707174
0.004861411975697978,0.7155014641288433
0.0048664497083152815,0.7155014641288433
0.0048664497083152815,0.7159590043923866
0.0048714874409325854,0.7159590043923866
0.0048714874409325854,0.7162335285505125
0.0048765251735498885,0.7162335285505125
0.0048765251735498885,0.7163250366032211
0.004881562906167192,0.7163250366032211
0.004881562906167192,0.7164165446559297
0.00490675156925371,0.7164165446559297
0.00490675156925371,0.7168740849194729
0.004911789301871014,0.7168740849194729
0.004911789301871014,0.7169655929721815
0.004916827034488317,0.7169655929721815
0.004916827034488317,0.7170571010248902
0.004921864767105621,0.7170571010248902
0.004921864767105621,0.7171486090775988
0.004931940232340228,0.7171486090775988
0.004931940232340228,0.7176976573938506
0.004947053430192139,0.7176976573938506
0.004947053430192139,0.717880673499268
0.004952091162809443,0.717880673499268
0.004952091162809443,0.7180636896046853
0.0049571288954267465,0.7180636896046853
0.0049571288954267465,0.7181551976573939
0.0049621666280440496,0.7181551976573939
0.0049621666280440496,0.7185212298682284
0.004972242093278657,0.7185212298682284
0.004972242093278657,0.7187957540263543
0.00497727982589596,0.7187957540263543
0.00497727982589596,0.718887262079063
0.004982317558513264,0.718887262079063
0.004982317558513264,0.7189787701317716
0.004987355291130568,0.7189787701317716
0.004987355291130568,0.7190702781844802
0.005002468488982479,0.7190702781844802
0.005002468488982479,0.7192532942898975
0.005007506221599782,0.7192532942898975
0.005007506221599782,0.7195278184480234
0.005022619419451693,0.7195278184480234
0.005022619419451693,0.7201683748169839
0.005027657152068997,0.7201683748169839
0.005027657152068997,0.7202598828696926
0.005032694884686301,0.7202598828696926
0.005032694884686301,0.7204428989751098
0.005042770349920908,0.7204428989751098
0.005042770349920908,0.7207174231332357
0.0050478080825382115,0.7207174231332357
0.0050478080825382115,0.720900439238653
0.005067959013007425,0.720900439238653
0.005067959013007425,0.7210834553440703
0.005078034478242033,0.7210834553440703
0.005078034478242033,0.7213579795021962
0.005083072210859336,0.7213579795021962
0.005083072210859336,0.7214494875549048
0.00508810994347664,0.7214494875549048
0.00508810994347664,0.7215409956076134
0.005093147676093944,0.7215409956076134
0.005093147676093944,0.7216325036603221
0.005098185408711247,0.7216325036603221
0.005098185408711247,0.7220900439238653
0.005128411804415069,0.7220900439238653
0.005128411804415069,0.7222730600292826
0.0051334495370323726,0.7222730600292826
0.0051334495370323726,0.7224560761346999
0.005153600467501587,0.7224560761346999
0.005153600467501587,0.7225475841874085
0.00515863820011889,0.7225475841874085
0.00515863820011889,0.7226390922401171
0.005183826863205408,0.7226390922401171
0.005183826863205408,0.7231881405563689
0.005198940061057319,0.7231881405563689
0.005198940061057319,0.7235541727672035
0.005209015526291927,0.7235541727672035
0.005209015526291927,0.7236456808199122
0.005219090991526534,0.7236456808199122
0.005219090991526534,0.7237371888726208
0.0052241287241438375,0.7237371888726208
0.0052241287241438375,0.7238286969253295
0.0052342041893784445,0.7238286969253295
0.0052342041893784445,0.7240117130307467
0.005244279654613051,0.7240117130307467
0.005244279654613051,0.7241032210834554
0.005249317387230355,0.7241032210834554
0.005249317387230355,0.724194729136164
0.005259392852464962,0.724194729136164
0.005259392852464962,0.7242862371888726
0.005274506050316873,0.7242862371888726
0.005274506050316873,0.7243777452415813
0.005279543782934177,0.7243777452415813
0.005279543782934177,0.7247437774524158
0.005284581515551481,0.7247437774524158
0.005284581515551481,0.7249267935578331
0.005294656980786088,0.7249267935578331
0.005294656980786088,0.7250183016105417
0.005299694713403392,0.7250183016105417
0.005299694713403392,0.7251098096632503
0.005304732446020695,0.7251098096632503
0.005304732446020695,0.725201317715959
0.005334958841724516,0.725201317715959
0.005334958841724516,0.7254758418740849
0.00533999657434182,0.7254758418740849
0.00533999657434182,0.7257503660322109
0.005345034306959124,0.7257503660322109
0.005345034306959124,0.7258418740849195
0.005350072039576427,0.7258418740849195
0.005350072039576427,0.7261163982430454
0.005365185237428338,0.7261163982430454
0.005365185237428338,0.726207906295754
0.005380298435280249,0.726207906295754
0.005380298435280249,0.7263909224011713
0.005390373900514857,0.7263909224011713
0.005390373900514857,0.7267569546120058
0.00539541163313216,0.7267569546120058
0.00539541163313216,0.7269399707174231
0.0054105248309840705,0.7269399707174231
0.0054105248309840705,0.727214494875549
0.005420600296218678,0.727214494875549
0.005420600296218678,0.7276720351390923
0.005425638028835981,0.7276720351390923
0.005425638028835981,0.7277635431918009
0.005430675761453285,0.7277635431918009
0.005430675761453285,0.7278550512445096
0.005435713494070589,0.7278550512445096
0.005435713494070589,0.7280380673499268
0.005455864424539803,0.7280380673499268
0.005455864424539803,0.7281295754026355
0.005460902157157107,0.7281295754026355
0.005460902157157107,0.7287701317715959
0.00546593988977441,0.7287701317715959
0.00546593988977441,0.7290446559297218
0.005470977622391714,0.7290446559297218
0.005470977622391714,0.729227672035139
0.005476015355009018,0.729227672035139
0.005476015355009018,0.7294106881405563
0.005481053087626321,0.7294106881405563
0.005481053087626321,0.7295021961932651
0.005486090820243625,0.7295021961932651
0.005486090820243625,0.7295937042459737
0.0054911285528609285,0.7295937042459737
0.0054911285528609285,0.7296852122986823
0.005511279483330142,0.7296852122986823
0.005511279483330142,0.7299597364568082
0.005526392681182053,0.7299597364568082
0.005526392681182053,0.7306918008784773
0.005531430413799357,0.7306918008784773
0.005531430413799357,0.7307833089311859
0.005541505879033964,0.7307833089311859
0.005541505879033964,0.7308748169838946
0.005546543611651268,0.7308748169838946
0.005546543611651268,0.7309663250366032
0.005551581344268572,0.7309663250366032
0.005551581344268572,0.7310578330893118
0.005556619076885875,0.7310578330893118
0.005556619076885875,0.7311493411420205
0.005566694542120483,0.7311493411420205
0.005566694542120483,0.7314238653001464
0.0055818077399723935,0.7314238653001464
0.0055818077399723935,0.7316068814055637
0.0055918832052070004,0.7316068814055637
0.0055918832052070004,0.7318814055636896
0.005596920937824304,0.7318814055636896
0.005596920937824304,0.7322474377745242
0.005601958670441607,0.7322474377745242
0.005601958670441607,0.7326134699853587
0.005617071868293518,0.7326134699853587
0.005617071868293518,0.7330710102489019
0.005627147333528126,0.7330710102489019
0.005627147333528126,0.7331625183016105
0.005632185066145429,0.7331625183016105
0.005632185066145429,0.733803074670571
0.005637222798762733,0.733803074670571
0.005637222798762733,0.7338945827232797
0.005642260531380037,0.7338945827232797
0.005642260531380037,0.7339860907759883
0.00564729826399734,0.7339860907759883
0.00564729826399734,0.7342606149341142
0.005652335996614644,0.7342606149341142
0.005652335996614644,0.7343521229868228
0.005667449194466555,0.7343521229868228
0.005667449194466555,0.7344436310395315
0.005682562392318465,0.7344436310395315
0.005682562392318465,0.7346266471449487
0.005692637857553072,0.7346266471449487
0.005692637857553072,0.7349011713030746
0.005697675590170376,0.7349011713030746
0.005697675590170376,0.7356332357247438
0.00570271332278768,0.7356332357247438
0.00570271332278768,0.7357247437774525
0.005707751055404983,0.7357247437774525
0.005707751055404983,0.7358162518301611
0.00571782652063959,0.7358162518301611
0.00571782652063959,0.7365483162518301
0.005722864253256894,0.7365483162518301
0.005722864253256894,0.737097364568082
0.005748052916343412,0.737097364568082
0.005748052916343412,0.7371888726207906
0.005753090648960716,0.7371888726207906
0.005753090648960716,0.7372803806734992
0.0057581283815780196,0.7372803806734992
0.0057581283815780196,0.737371888726208
0.005783317044664537,0.737371888726208
0.005783317044664537,0.7375549048316252
0.005793392509899144,0.7375549048316252
0.005793392509899144,0.7376464128843339
0.005798430242516448,0.7376464128843339
0.005798430242516448,0.7377379209370425
0.005818581172985663,0.7377379209370425
0.005818581172985663,0.7378294289897511
0.005823618905602966,0.7378294289897511
0.005823618905602966,0.7381954612005857
0.005833694370837574,0.7381954612005857
0.005833694370837574,0.7384699853587116
0.005838732103454877,0.7384699853587116
0.005838732103454877,0.7385614934114202
0.005843769836072181,0.7385614934114202
0.005843769836072181,0.7386530014641288
0.0058488075686894845,0.7386530014641288
0.0058488075686894845,0.7388360175695461
0.0058538453013067876,0.7388360175695461
0.0058538453013067876,0.7389275256222547
0.005873996231776002,0.7389275256222547
0.005873996231776002,0.7390190336749634
0.005879033964393306,0.7390190336749634
0.005879033964393306,0.739385065885798
0.005884071697010609,0.739385065885798
0.005884071697010609,0.7394765739385066
0.005909260360097128,0.7394765739385066
0.005909260360097128,0.7395680819912153
0.005929411290566342,0.7395680819912153
0.005929411290566342,0.7396595900439239
0.005934449023183646,0.7396595900439239
0.005934449023183646,0.7397510980966325
0.0059394867558009495,0.7397510980966325
0.0059394867558009495,0.7398426061493412
0.0059445244884182525,0.7398426061493412
0.0059445244884182525,0.7400256222547584
0.005949562221035556,0.7400256222547584
0.005949562221035556,0.7401171303074671
0.00595459995365286,0.7401171303074671
0.00595459995365286,0.7403001464128843
0.005959637686270163,0.7403001464128843
0.005959637686270163,0.740391654465593
0.005969713151504771,0.740391654465593
0.005969713151504771,0.7409407027818448
0.005974750884122074,0.7409407027818448
0.005974750884122074,0.741123718887262
0.005979788616739378,0.741123718887262
0.005979788616739378,0.7413067349926794
0.006004977279825896,0.7413067349926794
0.006004977279825896,0.741398243045388
0.0060100150124432,0.741398243045388
0.0060100150124432,0.7414897510980967
0.006020090477677807,0.7414897510980967
0.006020090477677807,0.7418557833089312
0.006025128210295111,0.7418557833089312
0.006025128210295111,0.7420387994143485
0.006030165942912414,0.7420387994143485
0.006030165942912414,0.7421303074670571
0.006040241408147021,0.7421303074670571
0.006040241408147021,0.7422218155197657
0.006045279140764324,0.7422218155197657
0.006045279140764324,0.7423133235724744
0.006050316873381628,0.7423133235724744
0.006050316873381628,0.7426793557833089
0.006065430071233539,0.7426793557833089
0.006065430071233539,0.7429538799414348
0.006085581001702754,0.7429538799414348
0.006085581001702754,0.7431368960468521
0.006090618734320057,0.7431368960468521
0.006090618734320057,0.7433199121522694
0.006095656466937361,0.7433199121522694
0.006095656466937361,0.7435944363103953
0.006100694199554665,0.7435944363103953
0.006100694199554665,0.743685944363104
0.006130920595258486,0.743685944363104
0.006130920595258486,0.7440519765739385
0.006146033793110397,0.7440519765739385
0.006146033793110397,0.7446010248901903
0.0061510715257277,0.7446010248901903
0.0061510715257277,0.7446925329428989
0.006166184723579611,0.7446925329428989
0.006166184723579611,0.7449670571010248
0.006171222456196915,0.7449670571010248
0.006171222456196915,0.7450585651537335
0.006181297921431522,0.7450585651537335
0.006181297921431522,0.7451500732064422
0.006186335654048826,0.7451500732064422
0.006186335654048826,0.7452415812591509
0.006196411119283433,0.7452415812591509
0.006196411119283433,0.7453330893118595
0.006201448851900737,0.7453330893118595
0.006201448851900737,0.7455161054172768
0.0062064865845180405,0.7455161054172768
0.0062064865845180405,0.7456076134699854
0.0062115243171353435,0.7456076134699854
0.0062115243171353435,0.7459736456808199
0.0062165620497526474,0.7459736456808199
0.0062165620497526474,0.7460651537335286
0.006221599782369951,0.7460651537335286
0.006221599782369951,0.7461566617862372
0.006226637514987254,0.7461566617862372
0.006226637514987254,0.7462481698389458
0.006231675247604558,0.7462481698389458
0.006231675247604558,0.7465226939970717
0.006236712980221862,0.7465226939970717
0.006236712980221862,0.7466142020497804
0.006241750712839165,0.7466142020497804
0.006241750712839165,0.7467972181551976
0.006256863910691076,0.7467972181551976
0.006256863910691076,0.7468887262079063
0.00626190164330838,0.7468887262079063
0.00626190164330838,0.7470717423133236
0.006282052573777594,0.7470717423133236
0.006282052573777594,0.7475292825768668
0.0063022035042468085,0.7475292825768668
0.0063022035042468085,0.7476207906295754
0.006322354434716023,0.7476207906295754
0.006322354434716023,0.7478953147877013
0.00633242989995063,0.7478953147877013
0.00633242989995063,0.74798682284041
0.006337467632567934,0.74798682284041
0.006337467632567934,0.7482613469985359
0.006357618563037148,0.7482613469985359
0.006357618563037148,0.7486273792093704
0.006367694028271756,0.7486273792093704
0.006367694028271756,0.7489019033674963
0.006377769493506363,0.7489019033674963
0.006377769493506363,0.7489934114202049
0.0063928826913582735,0.7489934114202049
0.0063928826913582735,0.7495424597364568
0.006407995889210184,0.7495424597364568
0.006407995889210184,0.7497254758418741
0.006418071354444791,0.7497254758418741
0.006418071354444791,0.7498169838945827
0.006428146819679399,0.7498169838945827
0.006428146819679399,0.75
0.00644326001753131,0.75
0.00644326001753131,0.7500915080527086
0.006448297750148613,0.7500915080527086
0.006448297750148613,0.7501830161054173
0.006453335482765917,0.7501830161054173
0.006453335482765917,0.7505490483162518
0.006458373215383221,0.7505490483162518
0.006458373215383221,0.7506405563689604
0.006468448680617828,0.7506405563689604
0.006468448680617828,0.7507320644216691
0.006488599611087042,0.7507320644216691
0.006488599611087042,0.7509150805270863
0.006498675076321649,0.7509150805270863
0.006498675076321649,0.7511896046852123
0.006508750541556256,0.7511896046852123
0.006508750541556256,0.751281112737921
0.006518826006790863,0.751281112737921
0.006518826006790863,0.7515556368960469
0.006523863739408167,0.7515556368960469
0.006523863739408167,0.7517386530014641
0.006544014669877382,0.7517386530014641
0.006544014669877382,0.75201317715959
0.006549052402494685,0.75201317715959
0.006549052402494685,0.7521046852122987
0.006554090135111989,0.7521046852122987
0.006554090135111989,0.7525622254758418
0.0065792787981985065,0.7525622254758418
0.0065792787981985065,0.7527452415812591
0.006589354263433114,0.7527452415812591
0.006589354263433114,0.7530197657393851
0.006594391996050417,0.7530197657393851
0.006594391996050417,0.7532027818448024
0.006609505193902328,0.7532027818448024
0.006609505193902328,0.753294289897511
0.006629656124371543,0.753294289897511
0.006629656124371543,0.7534773060029283
0.006649807054840758,0.7534773060029283
0.006649807054840758,0.7537518301610542
0.006654844787458061,0.7537518301610542
0.006654844787458061,0.754300878477306
0.006664920252692668,0.754300878477306
0.006664920252692668,0.7544838945827232
0.006674995717927275,0.7544838945827232
0.006674995717927275,0.7547584187408491
0.006680033450544579,0.7547584187408491
0.006680033450544579,0.7549414348462665
0.006685071183161882,0.7549414348462665
0.006685071183161882,0.7553074670571011
0.006700184381013793,0.7553074670571011
0.006700184381013793,0.7553989751098097
0.006705222113631097,0.7553989751098097
0.006705222113631097,0.7554904831625183
0.006710259846248401,0.7554904831625183
0.006710259846248401,0.755581991215227
0.006735448509334919,0.755581991215227
0.006735448509334919,0.7556734992679356
0.0067505617071868295,0.7556734992679356
0.0067505617071868295,0.7557650073206442
0.006780788102890651,0.7557650073206442
0.006780788102890651,0.7558565153733529
0.006795901300742562,0.7558565153733529
0.006795901300742562,0.7559480234260615
0.006805976765977169,0.7559480234260615
0.006805976765977169,0.7564970717423133
0.006816052231211776,0.7564970717423133
0.006816052231211776,0.7565885797950219
0.006831165429063687,0.7565885797950219
0.006831165429063687,0.7566800878477306
0.0068362031616809905,0.7566800878477306
0.0068362031616809905,0.7567715959004392
0.0068412408942982944,0.7567715959004392
0.0068412408942982944,0.7568631039531479
0.0068462786269155975,0.7568631039531479
0.0068462786269155975,0.7570461200585652
0.006851316359532901,0.7570461200585652
0.006851316359532901,0.7575036603221084
0.006861391824767508,0.7575036603221084
0.006861391824767508,0.757595168374817
0.006866429557384812,0.757595168374817
0.006866429557384812,0.7576866764275256
0.006876505022619419,0.7576866764275256
0.006876505022619419,0.7578696925329429
0.006906731418323241,0.7578696925329429
0.006906731418323241,0.7581442166910688
0.006931920081409759,0.7581442166910688
0.006931920081409759,0.7582357247437774
0.0069369578140270624,0.7582357247437774
0.00694703327926167,0.7582357247437774
0.00694703327926167,0.758601756954612
0.006957108744496277,0.758601756954612
0.006957108744496277,0.758876281112738
0.006972221942348188,0.758876281112738
0.006972221942348188,0.7590592972181552
0.006982297407582795,0.7590592972181552
0.006982297407582795,0.7592423133235725
0.006987335140200099,0.7592423133235725
0.006987335140200099,0.7593338213762811
0.00700244833805201,0.7593338213762811
0.00700244833805201,0.7594253294289898
0.0070074860706693136,0.7594253294289898
0.0070074860706693136,0.7595168374816984
0.007012523803286617,0.7595168374816984
0.007012523803286617,0.7598828696925329
0.007022599268521224,0.7598828696925329
0.007022599268521224,0.7605234260614934
0.007032674733755831,0.7605234260614934
0.007032674733755831,0.760614934114202
0.007042750198990438,0.760614934114202
0.007042750198990438,0.7607064421669106
0.007047787931607742,0.7607064421669106
0.007047787931607742,0.7607979502196194
0.007062901129459653,0.7607979502196194
0.007062901129459653,0.7610724743777453
0.007067938862076956,0.7610724743777453
0.007067938862076956,0.7616215226939971
0.00707297659469426,0.7616215226939971
0.00707297659469426,0.7618045387994143
0.007078014327311564,0.7618045387994143
0.007078014327311564,0.761896046852123
0.007083052059928867,0.761896046852123
0.007083052059928867,0.7619875549048316
0.0071032029903980816,0.7619875549048316
0.0071032029903980816,0.7620790629575402
0.0071082407230153855,0.7620790629575402
0.0071082407230153855,0.7621705710102489
0.0071132784556326885,0.7621705710102489
0.0071132784556326885,0.7622620790629575
0.007123353920867296,0.7622620790629575
0.007123353920867296,0.7623535871156661
0.007128391653484599,0.7623535871156661
0.007128391653484599,0.7627196193265008
0.007133429386101903,0.7627196193265008
0.007133429386101903,0.7628111273792094
0.007138467118719207,0.7628111273792094
0.007138467118719207,0.762902635431918
0.00714350485133651,0.762902635431918
0.00714350485133651,0.7632686676427526
0.007153580316571118,0.7632686676427526
0.007153580316571118,0.7633601756954612
0.007163655781805725,0.7633601756954612
0.007163655781805725,0.7634516837481699
0.00719891991012685,0.7634516837481699
0.00719891991012685,0.7635431918008785
0.0072039576427441535,0.7635431918008785
0.0072039576427441535,0.7637262079062958
0.007208995375361457,0.7637262079062958
0.007208995375361457,0.7640007320644217
0.007219070840596064,0.7640007320644217
0.007219070840596064,0.7640922401171303
0.007229146305830672,0.7640922401171303
0.007229146305830672,0.7641837481698389
0.007234184038447975,0.7641837481698389
0.007234184038447975,0.7643667642752562
0.007244259503682583,0.7643667642752562
0.007244259503682583,0.7645497803806734
0.007249297236299886,0.7645497803806734
0.007249297236299886,0.7648243045387995
0.00725433496891719,0.7648243045387995
0.00725433496891719,0.7650073206442167
0.007259372701534494,0.7650073206442167
0.007259372701534494,0.7650988286969254
0.007274485899386405,0.7650988286969254
0.007274485899386405,0.765190336749634
0.007279523632003708,0.765190336749634
0.007279523632003708,0.7652818448023426
0.007294636829855618,0.7652818448023426
0.007294636829855618,0.7656478770131772
0.007299674562472922,0.7656478770131772
0.007299674562472922,0.7657393850658858
0.007319825492942136,0.7657393850658858
0.007319825492942136,0.7658308931185944
0.007355089621263262,0.7658308931185944
0.007355089621263262,0.7659224011713031
0.007360127353880566,0.7659224011713031
0.007360127353880566,0.7660139092240117
0.0073752405517324765,0.7660139092240117
0.0073752405517324765,0.7662884333821376
0.007405466947436298,0.7662884333821376
0.007405466947436298,0.7666544655929722
0.007415542412670905,0.7666544655929722
0.007415542412670905,0.7667459736456809
0.007420580145288209,0.7667459736456809
0.007420580145288209,0.7669289897510981
0.007425617877905512,0.7669289897510981
0.007425617877905512,0.7670204978038068
0.007430655610522816,0.7670204978038068
0.007430655610522816,0.767203513909224
0.007450806540992031,0.767203513909224
0.007450806540992031,0.7672950219619327
0.0074608820062266375,0.7672950219619327
0.0074608820062266375,0.7675695461200586
0.0074659197388439414,0.7675695461200586
0.0074659197388439414,0.7676610541727672
0.0074709574714612445,0.7676610541727672
0.0074709574714612445,0.7678440702781845
0.007475995204078548,0.7678440702781845
0.007475995204078548,0.7680270863836017
0.007496146134547763,0.7680270863836017
0.007496146134547763,0.7681185944363104
0.007501183867165066,0.7681185944363104
0.007501183867165066,0.768210102489019
0.00750622159978237,0.768210102489019
0.00750622159978237,0.7684846266471449
0.007516297065016977,0.7684846266471449
0.007516297065016977,0.7685761346998536
0.007521334797634281,0.7685761346998536
0.007521334797634281,0.7687591508052709
0.007526372530251585,0.7687591508052709
0.007526372530251585,0.7688506588579795
0.007531410262868888,0.7688506588579795
0.007531410262868888,0.7689421669106882
0.0075616366585727094,0.7689421669106882
0.0075616366585727094,0.7691251830161054
0.007571712123807317,0.7691251830161054
0.007571712123807317,0.7693081991215227
0.007581787589041924,0.7693081991215227
0.007581787589041924,0.76949121522694
0.007591863054276531,0.76949121522694
0.007591863054276531,0.7695827232796486
0.007606976252128442,0.7695827232796486
0.007606976252128442,0.7696742313323572
0.007612013984745746,0.7696742313323572
0.007612013984745746,0.7697657393850659
0.007637202647832264,0.7697657393850659
0.007637202647832264,0.7698572474377745
0.0076422403804495675,0.7698572474377745
0.0076422403804495675,0.7700402635431918
0.007657353578301478,0.7700402635431918
0.007657353578301478,0.7701317715959004
0.007667429043536085,0.7701317715959004
0.007667429043536085,0.7703147877013177
0.007672466776153389,0.7703147877013177
0.007672466776153389,0.7705893118594437
0.0076875799740053,0.7705893118594437
0.0076875799740053,0.770772327964861
0.007692617706622603,0.770772327964861
0.007692617706622603,0.7709553440702782
0.007697655439239907,0.7709553440702782
0.007697655439239907,0.7710468521229868
0.007702693171857211,0.7711383601756955
0.007702693171857211,0.7713213762811127
0.007707730904474514,0.7713213762811127
0.007707730904474514,0.7714128843338214
0.0077329195675610325,0.7714128843338214
0.0077329195675610325,0.77150439238653
0.007742995032795639,0.77150439238653
0.007742995032795639,0.7718704245973645
0.007753070498030246,0.7718704245973645
0.007753070498030246,0.7719619326500732
0.007778259161116765,0.7719619326500732
0.007778259161116765,0.7724194729136163
0.007783296893734068,0.7724194729136163
0.007783296893734068,0.7725109809663251
0.007803447824203283,0.7725109809663251
0.007803447824203283,0.7726024890190337
0.00781352328943789,0.7726024890190337
0.00781352328943789,0.7726939970717424
0.007823598754672497,0.7726939970717424
0.007823598754672497,0.7728770131771596
0.0078286364872898,0.7728770131771596
0.0078286364872898,0.7729685212298683
0.007838711952524408,0.7729685212298683
0.007838711952524408,0.7730600292825769
0.007848787417759014,0.7730600292825769
0.007848787417759014,0.7732430453879942
0.007858862882993622,0.7732430453879942
0.007858862882993622,0.7734260614934114
0.007863900615610925,0.7734260614934114
0.007863900615610925,0.77351756954612
0.007873976080845533,0.77351756954612
0.007873976080845533,0.7736090775988287
0.007899164743932052,0.7736090775988287
0.007899164743932052,0.7737005856515373
0.007904202476549355,0.7737005856515373
0.007904202476549355,0.773792093704246
0.00795457980272239,0.773792093704246
0.00795457980272239,0.7738836017569546
0.007964655267956998,0.7738836017569546
0.007964655267956998,0.7742496339677891
0.007969693000574301,0.7742496339677891
0.007969693000574301,0.7743411420204978
0.007974730733191606,0.7743411420204978
0.007974730733191606,0.7744326500732065
0.007984806198426212,0.7744326500732065
0.007984806198426212,0.774798682284041
0.00799488166366082,0.774798682284041
0.00799488166366082,0.7751647144948756
0.008004957128895427,0.7751647144948756
0.008004957128895427,0.7752562225475842
0.008015032594130033,0.7752562225475842
0.008015032594130033,0.7753477306002928
0.008030145791981944,0.7753477306002928
0.008030145791981944,0.7754392386530015
0.008035183524599249,0.7754392386530015
0.008035183524599249,0.7758967789165446
0.008040221257216552,0.7758967789165446
0.008040221257216552,0.7759882869692533
0.008045258989833855,0.7759882869692533
0.008045258989833855,0.7760797950219619
0.008080523118154982,0.7760797950219619
0.008080523118154982,0.7761713030746705
0.008085560850772285,0.7761713030746705
0.008085560850772285,0.7763543191800878
0.008090598583389588,0.7763543191800878
0.008090598583389588,0.7764458272327965
0.008105711781241498,0.7764458272327965
0.008105711781241498,0.7769948755490483
0.008110749513858803,0.7769948755490483
0.008110749513858803,0.777086383601757
0.008115787246476106,0.777086383601757
0.008115787246476106,0.7771778916544656
0.008125862711710714,0.7771778916544656
0.008125862711710714,0.7776354319180088
0.008130900444328017,0.7776354319180088
0.008130900444328017,0.7779099560761347
0.008146013642179928,0.7779099560761347
0.008146013642179928,0.7781844802342606
0.008151051374797231,0.7781844802342606
0.008151051374797231,0.7784590043923866
0.008166164572649142,0.7784590043923866
0.008166164572649142,0.7785505124450952
0.00817624003788375,0.7785505124450952
0.00817624003788375,0.7786420204978038
0.008196390968352963,0.7786420204978038
0.008196390968352963,0.7789165446559297
0.008216541898822179,0.7789165446559297
0.008216541898822179,0.779099560761347
0.008226617364056785,0.779099560761347
0.008226617364056785,0.7791910688140556
0.00823165509667409,0.7791910688140556
0.00823165509667409,0.7792825768667643
0.008236692829291393,0.7792825768667643
0.008236692829291393,0.7794655929721815
0.00826188149237791,0.7794655929721815
0.00826188149237791,0.7795571010248902
0.008282032422847125,0.7795571010248902
0.008282032422847125,0.7797401171303074
0.008312258818550947,0.7797401171303074
0.008312258818550947,0.7798316251830161
0.008342485214254769,0.7798316251830161
0.008342485214254769,0.7800146412884333
0.008347522946872072,0.7800146412884333
0.008347522946872072,0.7801976573938506
0.00835759841210668,0.7801976573938506
0.00835759841210668,0.7802891654465594
0.008397900273045107,0.7802891654465594
0.008397900273045107,0.7804721815519766
0.008402938005662412,0.7804721815519766
0.008402938005662412,0.7805636896046853
0.008423088936131626,0.7805636896046853
0.008423088936131626,0.7806551976573939
0.008428126668748929,0.7806551976573939
0.008428126668748929,0.7807467057101025
0.008453315331835447,0.7807467057101025
0.008453315331835447,0.7809297218155198
0.008473466262304661,0.7809297218155198
0.008473466262304661,0.7810212298682284
0.008483541727539269,0.7810212298682284
0.008483541727539269,0.781112737920937
0.00851376812324309,0.781112737920937
0.00851376812324309,0.7814787701317716
0.008518805855860394,0.7814787701317716
0.008518805855860394,0.7815702781844802
0.008523843588477699,0.7815702781844802
0.008523843588477699,0.7816617862371888
0.008528881321095002,0.7816617862371888
0.008528881321095002,0.7817532942898975
0.008533919053712305,0.7817532942898975
0.008533919053712305,0.7818448023426061
0.008543994518946912,0.7818448023426061
0.008543994518946912,0.782119326500732
0.008549032251564215,0.782119326500732
0.008549032251564215,0.7822108345534406
0.008599409577737253,0.7822108345534406
0.008599409577737253,0.7823023426061494
0.008604447310354556,0.7823023426061494
0.008604447310354556,0.782393850658858
0.008614522775589164,0.782393850658858
0.008614522775589164,0.7825768667642753
0.008619560508206467,0.7825768667642753
0.008619560508206467,0.7826683748169839
0.00862459824082377,0.7826683748169839
0.00862459824082377,0.7827598828696926
0.008629635973441074,0.7827598828696926
0.008629635973441074,0.7828513909224012
0.008634673706058377,0.7828513909224012
0.008634673706058377,0.7829428989751098
0.00868001329961411,0.7829428989751098
0.00868001329961411,0.7831259150805271
0.008690088764848718,0.7831259150805271
0.008690088764848718,0.7833089311859444
0.00869512649746602,0.7833089311859444
0.00869512649746602,0.7834919472913616
0.008700164230083324,0.7834919472913616
0.008700164230083324,0.7835834553440703
0.008705201962700629,0.7835834553440703
0.008705201962700629,0.7836749633967789
0.008715277427935235,0.7836749633967789
0.00872031516055254,0.7836749633967789
0.00872031516055254,0.7837664714494875
0.008725352893169842,0.7837664714494875
0.008725352893169842,0.7839494875549048
0.008730390625787145,0.7839494875549048
0.008730390625787145,0.7843155197657394
0.00873542835840445,0.7843155197657394
0.00873542835840445,0.7844070278184481
0.008740466091021753,0.7844070278184481
0.008740466091021753,0.7845900439238653
0.008760617021490967,0.7845900439238653
0.008760617021490967,0.784681551976574
0.008765654754108272,0.784681551976574
0.008765654754108272,0.7848645680819912
0.008775730219342878,0.7848645680819912
0.008775730219342878,0.7850475841874085
0.008785805684577486,0.7850475841874085
0.008785805684577486,0.7851390922401171
0.008795881149812092,0.7851390922401171
0.008795881149812092,0.7852306002928258
0.008800918882429397,0.7852306002928258
0.008800918882429397,0.7853221083455344
0.008816032080281307,0.7853221083455344
0.008816032080281307,0.7855051244509517
0.008831145278133218,0.7855051244509517
0.008831145278133218,0.7855966325036603
0.008851296208602432,0.7855966325036603
0.008851296208602432,0.7858711566617862
0.00886137167383704,0.7858711566617862
0.00886137167383704,0.7859626647144948
0.008866409406454343,0.7859626647144948
0.008866409406454343,0.7860541727672035
0.00887648487168895,0.7860541727672035
0.00887648487168895,0.7862371888726208
0.008891598069540861,0.7862371888726208
0.008891598069540861,0.7864202049780381
0.008896635802158165,0.7864202049780381
0.008896635802158165,0.7866032210834554
0.008901673534775468,0.7866032210834554
0.008901673534775468,0.7867862371888726
0.008906711267392772,0.7867862371888726
0.008906711267392772,0.7869692532942899
0.008911749000010075,0.7869692532942899
0.008911749000010075,0.7870607613469985
0.008926862197861986,0.7870607613469985
0.008926862197861986,0.7873352855051244
0.008941975395713897,0.7873352855051244
0.008941975395713897,0.7876098096632503
0.00896212632618311,0.7876098096632503
0.00896212632618311,0.7877928257686676
0.008982277256652326,0.7877928257686676
0.008982277256652326,0.7878843338213762
0.00898731498926963,0.7878843338213762
0.00898731498926963,0.7881588579795022
0.008992352721886933,0.7881588579795022
0.008992352721886933,0.7882503660322109
0.00900242818712154,0.7882503660322109
0.00900242818712154,0.7883418740849195
0.009012503652356148,0.7883418740849195
0.009012503652356148,0.7884333821376281
0.009052805513294576,0.7884333821376281
0.009052805513294576,0.7888909224011713
0.00905784324591188,0.7888909224011713
0.00905784324591188,0.7893484626647145
0.009062880978529184,0.7893484626647145
0.009062880978529184,0.7895314787701317
0.009083031908998397,0.7895314787701317
0.009083031908998397,0.789714494875549
0.009098145106850308,0.789714494875549
0.009098145106850308,0.7898060029282576
0.009118296037319524,0.7898060029282576
0.009118296037319524,0.7898975109809663
0.009123333769936827,0.7898975109809663
0.009123333769936827,0.7899890190336749
0.00912837150255413,0.7899890190336749
0.00912837150255413,0.7901720351390923
0.009133409235171435,0.7901720351390923
0.009133409235171435,0.7903550512445096
0.009148522433023346,0.7903550512445096
0.009148522433023346,0.7904465592972182
0.009163635630875256,0.7904465592972182
0.009163635630875256,0.7905380673499268
0.009173711096109862,0.7905380673499268
0.009173711096109862,0.7909040995607614
0.00918378656134447,0.7909040995607614
0.00918378656134447,0.7910871156661786
0.009208975224430989,0.7910871156661786
0.009208975224430989,0.7911786237188873
0.009229126154900203,0.7911786237188873
0.009229126154900203,0.7912701317715959
0.00923920162013481,0.7912701317715959
0.00923920162013481,0.7913616398243045
0.009244239352752114,0.7913616398243045
0.009244239352752114,0.7916361639824304
0.009259352550604024,0.7916361639824304
0.009259352550604024,0.791727672035139
0.009269428015838632,0.791727672035139
0.009269428015838632,0.7920937042459737
0.009279503481073238,0.7920937042459737
0.009279503481073238,0.7921852122986823
0.009299654411542452,0.7921852122986823
0.009299654411542452,0.792276720351391
0.009304692144159757,0.792276720351391
0.009304692144159757,0.7923682284040996
0.00930972987677706,0.7923682284040996
0.00930972987677706,0.7924597364568082
0.009334918539863579,0.7924597364568082
0.009334918539863579,0.7925512445095169
0.009339956272480882,0.7925512445095169
0.009339956272480882,0.7927342606149341
0.00935003173771549,0.7927342606149341
0.00935003173771549,0.7928257686676428
0.009360107202950095,0.7928257686676428
0.009360107202950095,0.7929172767203514
0.009370182668184703,0.7929172767203514
0.009370182668184703,0.79300878477306
0.009375220400802006,0.79300878477306
0.009375220400802006,0.7931002928257687
0.009380258133419311,0.7931002928257687
0.009380258133419311,0.7931918008784773
0.009385295866036614,0.7931918008784773
0.009385295866036614,0.7932833089311859
0.009390333598653917,0.7932833089311859
0.009390333598653917,0.7934663250366032
0.009395371331271222,0.7934663250366032
0.009395371331271222,0.7935578330893118
0.009425597726975043,0.7935578330893118
0.009425597726975043,0.7936493411420205
0.009445748657444257,0.7936493411420205
0.009445748657444257,0.7937408491947291
0.00945078639006156,0.7937408491947291
0.00945078639006156,0.7939238653001464
0.009455824122678865,0.7939238653001464
0.009455824122678865,0.7941068814055637
0.009475975053148079,0.7941068814055637
0.009475975053148079,0.7941983894582724
0.009481012785765382,0.7941983894582724
0.009481012785765382,0.7945644216691069
0.009516276914086508,0.7945644216691069
0.009516276914086508,0.7946559297218155
0.009556578775024936,0.7946559297218155
0.009556578775024936,0.7947474377745242
0.009561616507642241,0.7947474377745242
0.009561616507642241,0.7950219619326501
0.009566654240259544,0.7950219619326501
0.009566654240259544,0.7951134699853587
0.009586805170728758,0.7951134699853587
0.009586805170728758,0.7952049780380673
0.009596880635963366,0.7952049780380673
0.009596880635963366,0.795296486090776
0.009606956101197973,0.795296486090776
0.009606956101197973,0.7954795021961932
0.009627107031667187,0.7954795021961932
0.009627107031667187,0.7955710102489019
0.009637182496901795,0.7955710102489019
0.009637182496901795,0.7956625183016105
0.009722823951395955,0.7956625183016105
0.009722823951395955,0.7957540263543191
0.009773201277568993,0.7957540263543191
0.009773201277568993,0.7958455344070278
0.009783276742803599,0.7958455344070278
0.009783276742803599,0.7959370424597365
0.00979838994065551,0.7959370424597365
0.00979838994065551,0.7961200585651538
0.00981350313850742,0.7961200585651538
0.00981350313850742,0.796303074670571
0.009818540871124725,0.796303074670571
0.009818540871124725,0.7964860907759883
0.009823578603742028,0.7964860907759883
0.009823578603742028,0.7965775988286969
0.009828616336359331,0.7965775988286969
0.009828616336359331,0.7966691068814056
0.009838691801593939,0.7966691068814056
0.009838691801593939,0.7967606149341142
0.009843729534211242,0.7967606149341142
0.009843729534211242,0.7968521229868228
0.009858842732063153,0.7968521229868228
0.009858842732063153,0.7969436310395315
0.009889069127766974,0.7969436310395315
0.009889069127766974,0.7970351390922401
0.009904182325618885,0.7970351390922401
0.009904182325618885,0.7972181551976574
0.009919295523470796,0.7972181551976574
0.009919295523470796,0.7974011713030746
0.009924333256088099,0.7974011713030746
0.009924333256088099,0.7974926793557833
0.009929370988705404,0.7974926793557833
0.009929370988705404,0.7976756954612005
0.009949521919174618,0.7976756954612005
0.009949521919174618,0.7978587115666179
0.00995455965179192,0.7978587115666179
0.00995455965179192,0.7981332357247438
0.009989823780113047,0.7981332357247438
0.009989823780113047,0.7982247437774525
0.010004936977964958,0.7982247437774525
0.010004936977964958,0.7983162518301611
0.010015012443199564,0.7983162518301611
0.010015012443199564,0.7984992679355783
0.010025087908434172,0.7984992679355783
0.010025087908434172,0.798590775988287
0.010080502967224512,0.798590775988287
0.010080502967224512,0.7986822840409956
0.010100653897693726,0.7986822840409956
0.010100653897693726,0.7987737920937042
0.010105691630311029,0.7987737920937042
0.010105691630311029,0.7989568081991215
0.010156068956484066,0.7989568081991215
0.010156068956484066,0.7990483162518301
0.01016110668910137,0.7990483162518301
0.01016110668910137,0.7991398243045388
0.010181257619570583,0.7991398243045388
0.010181257619570583,0.7992313323572474
0.010186295352187888,0.7992313323572474
0.010186295352187888,0.7996888726207906
0.010191333084805191,0.7996888726207906
0.010191333084805191,0.799871888726208
0.010271936806682048,0.799871888726208
0.010271936806682048,0.7999633967789166
0.010282012271916656,0.7999633967789166
0.010282012271916656,0.8000549048316252
0.010292087737151264,0.8000549048316252
0.010292087737151264,0.8001464128843339
0.010307200935003175,0.8001464128843339
0.010307200935003175,0.800603953147877
0.010312238667620478,0.800603953147877
0.010312238667620478,0.8006954612005857
0.010327351865472388,0.8006954612005857
0.010327351865472388,0.8009699853587116
0.010337427330706996,0.8009699853587116
0.010337427330706996,0.8011530014641288
0.010367653726410816,0.8011530014641288
0.010367653726410816,0.8012445095168375
0.010372691459028121,0.8012445095168375
0.010372691459028121,0.8013360175695461
0.010382766924262727,0.8013360175695461
0.010382766924262727,0.8015190336749634
0.010392842389497335,0.8015190336749634
0.010392842389497335,0.8017020497803806
0.01042810651781846,0.8017020497803806
0.01042810651781846,0.8019765739385066
0.010438181983053067,0.8019765739385066
0.010438181983053067,0.8020680819912153
0.010448257448287675,0.8020680819912153
0.010448257448287675,0.8021595900439239
0.010458332913522281,0.8021595900439239
0.010458332913522281,0.8023426061493412
0.010468408378756889,0.8023426061493412
0.010468408378756889,0.8024341142020498
0.010478483843991497,0.8024341142020498
0.010478483843991497,0.8025256222547584
0.010488559309226103,0.8025256222547584
0.010488559309226103,0.8026171303074671
0.01052382343754723,0.8026171303074671
0.01052382343754723,0.8027086383601757
0.010543974368016443,0.8027086383601757
0.010543974368016443,0.8030746705710102
0.010549012100633746,0.8030746705710102
0.010549012100633746,0.8032576866764275
0.010559087565868354,0.8032576866764275
0.010559087565868354,0.8035322108345534
0.010569163031102962,0.8035322108345534
0.010569163031102962,0.803623718887262
0.010579238496337568,0.803623718887262
0.010579238496337568,0.8037152269399708
0.010584276228954873,0.8037152269399708
0.010584276228954873,0.8038067349926794
0.010589313961572176,0.8038067349926794
0.010589313961572176,0.803898243045388
0.010634653555127908,0.803898243045388
0.010634653555127908,0.8039897510980967
0.010649766752979819,0.8039897510980967
0.010649766752979819,0.8041727672035139
0.010674955416066337,0.8041727672035139
0.010674955416066337,0.8042642752562226
0.01067999314868364,0.8042642752562226
0.01067999314868364,0.8043557833089312
0.01070518181177016,0.8043557833089312
0.01070518181177016,0.8044472913616398
0.010710219544387462,0.8044472913616398
0.010710219544387462,0.8045387994143485
0.010725332742239373,0.8045387994143485
0.010725332742239373,0.804904831625183
0.010780747801029713,0.804904831625183
0.010780747801029713,0.8050878477306003
0.010785785533647016,0.8050878477306003
0.010785785533647016,0.8053623718887262
0.010800898731498927,0.8053623718887262
0.010800898731498927,0.8055453879941434
0.01080593646411623,0.8055453879941434
0.01080593646411623,0.8056368960468521
0.010810974196733535,0.8056368960468521
0.010810974196733535,0.8059114202049781
0.010841200592437357,0.8059114202049781
0.010841200592437357,0.8060029282576867
0.010851276057671963,0.8060029282576867
0.010851276057671963,0.806185944363104
0.010866389255523873,0.806185944363104
0.010866389255523873,0.8062774524158126
0.010886540185993089,0.8062774524158126
0.010886540185993089,0.8064604685212299
0.01093187977954882,0.8064604685212299
0.01093187977954882,0.8065519765739385
0.011007445768808374,0.8065519765739385
0.011007445768808374,0.8066434846266471
0.011017521234042982,0.8066434846266471
0.011017521234042982,0.8067349926793558
0.011032634431894893,0.8067349926793558
0.011032634431894893,0.8071925329428989
0.0110427098971295,0.8071925329428989
0.0110427098971295,0.8073755490483162
0.011057823094981411,0.8073755490483162
0.011057823094981411,0.8074670571010248
0.011062860827598714,0.8074670571010248
0.011062860827598714,0.8076500732064422
0.011077974025450625,0.8076500732064422
0.011077974025450625,0.8077415812591509
0.011103162688537144,0.8077415812591509
0.011103162688537144,0.8079245973645681
0.011148502282092876,0.8079245973645681
0.011148502282092876,0.8080161054172768
0.011158577747327482,0.8080161054172768
0.011158577747327482,0.8082906295754027
0.011163615479944787,0.8082906295754027
0.011163615479944787,0.8083821376281113
0.01116865321256209,0.8083821376281113
0.01116865321256209,0.8084736456808199
0.011173690945179393,0.8084736456808199
0.011173690945179393,0.8085651537335286
0.011178728677796698,0.8085651537335286
0.011178728677796698,0.8086566617862372
0.011188804143031304,0.8086566617862372
0.011188804143031304,0.8087481698389458
0.011193841875648609,0.8087481698389458
0.011193841875648609,0.8089311859443631
0.011198879608265912,0.8089311859443631
0.011198879608265912,0.8090226939970717
0.011213992806117823,0.8090226939970717
0.011213992806117823,0.8091142020497804
0.01122406827135243,0.8091142020497804
0.01122406827135243,0.809205710102489
0.011229106003969733,0.809205710102489
0.011229106003969733,0.8093887262079063
0.011274445597525466,0.8093887262079063
0.011274445597525466,0.8094802342606149
0.011279483330142769,0.8094802342606149
0.011279483330142769,0.8096632503660323
0.011284521062760074,0.8096632503660323
0.011284521062760074,0.8097547584187409
0.01129459652799468,0.8097547584187409
0.01129459652799468,0.8099377745241582
0.011304671993229288,0.8099377745241582
0.011304671993229288,0.8100292825768668
0.01130970972584659,0.8100292825768668
0.01130970972584659,0.8101207906295754
0.011319785191081198,0.8101207906295754
0.011319785191081198,0.8102122986822841
0.011355049319402323,0.8102122986822841
0.011355049319402323,0.8103038067349927
0.011360087052019628,0.8103038067349927
0.011360087052019628,0.8103953147877013
0.01136512478463693,0.8103953147877013
0.01136512478463693,0.81048682284041
0.011370162517254234,0.81048682284041
0.011370162517254234,0.8107613469985359
0.011430615308661877,0.8107613469985359
0.011430615308661877,0.8109443631039531
0.011440690773896485,0.8109443631039531
0.011440690773896485,0.8110358711566618
0.01147595490221761,0.8110358711566618
0.01147595490221761,0.8111273792093704
0.011486030367452217,0.8111273792093704
0.011486030367452217,0.8113103953147877
0.01149106810006952,0.8113103953147877
0.01149106810006952,0.8115849194729137
0.011496105832686824,0.8115849194729137
0.011496105832686824,0.8116764275256223
0.011501143565304128,0.8116764275256223
0.011501143565304128,0.8118594436310396
0.011511219030538734,0.8118594436310396
0.011511219030538734,0.8119509516837482
0.011516256763156039,0.8119509516837482
0.011516256763156039,0.8122254758418741
0.011521294495773342,0.8122254758418741
0.011521294495773342,0.8125
0.01153136996100795,0.8125
0.01153136996100795,0.8125915080527086
0.011541445426242556,0.8125915080527086
0.011541445426242556,0.8126830161054173
0.01154648315885986,0.8126830161054173
0.01154648315885986,0.8127745241581259
0.011561596356711772,0.8127745241581259
0.011561596356711772,0.8129575402635432
0.011571671821946378,0.8129575402635432
0.011571671821946378,0.8130490483162518
0.011576709554563682,0.8130490483162518
0.011576709554563682,0.8131405563689604
0.011596860485032896,0.8131405563689604
0.011596860485032896,0.8132320644216691
0.01161701141550211,0.8132320644216691
0.01161701141550211,0.8133235724743777
0.011622049148119415,0.8133235724743777
0.011622049148119415,0.8135980966325037
0.011637162345971326,0.8135980966325037
0.011637162345971326,0.813781112737921
0.011667388741675147,0.813781112737921
0.011667388741675147,0.8138726207906296
0.011682501939527058,0.8138726207906296
0.011682501939527058,0.8140556368960469
0.011687539672144361,0.8140556368960469
0.011687539672144361,0.8141471449487555
0.011697615137378969,0.8141471449487555
0.011697615137378969,0.8142386530014641
0.011747992463552005,0.8142386530014641
0.011747992463552005,0.8144216691068814
0.011768143394021218,0.8144216691068814
0.011768143394021218,0.8146961932650073
0.01178325659187313,0.8146961932650073
0.01178325659187313,0.8147877013177159
0.011803407522342345,0.8147877013177159
0.011803407522342345,0.8148792093704246
0.011808445254959648,0.8148792093704246
0.011808445254959648,0.8149707174231332
0.011828596185428862,0.8149707174231332
0.011828596185428862,0.8150622254758418
0.011848747115898077,0.8150622254758418
0.011848747115898077,0.8151537335285505
0.011858822581132683,0.8151537335285505
0.011858822581132683,0.8152452415812591
0.011878973511601899,0.8152452415812591
0.011878973511601899,0.8155197657393851
0.011889048976836505,0.8155197657393851
0.011889048976836505,0.8156112737920937
0.011899124442071113,0.8156112737920937
0.011899124442071113,0.8158857979502196
0.011914237639923024,0.8158857979502196
0.011914237639923024,0.8159773060029283
0.011924313105157631,0.8159773060029283
0.011924313105157631,0.8160688140556369
0.011929350837774935,0.8160688140556369
0.011929350837774935,0.8161603221083455
0.011949501768244148,0.8161603221083455
0.011949501768244148,0.8164348462664714
0.011954539500861453,0.8164348462664714
0.011954539500861453,0.8165263543191801
0.011959577233478756,0.8165263543191801
0.011959577233478756,0.8167093704245973
0.011999879094417184,0.8167093704245973
0.011999879094417184,0.8168923865300146
0.0120200300248864,0.8168923865300146
0.0120200300248864,0.8169838945827232
0.012025067757503703,0.8169838945827232
0.012025067757503703,0.8170754026354319
0.012030105490121006,0.8170754026354319
0.012030105490121006,0.8173499267935578
0.012040180955355613,0.8173499267935578
0.012040180955355613,0.8174414348462665
0.012045218687972916,0.8174414348462665
0.012045218687972916,0.8176244509516838
0.012070407351059435,0.8176244509516838
0.012070407351059435,0.8177159590043924
0.012075445083676738,0.8177159590043924
0.012075445083676738,0.8178074670571011
0.012085520548911346,0.8178074670571011
0.012085520548911346,0.8178989751098097
0.012090558281528649,0.8178989751098097
0.012090558281528649,0.818081991215227
0.012100633746763257,0.818081991215227
0.012100633746763257,0.8181734992679356
0.012130860142467078,0.8181734992679356
0.012135897875084381,0.8182650073206442
0.012135897875084381,0.8183565153733529
0.012156048805553597,0.8183565153733529
0.012156048805553597,0.8184480234260615
0.0121610865381709,0.8184480234260615
0.0121610865381709,0.8185395314787701
0.01217619973602281,0.8185395314787701
0.01217619973602281,0.8186310395314788
0.012181237468640114,0.8186310395314788
0.012181237468640114,0.818814055636896
0.012196350666492025,0.818814055636896
0.012196350666492025,0.8189055636896047
0.01220138839910933,0.8189055636896047
0.01220138839910933,0.8190885797950219
0.012221539329578543,0.8190885797950219
0.012221539329578543,0.8192715959004392
0.012231614794813151,0.8192715959004392
0.012231614794813151,0.8194546120058566
0.012271916655751579,0.8194546120058566
0.012271916655751579,0.8195461200585652
0.01228702985360349,0.8195461200585652
0.01228702985360349,0.8196376281112738
0.012297105318838097,0.8196376281112738
0.012297105318838097,0.820095168374817
0.0123021430514554,0.820095168374817
0.0123021430514554,0.8201866764275256
0.012307180784072705,0.8201866764275256
0.012307180784072705,0.8204612005856515
0.012317256249307311,0.8204612005856515
0.012317256249307311,0.8205527086383602
0.012347482645011133,0.8205527086383602
0.012347482645011133,0.8207357247437774
0.012362595842863044,0.8207357247437774
0.012362595842863044,0.8208272327964861
0.012372671308097652,0.8208272327964861
0.012372671308097652,0.8209187408491947
0.01239785997118417,0.8209187408491947
0.01239785997118417,0.8210102489019033
0.012423048634270687,0.8210102489019033
0.012423048634270687,0.821101756954612
0.012438161832122598,0.821101756954612
0.012438161832122598,0.8212847730600292
0.012463350495209117,0.8212847730600292
0.012463350495209117,0.8218338213762811
0.012488539158295633,0.8218338213762811
0.012488539158295633,0.8219253294289898
0.012493576890912938,0.8219253294289898
0.012493576890912938,0.8222913616398243
0.012518765553999455,0.8222913616398243
0.012518765553999455,0.8223828696925329
0.01253891648446867,0.8223828696925329
0.01253891648446867,0.8224743777452416
0.012543954217085974,0.8224743777452416
0.012543954217085974,0.8225658857979502
0.012559067414937885,0.8225658857979502
0.012559067414937885,0.8227489019033675
0.012569142880172492,0.8227489019033675
0.012569142880172492,0.8228404099560761
0.012599369275876314,0.8228404099560761
0.012599369275876314,0.8229319180087847
0.01264974660204935,0.8229319180087847
0.01264974660204935,0.8230234260614934
0.012654784334666653,0.8230234260614934
0.012654784334666653,0.823114934114202
0.01266485979990126,0.823114934114202
0.01266485979990126,0.8232064421669106
0.012695086195605082,0.8232064421669106
0.012695086195605082,0.8232979502196194
0.012715237126074296,0.8232979502196194
0.012715237126074296,0.8234809663250366
0.0127202748586916,0.8234809663250366
0.0127202748586916,0.8237554904831625
0.012760576719630028,0.8237554904831625
0.012760576719630028,0.8238469985358712
0.012765614452247333,0.8238469985358712
0.012765614452247333,0.8240300146412884
0.012770652184864636,0.8240300146412884
0.012770652184864636,0.8241215226939971
0.012785765382716547,0.8241215226939971
0.012785765382716547,0.8242130307467057
0.01279080311533385,0.8242130307467057
0.01279080311533385,0.8243045387994143
0.012800878580568458,0.8243045387994143
0.012800878580568458,0.8244875549048316
0.01280591631318576,0.8244875549048316
0.01280591631318576,0.8245790629575402
0.012815991778420369,0.8245790629575402
0.012815991778420369,0.8247620790629575
0.012826067243654976,0.8247620790629575
0.012826067243654976,0.8248535871156661
0.01283110497627228,0.8248535871156661
0.01283110497627228,0.8249450951683748
0.012836142708889582,0.8249450951683748
0.012836142708889582,0.8250366032210834
0.012856293639358798,0.8250366032210834
0.012856293639358798,0.825128111273792
0.012866369104593404,0.825128111273792
0.012866369104593404,0.8252196193265008
0.012916746430766441,0.8252196193265008
0.012916746430766441,0.825402635431918
0.012926821896001047,0.825402635431918
0.012926821896001047,0.8254941434846267
0.012962086024322174,0.8254941434846267
0.012962086024322174,0.8255856515373353
0.012977199222174085,0.8255856515373353
0.012977199222174085,0.8257686676427526
0.01301246335049521,0.8257686676427526
0.01301246335049521,0.8258601756954612
0.013022538815729815,0.8258601756954612
0.013022538815729815,0.8259516837481699
0.013037652013581726,0.8259516837481699
0.013037652013581726,0.8260431918008785
0.01309810480498937,0.8260431918008785
0.01309810480498937,0.8261346998535871
0.01311321800284128,0.8261346998535871
0.01311321800284128,0.8262262079062958
0.013118255735458585,0.8262262079062958
0.013118255735458585,0.8263177159590044
0.013148482131162407,0.8263177159590044
0.013148482131162407,0.8265007320644217
0.013163595329014318,0.8265007320644217
0.013163595329014318,0.8267752562225475
0.01320893492257005,0.8267752562225475
0.01320893492257005,0.8268667642752562
0.013213972655187353,0.8268667642752562
0.013213972655187353,0.8269582723279648
0.013219010387804656,0.8269582723279648
0.013219010387804656,0.8271412884333821
0.013239161318273872,0.8271412884333821
0.013239161318273872,0.8272327964860908
0.013244199050891175,0.8272327964860908
0.013244199050891175,0.8273243045387995
0.013259312248743086,0.8273243045387995
0.013259312248743086,0.8274158125915081
0.013299614109681515,0.8274158125915081
0.013299614109681515,0.8275073206442167
0.013304651842298818,0.8275073206442167
0.013304651842298818,0.827690336749634
0.013329840505385337,0.827690336749634
0.013329840505385337,0.8277818448023426
0.013365104633706461,0.8277818448023426
0.013365104633706461,0.8279648609077599
0.013370142366323765,0.8279648609077599
0.013370142366323765,0.8280563689604685
0.013430595157731408,0.8280563689604685
0.013430595157731408,0.8281478770131772
0.013455783820817926,0.8281478770131772
0.013455783820817926,0.8282393850658858
0.01347593475128714,0.8282393850658858
0.01347593475128714,0.8283308931185944
0.013501123414373659,0.8283308931185944
0.013501123414373659,0.8284224011713031
0.013556538473163997,0.8284224011713031
0.013556538473163997,0.8285139092240117
0.013571651671015908,0.8285139092240117
0.013571651671015908,0.8286054172767203
0.013576689403633213,0.8286054172767203
0.013576689403633213,0.828696925329429
0.013596840334102427,0.828696925329429
0.013596840334102427,0.8288799414348462
0.01360187806671973,0.8288799414348462
0.01360187806671973,0.8289714494875549
0.013611953531954338,0.8289714494875549
0.013611953531954338,0.8293374816983895
0.01361699126457164,0.8293374816983895
0.01361699126457164,0.8294289897510981
0.013652255392892767,0.8294289897510981
0.013652255392892767,0.8295204978038068
0.01365729312551007,0.8295204978038068
0.01365729312551007,0.829703513909224
0.013672406323361981,0.829703513909224
0.013672406323361981,0.8298865300146413
0.013677444055979284,0.8298865300146413
0.013677444055979284,0.8299780380673499
0.013702632719065803,0.8299780380673499
0.013702632719065803,0.8300695461200586
0.013742934580004232,0.8300695461200586
0.013742934580004232,0.8301610541727672
0.01379834963879457,0.8301610541727672
0.01379834963879457,0.8302525622254758
0.013803387371411876,0.8302525622254758
0.013803387371411876,0.8303440702781845
0.01382353830188109,0.8303440702781845
0.01382353830188109,0.8304355783308931
0.013828576034498392,0.8304355783308931
0.013828576034498392,0.8305270863836017
0.013833613767115697,0.8305270863836017
0.013833613767115697,0.8306185944363104
0.013853764697584911,0.8306185944363104
0.013853764697584911,0.8308016105417276
0.013899104291140644,0.8308016105417276
0.013899104291140644,0.8308931185944363
0.013904142023757947,0.8308931185944363
0.013904142023757947,0.8310761346998536
0.013919255221609857,0.8310761346998536
0.013919255221609857,0.8311676427525623
0.013959557082548287,0.8311676427525623
0.013959557082548287,0.8313506588579795
0.013969632547782895,0.8313506588579795
0.013969632547782895,0.8315336749633968
0.013984745745634805,0.8315336749633968
0.013984745745634805,0.8316251830161054
0.01400489667610402,0.8316251830161054
0.01400489667610402,0.8317166910688141
0.014030085339190538,0.8317166910688141
0.014030085339190538,0.8318997071742313
0.014035123071807841,0.8318997071742313
0.014035123071807841,0.83199121522694
0.014050236269659752,0.83199121522694
0.014050236269659752,0.8320827232796486
0.01407542493274627,0.8320827232796486
0.01407542493274627,0.8321742313323572
0.014080462665363573,0.8321742313323572
0.014080462665363573,0.8322657393850659
0.01410565132845009,0.8322657393850659
0.01410565132845009,0.8323572474377745
0.014130839991536609,0.8323572474377745
0.014130839991536609,0.8324487554904831
0.014140915456771217,0.8324487554904831
0.014140915456771217,0.8325402635431918
0.01414595318938852,0.8325402635431918
0.01414595318938852,0.8326317715959004
0.014156028654623128,0.8326317715959004
0.014156028654623128,0.832723279648609
0.01416106638724043,0.832723279648609
0.01416106638724043,0.8328147877013177
0.014176179585092341,0.8328147877013177
0.014176179585092341,0.8329062957540263
0.014191292782944252,0.8329062957540263
0.014191292782944252,0.8329978038067349
0.01420136824817886,0.8329978038067349
0.01420136824817886,0.8331808199121523
0.014241670109117288,0.8331808199121523
0.014241670109117288,0.8334553440702782
0.014251745574351896,0.8334553440702782
0.014251745574351896,0.8335468521229868
0.014266858772203806,0.8335468521229868
0.014266858772203806,0.8337298682284041
0.014281971970055717,0.8337298682284041
0.014281971970055717,0.8339128843338214
0.01428700970267302,0.8339128843338214
0.01428700970267302,0.83400439238653
0.014302122900524931,0.83400439238653
0.014302122900524931,0.8340959004392386
0.014317236098376842,0.8340959004392386
0.014317236098376842,0.8342789165446559
0.014322273830994147,0.8342789165446559
0.014322273830994147,0.8343704245973645
0.01432731156361145,0.8343704245973645
0.01432731156361145,0.8344619326500732
0.014362575691932574,0.8344619326500732
0.014362575691932574,0.8345534407027818
0.014372651157167182,0.8345534407027818
0.014372651157167182,0.8346449487554904
0.014407915285488307,0.8346449487554904
0.014407915285488307,0.8347364568081991
0.014412953018105612,0.8347364568081991
0.014412953018105612,0.8349194729136163
0.014423028483340218,0.8349194729136163
0.014423028483340218,0.8350109809663251
0.014428066215957523,0.8350109809663251
0.014428066215957523,0.8351024890190337
0.014463330344278647,0.8351024890190337
0.014463330344278647,0.835285505124451
0.014483481274747861,0.835285505124451
0.014483481274747861,0.8359260614934114
0.014518745403068987,0.8359260614934114
0.014518745403068987,0.83601756954612
0.014533858600920898,0.83601756954612
0.014533858600920898,0.8361090775988287
0.01454897179877281,0.8361090775988287
0.01454897179877281,0.8362005856515373
0.014594311392328542,0.8362005856515373
0.014594311392328542,0.836292093704246
0.014614462322797755,0.836292093704246
0.014614462322797755,0.8363836017569546
0.014624537788032362,0.8363836017569546
0.014624537788032362,0.8364751098096632
0.014629575520649666,0.8364751098096632
0.014629575520649666,0.8365666178623719
0.014639650985884272,0.8365666178623719
0.014639650985884272,0.8366581259150805
0.01470514150990922,0.8366581259150805
0.01470514150990922,0.8367496339677891
0.014740405638230345,0.8367496339677891
0.014740405638230345,0.8368411420204978
0.014755518836082256,0.8368411420204978
0.014755518836082256,0.8369326500732065
