fpr,tpr
0.0,0.0
0.0,0.00018301610541727673
0.0,0.0007320644216691069
5.037732617303604e-06,0.0007320644216691069
5.037732617303604e-06,0.001281112737920937
1.0075465234607208e-05,0.001281112737920937
1.0075465234607208e-05,0.0029282576866764276
1.5113197851910811e-05,0.0029282576866764276
1.5113197851910811e-05,0.004758418740849195
2.0150930469214415e-05,0.004758418740849195
2.0150930469214415e-05,0.00613103953147877
2.518866308651802e-05,0.00613103953147877
2.518866308651802e-05,0.010431918008784773
3.0226395703821623e-05,0.010431918008784773
3.0226395703821623e-05,0.012536603221083456
3.526412832112523e-05,0.012536603221083456
3.526412832112523e-05,0.014183748169838946
4.030186093842883e-05,0.014183748169838946
4.030186093842883e-05,0.02168740849194729
4.533959355573244e-05,0.02168740849194729
4.533959355573244e-05,0.03138726207906296
5.037732617303604e-05,0.03138726207906296
5.037732617303604e-05,0.07494509516837482
5.5415058790339646e-05,0.07494509516837482
5.5415058790339646e-05,0.095900439238653
6.0452791407643246e-05,0.095900439238653
6.0452791407643246e-05,0.09654099560761346
6.549052402494685e-05,0.09654099560761346
6.549052402494685e-05,0.11484260614934114
7.052825664225046e-05,0.11484260614934114
7.052825664225046e-05,0.11859443631039532
7.556598925955406e-05,0.11859443631039532
7.556598925955406e-05,0.12728770131771597
8.060372187685766e-05,0.12728770131771597
8.060372187685766e-05,0.13030746705710103
8.564145449416126e-05,0.13030746705710103
8.564145449416126e-05,0.16160322108345535
9.067918711146488e-05,0.16160322108345535
9.067918711146488e-05,0.16279282576866763
9.571691972876848e-05,0.16279282576866763
9.571691972876848e-05,0.16535505124450953
0.00010075465234607208,0.16535505124450953
0.00010075465234607208,0.17157759882869691
0.00010075465234607208,0.1717606149341142
0.00010075465234607208,0.1822840409956076
0.00010075465234607208,0.1824670571010249
0.00010075465234607208,0.19811493411420206
0.00010579238496337569,0.19811493411420206
0.00010579238496337569,0.20671669106881405
0.00011083011758067929,0.20671669106881405
0.00011083011758067929,0.20982796486090777
0.00011586785019798289,0.20982796486090777
0.00011586785019798289,0.2253843338213763
0.00012090558281528649,0.2253843338213763
0.00012090558281528649,0.22785505124450953
0.0001259433154325901,0.22785505124450953
0.0001259433154325901,0.23316251830161056
0.0001309810480498937,0.23316251830161056
0.0001309810480498937,0.2345351390922401
0.00013601878066719732,0.2345351390922401
0.00013601878066719732,0.2366398243045388
0.00014105651328450092,0.2366398243045388
0.00014105651328450092,0.24935944363103954
0.00014609424590180452,0.24935944363103954
0.00014609424590180452,0.2514641288433382
0.00014609424590180452,0.2516471449487555
0.00014609424590180452,0.258601756954612
0.00015113197851910812,0.258601756954612
0.00015113197851910812,0.2619875549048316
0.00015616971113641172,0.2619875549048316
0.00015616971113641172,0.2626281112737921
0.00016120744375371532,0.2626281112737921
0.00016120744375371532,0.262902635431918
0.00016624517637101892,0.262902635431918
0.00016624517637101892,0.26299414348462663
0.00017128290898832252,0.26299414348462663
0.00017128290898832252,0.2654648609077599
0.00017632064160562615,0.2654648609077599
0.00017632064160562615,0.27324304538799415
0.00018135837422292975,0.27324304538799415
0.00018135837422292975,0.2745241581259151
0.00018639610684023335,0.2745241581259151
0.00018639610684023335,0.27534773060029283
0.00019143383945753695,0.27534773060029283
0.00019143383945753695,0.2843155197657394
0.00019647157207484055,0.2843155197657394
0.00019647157207484055,0.284407027818448
0.00020150930469214415,0.284407027818448
0.00020150930469214415,0.2863286969253294
0.00020654703730944775,0.2863286969253294
0.00020654703730944775,0.28806734992679356
0.00021158476992675138,0.28806734992679356
0.00021158476992675138,0.28834187408491946
0.00021662250254405498,0.28834187408491946
0.00021662250254405498,0.2907210834553441
0.00021662250254405498,0.29090409956076135
0.00021662250254405498,0.2955710102489019
0.00022166023516135858,0.2955710102489019
0.00022166023516135858,0.29758418740849196
0.00022669796777866218,0.29758418740849196
0.00022669796777866218,0.3052708638360176
0.00023173570039596578,0.3052708638360176
0.00023173570039596578,0.3134150805270864
0.00023173570039596578,0.31359809663250365
0.00023173570039596578,0.3146961932650073
0.00023677343301326938,0.3146961932650073
0.00023677343301326938,0.3163433382137628
0.00024181116563057298,0.3163433382137628
0.00024181116563057298,0.31771595900439237
0.0002468488982478766,0.31771595900439237
0.0002468488982478766,0.32174231332357245
0.0002518866308651802,0.32174231332357245
0.0002518866308651802,0.3230234260614934
0.0002569243634824838,0.3230234260614934
0.0002569243634824838,0.324396046852123
0.0002619620960997874,0.324396046852123
0.0002619620960997874,0.32668374816983897
0.000266999828717091,0.32668374816983897
0.000266999828717091,0.32750732064421667
0.0002770752939516982,0.32750732064421667
0.0002770752939516982,0.33665812591508054
0.00028211302656900184,0.33665812591508054
0.00028211302656900184,0.3374816983894583
0.0002871507591863054,0.3374816983894583
0.0002871507591863054,0.3408674963396779
0.00029218849180360904,0.3408674963396779
0.00029218849180360904,0.34141654465592974
0.0002972262244209126,0.34141654465592974
0.0002972262244209126,0.341599560761347
0.00030226395703821624,0.341599560761347
0.00030226395703821624,0.34260614934114203
0.00030226395703821624,0.3427891654465593
0.00030226395703821624,0.3461749633967789
0.0003073016896555198,0.3461749633967789
0.0003073016896555198,0.35486822840409954
0.00031233942227282344,0.35486822840409954
0.00031233942227282344,0.3568814055636896
0.00031737715489012707,0.3568814055636896
0.00031737715489012707,0.3570644216691069
0.00032241488750743065,0.3570644216691069
0.00032241488750743065,0.3658491947291362
0.00032745262012473427,0.3658491947291362
0.00032745262012473427,0.3712481698389458
0.00033249035274203785,0.3712481698389458
0.00033249035274203785,0.3761896046852123
0.00034256581797664505,0.3761896046852123
0.00034256581797664505,0.3793923865300146
0.0003476035505939487,0.3793923865300146
0.0003476035505939487,0.3857979502196193
0.0003526412832112523,0.3857979502196193
0.0003526412832112523,0.387902635431918
0.0003576790158285559,0.38799414348462663
0.0003576790158285559,0.38945827232796487
0.0003627167484458595,0.38945827232796487
0.0003627167484458595,0.3916544655929722
0.0003677544810631631,0.3916544655929722
0.0003677544810631631,0.3920204978038067
0.0003727922136804667,0.3920204978038067
0.0003727922136804667,0.3931185944363104
0.0003778299462977703,0.3931185944363104
0.0003778299462977703,0.3936676427525622
0.00038790541153237753,0.3936676427525622
0.00038790541153237753,0.39439970717423134
0.0003929431441496811,0.39439970717423134
0.0003929431441496811,0.3974194729136164
0.00039798087676698473,0.3974194729136164
0.00039798087676698473,0.39787701317715957
0.0004030186093842883,0.39787701317715957
0.0004030186093842883,0.3987005856515373
0.0004130940746188955,0.3987005856515373
0.0004130940746188955,0.3990666178623719
0.00041813180723619913,0.3990666178623719
0.00041813180723619913,0.399798682284041
0.00042316953985350276,0.399798682284041
0.00042316953985350276,0.40016471449487556
0.00042820727247080634,0.40016471449487556
0.00042820727247080634,0.400805270863836
0.00042820727247080634,0.4009882869692533
0.00042820727247080634,0.40236090775988287
0.00043828273770541354,0.40236090775988287
0.00043828273770541354,0.403092972181552
0.00044332047032271716,0.403092972181552
0.00044332047032271716,0.4040080527086384
0.00044835820294002074,0.4040080527086384
0.00044835820294002074,0.40574670571010246
0.00045339593555732436,0.40574670571010246
0.00045339593555732436,0.4060212298682284
0.00045843366817462794,0.4060212298682284
0.00045843366817462794,0.40684480234260617
0.00046347140079193157,0.40684480234260617
0.00046347140079193157,0.4078513909224012
0.0004685091334092352,0.4078513909224012
0.0004685091334092352,0.41517203513909223
0.00047354686602653877,0.41517203513909223
0.00047354686602653877,0.41562957540263545
0.00048362233126114597,0.41562957540263545
0.00048362233126114597,0.4167276720351391
0.0004886600638784495,0.4167276720351391
0.0004886600638784495,0.41736822840409954
0.0004936977964957532,0.41736822840409954
0.0004936977964957532,0.41800878477306
0.0004987355291130568,0.41800878477306
0.0004987355291130568,0.41837481698389456
0.0005037732617303604,0.41837481698389456
0.0005037732617303604,0.4207540263543192
0.000508810994347664,0.4207540263543192
0.000508810994347664,0.42331625183016103
0.0005138487269649676,0.42331625183016103
0.0005138487269649676,0.42349926793557835
0.0005188864595822712,0.42349926793557835
0.0005188864595822712,0.4253294289897511
0.0005239241921995748,0.4253294289897511
0.0005239241921995748,0.425603953147877
0.0005289619248168785,0.425603953147877
0.0005289619248168785,0.4296303074670571
0.000533999657434182,0.4296303074670571
0.000533999657434182,0.429904831625183
0.0005440751226687893,0.429904831625183
0.0005440751226687893,0.432192532942899
0.0005491128552860929,0.432192532942899
0.0005491128552860929,0.4336566617862372
0.0005541505879033964,0.4336566617862372
0.0005541505879033964,0.4359443631039531
0.0005591883205207,0.4359443631039531
0.0005591883205207,0.43704245973645683
0.0005692637857553073,0.43704245973645683
0.0005692637857553073,0.4398792093704246
0.0005743015183726108,0.4398792093704246
0.0005743015183726108,0.4419838945827233
0.0005793392509899145,0.4419838945827233
0.0005793392509899145,0.4434480234260615
0.0005843769836072181,0.4434480234260615
0.0005843769836072181,0.44500366032210836
0.0005894147162245217,0.44500366032210836
0.0005894147162245217,0.44555270863836016
0.0005944524488418252,0.44555270863836016
0.0005944524488418252,0.4472913616398243
0.0005994901814591289,0.4472913616398243
0.0005994901814591289,0.4492130307467057
0.0006045279140764325,0.4492130307467057
0.0006045279140764325,0.4496705710102489
0.0006095656466937361,0.4496705710102489
0.0006095656466937361,0.4498535871156662
0.0006146033793110396,0.4498535871156662
0.0006146033793110396,0.450402635431918
0.0006196411119283433,0.450402635431918
0.0006196411119283433,0.4507686676427526
0.0006246788445456469,0.4507686676427526
0.0006246788445456469,0.45150073206442165
0.0006297165771629505,0.45150073206442165
0.0006297165771629505,0.45287335285505126
0.0006347543097802541,0.45287335285505126
0.0006347543097802541,0.45525256222547583
0.0006397920423975577,0.45525256222547583
0.0006397920423975577,0.45717423133235724
0.0006448297750148613,0.45717423133235724
0.0006448297750148613,0.4575402635431918
0.0006498675076321649,0.4575402635431918
0.0006498675076321649,0.4583638360175695
0.0006599429728667721,0.4583638360175695
0.0006599429728667721,0.46037701317715957
0.0006649807054840757,0.46037701317715957
0.0006649807054840757,0.4605600292825769
0.0006700184381013794,0.4605600292825769
0.0006700184381013794,0.4609260614934114
0.000675056170718683,0.4609260614934114
0.000675056170718683,0.46101756954612005
0.0006800939033359865,0.46101756954612005
0.0006800939033359865,0.46284773060029283
0.0006851316359532901,0.46284773060029283
0.0006851316359532901,0.4634882869692533
0.0006901693685705938,0.4634882869692533
0.0006901693685705938,0.4636713030746706
0.0006952071011878973,0.4636713030746706
0.0006952071011878973,0.4659590043923865
0.0007002448338052009,0.4659590043923865
0.0007002448338052009,0.4667825768667643
0.0007103202990398082,0.4667825768667643
0.0007103202990398082,0.46724011713030744
0.0007153580316571118,0.46724011713030744
0.0007153580316571118,0.46733162518301613
0.0007203957642744153,0.46733162518301613
0.0007203957642744153,0.46769765739385066
0.000725433496891719,0.46769765739385066
0.000725433496891719,0.47172401171303074
0.0007304712295090226,0.47172401171303074
0.0007304712295090226,0.471907027818448
0.0007355089621263262,0.471907027818448
0.0007355089621263262,0.47199853587115664
0.0007455844273609334,0.47199853587115664
0.0007455844273609334,0.4743777452415813
0.000750622159978237,0.4743777452415813
0.000750622159978237,0.4754758418740849
0.0007556598925955406,0.4754758418740849
0.0007556598925955406,0.4760248901903367
0.0007606976252128442,0.4760248901903367
0.0007606976252128442,0.47712298682284043
0.0007657353578301478,0.47712298682284043
0.0007657353578301478,0.47776354319180087
0.0007707730904474514,0.47776354319180087
0.0007707730904474514,0.47794655929721813
0.0007758108230647551,0.47794655929721813
0.0007758108230647551,0.4780380673499268
0.0007808485556820586,0.4780380673499268
0.0007808485556820586,0.4807833089311859
0.0007858862882993622,0.4807833089311859
0.0007858862882993622,0.48087481698389456
0.0007909240209166658,0.48087481698389456
0.0007909240209166658,0.4814238653001464
0.0007959617535339695,0.4814238653001464
0.0007959617535339695,0.4816068814055637
0.000800999486151273,0.4816068814055637
0.000800999486151273,0.4820644216691069
0.0008060372187685766,0.4820644216691069
0.0008060372187685766,0.4826134699853587
0.0008110749513858803,0.4826134699853587
0.0008110749513858803,0.4828879941434846
0.0008161126840031839,0.4828879941434846
0.0008161126840031839,0.4829795021961933
0.0008211504166204874,0.4829795021961933
0.0008211504166204874,0.486090775988287
0.000826188149237791,0.486090775988287
0.000826188149237791,0.4883784773060029
0.0008362636144723983,0.4883784773060029
0.0008362636144723983,0.48975109809663253
0.0008413013470897018,0.48975109809663253
0.0008413013470897018,0.4902086383601757
0.0008463390797070055,0.4902086383601757
0.0008463390797070055,0.49030014641288433
0.0008513768123243091,0.49030014641288433
0.0008513768123243091,0.4918557833089312
0.0008564145449416127,0.4918557833089312
0.0008564145449416127,0.49295387994143486
0.0008614522775589162,0.49295387994143486
0.0008614522775589162,0.4931368960468521
0.0008664900101762199,0.4931368960468521
0.0008664900101762199,0.49350292825768666
0.0008715277427935235,0.49350292825768666
0.0008715277427935235,0.4943265007320644
0.0008765654754108271,0.4943265007320644
0.0008765654754108271,0.4946010248901903
0.0008816032080281306,0.4946010248901903
0.0008816032080281306,0.49633967789165445
0.0008866409406454343,0.49633967789165445
0.0008866409406454343,0.49670571010248904
0.0008916786732627379,0.49670571010248904
0.0008916786732627379,0.4983528550512445
0.0008967164058800415,0.4983528550512445
0.0008967164058800415,0.4988103953147877
0.0009017541384973452,0.4988103953147877
0.0009017541384973452,0.4990849194729136
0.0009118296037319523,0.4990849194729136
0.0009118296037319523,0.49945095168374815
0.0009168673363492559,0.49945095168374815
0.0009168673363492559,0.49990849194729137
0.0009219050689665596,0.49990849194729137
0.0009219050689665596,0.5022877013177159
0.0009269428015838631,0.5022877013177159
0.0009269428015838631,0.5026537335285505
0.0009319805342011667,0.5026537335285505
0.0009319805342011667,0.5028367496339677
0.0009370182668184704,0.5028367496339677
0.0009370182668184704,0.5029282576866764
0.000942055999435774,0.5029282576866764
0.000942055999435774,0.5038433382137628
0.0009470937320530775,0.5038433382137628
0.0009470937320530775,0.5042093704245973
0.0009521314646703811,0.5042093704245973
0.0009521314646703811,0.504300878477306
0.0009571691972876848,0.504300878477306
0.0009571691972876848,0.5054904831625183
0.0009622069299049884,0.5054904831625183
0.0009622069299049884,0.5061310395314788
0.0009672446625222919,0.5061310395314788
0.0009672446625222919,0.5072291361639825
0.0009823578603742028,0.5072291361639825
0.0009823578603742028,0.5078696925329429
0.0009873955929915064,0.5078696925329429
0.0009873955929915064,0.5079612005856515
0.00099243332560881,0.5079612005856515
0.00099243332560881,0.5080527086383602
0.0009974710582261136,0.5080527086383602
0.0009974710582261136,0.5092423133235725
0.0010025087908434173,0.5092423133235725
0.0010025087908434173,0.5096998535871157
0.0010075465234607207,0.5096998535871157
0.0010075465234607207,0.5102489019033675
0.0010125842560780244,0.5102489019033675
0.0010125842560780244,0.510614934114202
0.001017621988695328,0.510614934114202
0.001017621988695328,0.5109809663250366
0.0010276974539299352,0.5109809663250366
0.0010276974539299352,0.5118045387994143
0.0010327351865472387,0.5118045387994143
0.0010327351865472387,0.511896046852123
0.0010377729191645424,0.511896046852123
0.0010377729191645424,0.5124450951683748
0.001042810651781846,0.5124450951683748
0.001042810651781846,0.5130856515373353
0.0010528861170164532,0.5130856515373353
0.0010528861170164532,0.5140007320644217
0.001057923849633757,0.5140007320644217
0.001057923849633757,0.5154648609077599
0.0010629615822510604,0.5154648609077599
0.0010629615822510604,0.5163799414348462
0.001067999314868364,0.5163799414348462
0.001067999314868364,0.5168374816983895
0.0010730370474856677,0.5168374816983895
0.0010730370474856677,0.5183931185944363
0.0010831125127202749,0.5183931185944363
0.0010831125127202749,0.5185761346998536
0.0010881502453375786,0.5185761346998536
0.0010881502453375786,0.5188506588579795
0.001093187977954882,0.5188506588579795
0.001093187977954882,0.51949121522694
0.0010982257105721857,0.51949121522694
0.0010982257105721857,0.5199487554904831
0.0011083011758067929,0.5199487554904831
0.0011083011758067929,0.5206808199121523
0.0011133389084240965,0.5206808199121523
0.0011133389084240965,0.5217789165446559
0.0011183766410414,0.5217789165446559
0.0011183766410414,0.5230600292825769
0.0011234143736587037,0.5230600292825769
0.0011234143736587037,0.5231515373352855
0.0011284521062760074,0.5231515373352855
0.0011284521062760074,0.5233345534407028
0.0011334898388933108,0.5233345534407028
0.0011334898388933108,0.5246156661786238
0.0011385275715106145,0.5246156661786238
0.0011385275715106145,0.5261713030746705
0.0011435653041279182,0.5261713030746705
0.0011435653041279182,0.5267203513909224
0.0011486030367452217,0.5267203513909224
0.0011486030367452217,0.527086383601757
0.0011536407693625253,0.527086383601757
0.0011536407693625253,0.527818448023426
0.001158678501979829,0.527818448023426
0.001158678501979829,0.5282759882869692
0.0011637162345971325,0.5282759882869692
0.0011637162345971325,0.5284590043923866
0.0011687539672144362,0.5284590043923866
0.0011687539672144362,0.5286420204978038
0.0011737916998317396,0.5286420204978038
0.0011737916998317396,0.5297401171303074
0.0011788294324490433,0.5297401171303074
0.0011788294324490433,0.5300146412884333
0.001183867165066347,0.5300146412884333
0.001183867165066347,0.530106149341142
0.0011889048976836505,0.530106149341142
0.0011889048976836505,0.5306551976573939
0.0011939426303009541,0.5306551976573939
0.0011939426303009541,0.531112737920937
0.0011989803629182578,0.531112737920937
0.0011989803629182578,0.532393850658858
0.0012040180955355613,0.532393850658858
0.0012040180955355613,0.5330344070278185
0.001209055828152865,0.5330344070278185
0.001209055828152865,0.5339494875549048
0.0012140935607701687,0.5339494875549048
0.0012140935607701687,0.5344985358711567
0.0012191312933874721,0.5344985358711567
0.0012191312933874721,0.5355966325036603
0.0012241690260047758,0.5355966325036603
0.0012241690260047758,0.5356881405563689
0.0012292067586220793,0.5356881405563689
0.0012292067586220793,0.5363286969253295
0.0012392822238566866,0.5363286969253295
0.0012392822238566866,0.5369692532942899
0.00124431995647399,0.5369692532942899
0.00124431995647399,0.5370607613469985
0.0012493576890912938,0.5370607613469985
0.0012493576890912938,0.5372437774524158
0.0012543954217085975,0.5372437774524158
0.0012543954217085975,0.5375183016105417
0.001259433154325901,0.5375183016105417
0.001259433154325901,0.5377928257686676
0.0012644708869432046,0.5377928257686676
0.0012644708869432046,0.5379758418740849
0.0012695086195605083,0.5379758418740849
0.0012695086195605083,0.5399890190336749
0.0012745463521778118,0.5399890190336749
0.0012745463521778118,0.5419106881405563
0.0012795840847951154,0.5419106881405563
0.0012795840847951154,0.5436493411420205
0.0012846218174124191,0.5436493411420205
0.0012846218174124191,0.5451134699853587
0.0012896595500297226,0.5451134699853587
0.0012896595500297226,0.5456625183016105
0.0012946972826470263,0.5456625183016105
0.0012946972826470263,0.5470351390922401
0.0012997350152643297,0.5470351390922401
0.0012997350152643297,0.547309663250366
0.0013047727478816334,0.547309663250366
0.0013047727478816334,0.5475841874084919
0.001309810480498937,0.5475841874084919
0.001309810480498937,0.5477672035139092
0.0013198859457335442,0.5477672035139092
0.0013198859457335442,0.5478587115666179
0.001324923678350848,0.5478587115666179
0.001324923678350848,0.5511530014641288
0.0013299614109681514,0.5511530014641288
0.0013299614109681514,0.5512445095168375
0.001334999143585455,0.5512445095168375
0.001334999143585455,0.5517935578330894
0.001350112341437366,0.5517935578330894
0.001350112341437366,0.5520680819912153
0.001360187806671973,0.5520680819912153
0.001360187806671973,0.5530746705710102
0.0013702632719065802,0.5530746705710102
0.0013702632719065802,0.5538067349926794
0.0013803387371411876,0.5538067349926794
0.0013803387371411876,0.553898243045388
0.001385376469758491,0.553898243045388
0.001385376469758491,0.5555453879941434
0.0013954519349930984,0.5555453879941434
0.0013954519349930984,0.5556368960468521
0.0014055274002277055,0.5556368960468521
0.0014055274002277055,0.5557284040995608
0.0014105651328450092,0.5557284040995608
0.0014105651328450092,0.5562774524158126
0.0014156028654623127,0.5562774524158126
0.0014156028654623127,0.5563689604685212
0.0014206405980796164,0.5563689604685212
0.0014206405980796164,0.5567349926793558
0.00142567833069692,0.5567349926793558
0.00142567833069692,0.5571925329428989
0.0014307160633142235,0.5571925329428989
0.0014307160633142235,0.5575585651537335
0.0014357537959315272,0.5575585651537335
0.0014357537959315272,0.5585651537335286
0.0014458292611661343,0.5585651537335286
0.0014458292611661343,0.5586566617862372
0.001450866993783438,0.5586566617862372
0.001450866993783438,0.5587481698389458
0.0014559047264007415,0.5587481698389458
0.0014559047264007415,0.5590226939970717
0.0014609424590180452,0.5590226939970717
0.0014609424590180452,0.5593887262079063
0.0014710179242526523,0.5593887262079063
0.0014710179242526523,0.5595717423133236
0.0014810933894872597,0.5595717423133236
0.0014810933894872597,0.5602122986822841
0.0014861311221045631,0.5602122986822841
0.0014861311221045631,0.5603038067349927
0.0014911688547218668,0.5603038067349927
0.0014911688547218668,0.5608528550512445
0.0014962065873391703,0.5608528550512445
0.0014962065873391703,0.5616764275256223
0.001501244319956474,0.5616764275256223
0.001501244319956474,0.5617679355783309
0.0015062820525737776,0.5617679355783309
0.0015062820525737776,0.5625915080527086
0.0015163575178083848,0.5625915080527086
0.0015163575178083848,0.5638726207906296
0.0015213952504256885,0.5638726207906296
0.0015213952504256885,0.5642386530014641
0.001526432983042992,0.5642386530014641
0.001526432983042992,0.5657027818448024
0.0015314707156602956,0.5657027818448024
0.0015314707156602956,0.565794289897511
0.0015365084482775993,0.565794289897511
0.0015365084482775993,0.5660688140556369
0.0015465839135122064,0.5660688140556369
0.0015465839135122064,0.5662518301610542
0.0015516216461295101,0.5662518301610542
0.0015516216461295101,0.5663433382137628
0.0015566593787468136,0.5663433382137628
0.0015566593787468136,0.5664348462664714
0.0015667348439814207,0.5664348462664714
0.0015667348439814207,0.5667093704245973
0.0015717725765987244,0.5667093704245973
0.0015717725765987244,0.5673499267935578
0.001576810309216028,0.5673499267935578
0.001576810309216028,0.5675329428989752
0.0015818480418333316,0.5675329428989752
0.0015818480418333316,0.5676244509516838
0.0015868857744506353,0.5676244509516838
0.0015868857744506353,0.568081991215227
0.001591923507067939,0.568081991215227
0.001591923507067939,0.5681734992679356
0.0015969612396852424,0.5681734992679356
0.0015969612396852424,0.5690885797950219
0.001601998972302546,0.5690885797950219
0.001601998972302546,0.5703696925329429
0.0016070367049198498,0.5703696925329429
0.0016070367049198498,0.5707357247437774
0.001617112170154457,0.5707357247437774
0.001617112170154457,0.5712847730600292
0.0016221499027717606,0.5712847730600292
0.0016221499027717606,0.571376281112738
0.001627187635389064,0.571376281112738
0.001627187635389064,0.5714677891654466
0.0016372631006236712,0.5714677891654466
0.0016372631006236712,0.5720168374816984
0.0016423008332409749,0.5720168374816984
0.0016423008332409749,0.572108345534407
0.001652376298475582,0.572108345534407
0.001652376298475582,0.5722913616398243
0.0016624517637101894,0.5722913616398243
0.0016624517637101894,0.5728404099560761
0.0016725272289447965,0.5728404099560761
0.0016725272289447965,0.5730234260614934
0.0016826026941794037,0.5730234260614934
0.0016826026941794037,0.5732064421669106
0.0016876404267967074,0.5732064421669106
0.0016876404267967074,0.5739385065885798
0.001692678159414011,0.5739385065885798
0.001692678159414011,0.5740300146412884
0.0016977158920313145,0.5740300146412884
0.0016977158920313145,0.575128111273792
0.0017027536246486182,0.575128111273792
0.0017027536246486182,0.575402635431918
0.0017077913572659217,0.575402635431918
0.0017077913572659217,0.5755856515373353
0.0017128290898832253,0.5755856515373353
0.0017128290898832253,0.5761346998535871
0.0017229045551178325,0.5761346998535871
0.0017229045551178325,0.5769582723279648
0.0017279422877351362,0.5769582723279648
0.0017279422877351362,0.5771412884333821
0.0017380177529697433,0.5771412884333821
0.0017380177529697433,0.5774158125915081
0.001743055485587047,0.5774158125915081
0.001743055485587047,0.577690336749634
0.0017531309508216541,0.577690336749634
0.0017531309508216541,0.5782393850658858
0.0017632064160562613,0.5782393850658858
0.0017632064160562613,0.5783308931185944
0.001768244148673565,0.5783308931185944
0.001768244148673565,0.5786054172767203
0.0017732818812908687,0.5786054172767203
0.0017732818812908687,0.5789714494875549
0.0017783196139081721,0.5789714494875549
0.0017783196139081721,0.5792459736456809
0.0017833573465254758,0.5792459736456809
0.0017833573465254758,0.5793374816983895
0.0017883950791427795,0.5793374816983895
0.0017883950791427795,0.5795204978038068
0.001793432811760083,0.5795204978038068
0.001793432811760083,0.579703513909224
0.0017984705443773866,0.579703513909224
0.0017984705443773866,0.5798865300146413
0.0018035082769946903,0.5798865300146413
0.0018035082769946903,0.5804355783308931
0.0018085460096119938,0.5804355783308931
0.0018085460096119938,0.5806185944363104
0.0018135837422292975,0.5806185944363104
0.0018135837422292975,0.5811676427525623
0.0018186214748466011,0.5811676427525623
0.0018186214748466011,0.5816251830161054
0.0018286969400812083,0.5816251830161054
0.0018286969400812083,0.58199121522694
0.0018337346726985118,0.58199121522694
0.0018337346726985118,0.582723279648609
0.0018387724053158154,0.582723279648609
0.0018387724053158154,0.5829062957540263
0.00185892333578503,0.5829062957540263
0.00185892333578503,0.5836383601756955
0.0018639610684023334,0.5836383601756955
0.0018639610684023334,0.5851024890190337
0.0018740365336369408,0.5851024890190337
0.0018740365336369408,0.5854685212298683
0.0018790742662542442,0.5854685212298683
0.0018790742662542442,0.5857430453879942
0.001884111998871548,0.5857430453879942
0.001884111998871548,0.5862005856515373
0.0018891497314888516,0.5862005856515373
0.0018891497314888516,0.586292093704246
0.0018992251967234587,0.586292093704246
0.0018992251967234587,0.5868411420204978
0.0019042629293407622,0.5868411420204978
0.0019042629293407622,0.5872071742313324
0.001909300661958066,0.5872071742313324
0.001909300661958066,0.5878477306002928
0.0019143383945753696,0.5878477306002928
0.0019143383945753696,0.5879392386530015
0.001919376127192673,0.5879392386530015
0.001919376127192673,0.5880307467057101
0.0019244138598099767,0.5880307467057101
0.0019244138598099767,0.5882137628111274
0.0019294515924272804,0.5882137628111274
0.0019294515924272804,0.5887628111273792
0.0019344893250445839,0.5887628111273792
0.0019344893250445839,0.5888543191800878
0.0019395270576618876,0.5888543191800878
0.0019395270576618876,0.5891288433382138
0.0019445647902791912,0.5891288433382138
0.0019445647902791912,0.589586383601757
0.0019496025228964947,0.589586383601757
0.0019496025228964947,0.5906844802342606
0.001954640255513798,0.5906844802342606
0.001954640255513798,0.5908674963396779
0.001959677988131102,0.5908674963396779
0.001959677988131102,0.5910505124450952
0.0019647157207484055,0.5910505124450952
0.0019647157207484055,0.5911420204978038
0.001969753453365709,0.5911420204978038
0.001969753453365709,0.5933382137628112
0.001974791185983013,0.5933382137628112
0.001974791185983013,0.5940702781844802
0.00198486665121762,0.5940702781844802
0.00198486665121762,0.5941617862371888
0.001994942116452227,0.5941617862371888
0.001994942116452227,0.5942532942898975
0.0019999798490695306,0.5942532942898975
0.0019999798490695306,0.5948023426061494
0.0020050175816868345,0.5948023426061494
0.0020050175816868345,0.594893850658858
0.0020150930469214415,0.594893850658858
0.0020150930469214415,0.5959919472913616
0.0020201307795387454,0.5959919472913616
0.0020201307795387454,0.5964494875549048
0.0020302062447733523,0.5964494875549048
0.0020302062447733523,0.5966325036603221
0.002035243977390656,0.5966325036603221
0.002035243977390656,0.5969070278184481
0.0020402817100079597,0.5969070278184481
0.0020402817100079597,0.5969985358711567
0.002045319442625263,0.5969985358711567
0.002045319442625263,0.5970900439238653
0.002050357175242567,0.5970900439238653
0.002050357175242567,0.5974560761346999
0.0020553949078598705,0.5974560761346999
0.0020553949078598705,0.5980051244509517
0.002060432640477174,0.5980051244509517
0.002060432640477174,0.5990117130307467
0.0020654703730944774,0.5990117130307467
0.0020654703730944774,0.5993777452415813
0.0020705081057117813,0.5993777452415813
0.0020705081057117813,0.5994692532942899
0.002075545838329085,0.5994692532942899
0.002075545838329085,0.5996522693997072
0.0020805835709463883,0.5996522693997072
0.0020805835709463883,0.6000183016105417
0.002085621303563692,0.6000183016105417
0.002085621303563692,0.6003843338213762
0.0020906590361809956,0.6003843338213762
0.0020906590361809956,0.6005673499267935
0.002095696768798299,0.6005673499267935
0.002095696768798299,0.6006588579795022
0.0021057722340329064,0.6006588579795022
0.0021057722340329064,0.6008418740849195
0.00211080996665021,0.6008418740849195
0.00211080996665021,0.6011163982430454
0.002115847699267514,0.6011163982430454
0.002115847699267514,0.6012994143484627
0.0021208854318848173,0.6012994143484627
0.0021208854318848173,0.6018484626647145
0.0021259231645021207,0.6018484626647145
0.0021259231645021207,0.6019399707174231
0.0021309608971194246,0.6019399707174231
0.0021309608971194246,0.602214494875549
0.002135998629736728,0.602214494875549
0.002135998629736728,0.6023975109809663
0.0021410363623540316,0.6023975109809663
0.0021410363623540316,0.6024890190336749
0.0021611872928232463,0.6024890190336749
0.0021611872928232463,0.6025805270863837
0.0021662250254405498,0.6025805270863837
0.0021662250254405498,0.6026720351390923
0.002176300490675157,0.6026720351390923
0.002176300490675157,0.6038616398243045
0.0021813382232924606,0.6038616398243045
0.0021813382232924606,0.6040446559297218
0.0021964514211443714,0.6040446559297218
0.0021964514211443714,0.6044106881405563
0.002201489153761675,0.6044106881405563
0.002201489153761675,0.6046852122986823
0.0022065268863789783,0.6046852122986823
0.0022065268863789783,0.604776720351391
0.0022115646189962822,0.604776720351391
0.0022115646189962822,0.6048682284040996
0.0022166023516135857,0.6048682284040996
0.0022166023516135857,0.6050512445095169
0.002221640084230889,0.6050512445095169
0.002221640084230889,0.6052342606149341
0.002226677816848193,0.6052342606149341
0.002226677816848193,0.6056002928257687
0.0022317155494654965,0.6056002928257687
0.0022317155494654965,0.6059663250366032
0.0022367532820828,0.6059663250366032
0.0022367532820828,0.6064238653001464
0.0022468287473174074,0.6064238653001464
0.0022468287473174074,0.6066068814055637
0.002251866479934711,0.6066068814055637
0.002251866479934711,0.6073389458272328
0.002261941945169318,0.6073389458272328
0.002261941945169318,0.6075219619326501
0.0022669796777866217,0.6075219619326501
0.0022669796777866217,0.6079795021961932
0.0022720174104039256,0.6079795021961932
0.0022720174104039256,0.6082540263543191
0.0022871306082558364,0.6082540263543191
0.0022871306082558364,0.6084370424597365
0.0022972060734904433,0.6084370424597365
0.0022972060734904433,0.6094436310395315
0.0023022438061077472,0.6094436310395315
0.0023022438061077472,0.6097181551976574
0.0023072815387250507,0.6097181551976574
0.0023072815387250507,0.609809663250366
0.0023223947365769615,0.609809663250366
0.0023223947365769615,0.6099011713030746
0.002327432469194265,0.6099011713030746
0.002327432469194265,0.6101756954612005
0.0023324702018115684,0.6101756954612005
0.0023324702018115684,0.6106332357247438
0.0023475833996634793,0.6106332357247438
0.0023475833996634793,0.6109992679355783
0.002352621132280783,0.6109992679355783
0.002352621132280783,0.6113653001464129
0.0023727720627499975,0.6113653001464129
0.0023727720627499975,0.6114568081991215
0.002377809795367301,0.6114568081991215
0.002377809795367301,0.6115483162518301
0.002382847527984605,0.6115483162518301
0.002382847527984605,0.611822840409956
0.002402998458453819,0.611822840409956
0.002402998458453819,0.6119143484626647
0.0024080361910711226,0.6119143484626647
0.0024080361910711226,0.6120058565153733
0.0024130739236884265,0.6120058565153733
0.0024130739236884265,0.6121888726207906
0.0024231493889230334,0.6121888726207906
0.0024231493889230334,0.612371888726208
0.0024332248541576408,0.612371888726208
0.0024332248541576408,0.6124633967789166
0.0024382625867749442,0.6124633967789166
0.0024382625867749442,0.6128294289897511
0.002443300319392248,0.6128294289897511
0.002443300319392248,0.6131954612005857
0.0024483380520095516,0.6131954612005857
0.0024483380520095516,0.6132869692532943
0.002453375784626855,0.6132869692532943
0.002453375784626855,0.6134699853587116
0.0024584135172441585,0.6134699853587116
0.0024584135172441585,0.6136530014641288
0.0024634512498614624,0.6136530014641288
0.0024634512498614624,0.6138360175695461
0.002468488982478766,0.6138360175695461
0.002468488982478766,0.6139275256222547
0.0024735267150960694,0.6139275256222547
0.0024735267150960694,0.614110541727672
0.0024836021803306767,0.614110541727672
0.0024836021803306767,0.6142020497803806
0.00248863991294798,0.6142020497803806
0.00248863991294798,0.6142935578330894
0.0024987153781825876,0.6142935578330894
0.0024987153781825876,0.6147510980966325
0.002508790843417195,0.6147510980966325
0.002508790843417195,0.6153001464128843
0.0025138285760344984,0.6153001464128843
0.0025138285760344984,0.6157576866764275
0.002518866308651802,0.6157576866764275
0.002518866308651802,0.6158491947291361
0.0025239040412691057,0.6158491947291361
0.0025239040412691057,0.616123718887262
0.002528941773886409,0.616123718887262
0.002528941773886409,0.6170387994143485
0.0025339795065037127,0.6170387994143485
0.0025339795065037127,0.6173133235724744
0.0025390172391210166,0.6173133235724744
0.0025390172391210166,0.617404831625183
0.00254405497173832,0.617404831625183
0.00254405497173832,0.6178623718887262
0.0025490927043556235,0.6178623718887262
0.0025490927043556235,0.6182284040995608
0.0025541304369729274,0.6182284040995608
0.0025541304369729274,0.6184114202049781
0.002559168169590231,0.6184114202049781
0.002559168169590231,0.6189604685212299
0.0025642059022075343,0.6189604685212299
0.0025642059022075343,0.619418008784773
0.0025692436348248382,0.619418008784773
0.0025692436348248382,0.6195095168374817
0.0025742813674421417,0.6195095168374817
0.0025742813674421417,0.6196010248901903
0.002579319100059445,0.6196010248901903
0.002579319100059445,0.6197840409956076
0.0025893945652940525,0.6197840409956076
0.0025893945652940525,0.6203330893118595
0.002594432297911356,0.6203330893118595
0.002594432297911356,0.6205161054172768
0.0025994700305286595,0.6205161054172768
0.0025994700305286595,0.6206076134699854
0.0026045077631459634,0.6206076134699854
0.0026045077631459634,0.620699121522694
0.002609545495763267,0.620699121522694
0.002609545495763267,0.6207906295754027
0.0026145832283805703,0.6207906295754027
0.0026145832283805703,0.6212481698389458
0.0026246586936151776,0.6212481698389458
0.0026246586936151776,0.6213396778916545
0.002629696426232481,0.6213396778916545
0.002629696426232481,0.6218887262079063
0.002634734158849785,0.6218887262079063
0.002634734158849785,0.6222547584187409
0.0026397718914670885,0.6222547584187409
0.0026397718914670885,0.6227122986822841
0.0026649605545536067,0.6227122986822841
0.0026649605545536067,0.6228953147877013
0.00266999828717091,0.6228953147877013
0.00266999828717091,0.6230783308931186
0.0026750360197882136,0.6230783308931186
0.0026750360197882136,0.6232613469985359
0.002685111485022821,0.6232613469985359
0.002685111485022821,0.6233528550512445
0.0026951869502574283,0.6233528550512445
0.0026951869502574283,0.6236273792093704
0.0027304510785785534,0.6236273792093704
0.0027304510785785534,0.6241764275256223
0.0027405265438131604,0.6241764275256223
0.0027405265438131604,0.6245424597364568
0.0027455642764304643,0.6245424597364568
0.0027455642764304643,0.6247254758418741
0.002755639741665071,0.6247254758418741
0.002755639741665071,0.6250915080527086
0.002760677474282375,0.6250915080527086
0.002760677474282375,0.6251830161054173
0.0027657152068996786,0.6251830161054173
0.0027657152068996786,0.6254575402635432
0.002770752939516982,0.6254575402635432
0.002770752939516982,0.6257320644216691
0.002775790672134286,0.6257320644216691
0.002775790672134286,0.6261896046852123
0.0027808284047515894,0.6261896046852123
0.0027808284047515894,0.626281112737921
0.002785866137368893,0.626281112737921
0.002785866137368893,0.6263726207906296
0.0027909038699861968,0.6263726207906296
0.0027909038699861968,0.6264641288433382
0.0027959416026035002,0.6264641288433382
0.0027959416026035002,0.6267386530014641
0.0028060170678381076,0.6267386530014641
0.0028060170678381076,0.6274707174231332
0.002811054800455411,0.6274707174231332
0.002811054800455411,0.6276537335285505
0.0028160925330727145,0.6276537335285505
0.0028160925330727145,0.628294289897511
0.0028211302656900184,0.628294289897511
0.0028211302656900184,0.6285688140556369
0.0028312057309246253,0.6285688140556369
0.0028312057309246253,0.6288433382137628
0.0028362434635419292,0.6288433382137628
0.0028362434635419292,0.6290263543191801
0.0028412811961592327,0.6290263543191801
0.0028412811961592327,0.6291178623718887
0.00285135666139384,0.6291178623718887
0.00285135666139384,0.6303074670571011
0.002861432126628447,0.6303074670571011
0.002861432126628447,0.630581991215227
0.0028715075918630544,0.630581991215227
0.0028715075918630544,0.6306734992679356
0.002876545324480358,0.6306734992679356
0.002876545324480358,0.6307650073206442
0.0028815830570976613,0.6307650073206442
0.0028815830570976613,0.6309480234260615
0.0028916585223322687,0.6309480234260615
0.0028916585223322687,0.6310395314787701
0.002896696254949572,0.6310395314787701
0.002896696254949572,0.6317715959004392
0.0029067717201841795,0.6317715959004392
0.0029067717201841795,0.6318631039531479
0.002916847185418787,0.6318631039531479
0.002916847185418787,0.6321376281112738
0.0029218849180360903,0.6321376281112738
0.0029218849180360903,0.6326866764275256
0.0029269226506533938,0.6326866764275256
0.0029269226506533938,0.6329612005856515
0.0029319603832706977,0.6329612005856515
0.0029319603832706977,0.6330527086383602
0.002936998115888001,0.6330527086383602
0.002936998115888001,0.6333272327964861
0.0029420358485053046,0.6333272327964861
0.0029420358485053046,0.6335102489019033
0.0029470735811226085,0.6335102489019033
0.0029470735811226085,0.6346998535871157
0.002952111313739912,0.6346998535871157
0.002952111313739912,0.6347913616398243
0.0029571490463572154,0.6347913616398243
0.0029571490463572154,0.6349743777452416
0.0029621867789745193,0.6349743777452416
0.0029621867789745193,0.6351573938506588
0.002967224511591823,0.6351573938506588
0.002967224511591823,0.6359809663250366
0.0029722622442091263,0.6359809663250366
0.0029722622442091263,0.6362554904831625
0.00297729997682643,0.6362554904831625
0.00297729997682643,0.6367130307467057
0.002987375442061037,0.6367130307467057
0.002987375442061037,0.6372620790629575
0.0029924131746783406,0.6372620790629575
0.0029924131746783406,0.6373535871156661
0.0030075263725302514,0.6373535871156661
0.0030075263725302514,0.6374450951683748
0.0030125641051475553,0.6374450951683748
0.0030125641051475553,0.6375366032210834
0.003022639570382162,0.6375366032210834
0.003022639570382162,0.637628111273792
0.003027677302999466,0.637628111273792
0.003027677302999466,0.6378111273792094
0.003037752768234073,0.6378111273792094
0.003037752768234073,0.6379941434846267
0.003042790500851377,0.6379941434846267
0.003042790500851377,0.638177159590044
0.003052865966085984,0.638177159590044
0.003052865966085984,0.6386346998535871
0.0030629414313205912,0.6386346998535871
0.0030629414313205912,0.6388177159590044
0.0030679791639378947,0.6388177159590044
0.0030679791639378947,0.638909224011713
0.003078054629172502,0.638909224011713
0.003078054629172502,0.6390007320644217
0.0030881300944071094,0.6390007320644217
0.0030881300944071094,0.6390922401171303
0.003093167827024413,0.6390922401171303
0.003093167827024413,0.6391837481698389
0.0030982055596417164,0.6391837481698389
0.0030982055596417164,0.6392752562225475
0.0031032432922590203,0.6392752562225475
0.0031032432922590203,0.6397327964860908
0.0031082810248763237,0.6397327964860908
0.0031082810248763237,0.6399158125915081
0.003113318757493627,0.6399158125915081
0.003113318757493627,0.6405563689604685
0.0031233942227282346,0.6405563689604685
0.0031233942227282346,0.6406478770131772
0.003128431955345538,0.6406478770131772
0.003128431955345538,0.6411054172767203
0.0031334696879628415,0.6411054172767203
0.0031334696879628415,0.6415629575402635
0.0031385074205801454,0.6415629575402635
0.0031385074205801454,0.6416544655929722
0.0031485828858147523,0.6416544655929722
0.0031485828858147523,0.6417459736456809
0.003153620618432056,0.6417459736456809
0.003153620618432056,0.642203513909224
0.0031586583510493597,0.642203513909224
0.0031586583510493597,0.6422950219619327
0.003163696083666663,0.6422950219619327
0.003163696083666663,0.6424780380673499
0.003168733816283967,0.6424780380673499
0.003168733816283967,0.6433016105417276
0.0031737715489012705,0.6433016105417276
0.0031737715489012705,0.6435761346998536
0.003178809281518574,0.6435761346998536
0.003178809281518574,0.6436676427525623
0.003183847014135878,0.6436676427525623
0.003183847014135878,0.6441251830161054
0.0031888847467531813,0.6441251830161054
0.0031888847467531813,0.6448572474377745
0.003193922479370485,0.6448572474377745
0.003193922479370485,0.6451317715959004
0.0032090356772223956,0.6451317715959004
0.0032090356772223956,0.6454062957540263
0.0032140734098396995,0.6454062957540263
0.0032140734098396995,0.6456808199121523
0.003219111142457003,0.6456808199121523
0.003219111142457003,0.6460468521229868
0.0032291866076916103,0.6460468521229868
0.0032291866076916103,0.64650439238653
0.0032392620729262173,0.64650439238653
0.0032392620729262173,0.6466874084919473
0.003244299805543521,0.6466874084919473
0.003244299805543521,0.6467789165446559
0.0032493375381608246,0.6467789165446559
0.0032493375381608246,0.6472364568081991
0.0032493375381608246,0.6474194729136163
0.0032493375381608246,0.6479685212298683
0.003254375270778128,0.6479685212298683
0.003254375270778128,0.6480600292825769
0.0032594130033954316,0.6480600292825769
0.0032594130033954316,0.6483345534407028
0.0032644507360127355,0.6483345534407028
0.0032644507360127355,0.64851756954612
0.0032745262012473424,0.64851756954612
0.0032745262012473424,0.648792093704246
0.0032795639338646463,0.648792093704246
0.0032795639338646463,0.6488836017569546
0.0032846016664819498,0.6488836017569546
0.0032846016664819498,0.6492496339677891
0.0032896393990992532,0.6492496339677891
0.0032896393990992532,0.6496156661786238
0.003294677131716557,0.6496156661786238
0.003294677131716557,0.6499816983894583
0.003304752596951164,0.6499816983894583
0.003304752596951164,0.6500732064421669
0.003319865794803075,0.6500732064421669
0.003319865794803075,0.6504392386530015
0.003324903527420379,0.6504392386530015
0.003324903527420379,0.6507137628111274
0.0033299412600376822,0.6507137628111274
0.0033299412600376822,0.650805270863836
0.003345054457889593,0.650805270863836
0.003345054457889593,0.6508967789165446
0.0033500921905068965,0.6508967789165446
0.0033500921905068965,0.6509882869692533
0.0033551299231242004,0.6509882869692533
0.0033551299231242004,0.6510797950219619
0.0033652053883588074,0.6510797950219619
0.0033652053883588074,0.6511713030746705
0.0033702431209761113,0.6511713030746705
0.0033702431209761113,0.6513543191800878
0.0033752808535934147,0.6513543191800878
0.0033752808535934147,0.6517203513909224
0.003380318586210718,0.6517203513909224
0.003380318586210718,0.6519033674963397
0.003385356318828022,0.6519033674963397
0.003385356318828022,0.6519948755490483
0.003395431784062629,0.6519948755490483
0.003395431784062629,0.6523609077598829
0.0034004695166799325,0.6523609077598829
0.0034004695166799325,0.6529099560761347
0.0034055072492972364,0.6529099560761347
0.0034055072492972364,0.6532759882869692
0.0034155827145318433,0.6532759882869692
0.0034155827145318433,0.6533674963396779
0.0034206204471491472,0.6533674963396779
0.0034206204471491472,0.6536420204978038
0.003430695912383754,0.6536420204978038
0.003430695912383754,0.6537335285505125
0.0034407713776183615,0.6537335285505125
0.0034407713776183615,0.654099560761347
0.003445809110235665,0.654099560761347
0.003445809110235665,0.6541910688140556
0.003450846842852969,0.6541910688140556
0.003450846842852969,0.6543740849194729
0.003460922308087576,0.6543740849194729
0.003460922308087576,0.6545571010248902
0.0034659600407048797,0.6545571010248902
0.0034659600407048797,0.6549231332357247
0.0034760355059394866,0.6549231332357247
0.0034760355059394866,0.655106149341142
0.0034810732385567905,0.655106149341142
0.0034810732385567905,0.6551976573938506
0.003486110971174094,0.6551976573938506
0.003486110971174094,0.6552891654465594
0.0034911487037913975,0.6552891654465594
0.0034911487037913975,0.6555636896046853
0.0034961864364087014,0.6555636896046853
0.0034961864364087014,0.6557467057101025
0.003501224169026005,0.6557467057101025
0.003501224169026005,0.6558382137628112
0.0035062619016433083,0.6558382137628112
0.0035062619016433083,0.656112737920937
0.003511299634260612,0.656112737920937
0.003511299634260612,0.656387262079063
0.003521375099495219,0.656387262079063
0.003521375099495219,0.6566617862371888
0.0035264128321125226,0.6566617862371888
0.0035264128321125226,0.6575768667642753
0.0035415260299644334,0.6575768667642753
0.0035415260299644334,0.6579428989751098
0.0035465637625817373,0.6579428989751098
0.0035465637625817373,0.6585834553440703
0.0035566392278163442,0.6585834553440703
0.0035566392278163442,0.6587664714494875
0.0035667146930509516,0.6587664714494875
0.0035667146930509516,0.6588579795021962
0.003571752425668255,0.6588579795021962
0.003571752425668255,0.6590409956076134
0.0035818278909028624,0.6590409956076134
0.0035818278909028624,0.6591325036603221
0.003586865623520166,0.6591325036603221
0.003586865623520166,0.6592240117130308
0.0035969410887547733,0.6592240117130308
0.0035969410887547733,0.6594985358711567
0.0036019788213720767,0.6594985358711567
0.0036019788213720767,0.6595900439238653
0.0036070165539893806,0.6595900439238653
0.0036070165539893806,0.6598645680819912
0.003612054286606684,0.6598645680819912
0.003612054286606684,0.6603221083455344
0.0036170920192239876,0.6603221083455344
0.0036170920192239876,0.6608711566617862
0.0036221297518412915,0.6608711566617862
0.0036221297518412915,0.6609626647144948
0.003627167484458595,0.6609626647144948
0.003627167484458595,0.6612371888726208
0.0036372429496932023,0.6612371888726208
0.0036372429496932023,0.6613286969253295
0.003647318414927809,0.6613286969253295
0.003647318414927809,0.6615117130307467
0.003652356147545113,0.6615117130307467
0.003652356147545113,0.6616032210834554
0.0036573938801624166,0.6616032210834554
0.0036573938801624166,0.6618777452415813
0.00366243161277972,0.6618777452415813
0.00366243161277972,0.6621522693997072
0.0036674693453970235,0.6621522693997072
0.0036674693453970235,0.6622437774524158
0.0036725070780143274,0.6622437774524158
0.0036725070780143274,0.6624267935578331
0.003677544810631631,0.6624267935578331
0.003677544810631631,0.662701317715959
0.0036876202758662382,0.662701317715959
0.0036876202758662382,0.6627928257686676
0.0037077712063354525,0.6627928257686676
0.0037077712063354525,0.6630673499267935
0.003712808938952756,0.6630673499267935
0.003712808938952756,0.6631588579795022
0.00371784667157006,0.6631588579795022
0.00371784667157006,0.6632503660322109
0.0037228844041873634,0.6632503660322109
0.0037228844041873634,0.6635248901903368
0.003727922136804667,0.6635248901903368
0.003727922136804667,0.66398243045388
0.0037329598694219707,0.66398243045388
0.0037329598694219707,0.6643484626647145
0.0037430353346565776,0.6643484626647145
0.0037430353346565776,0.6646229868228404
0.003753110799891185,0.6646229868228404
0.003753110799891185,0.6648060029282576
0.0037581485325084885,0.6648060029282576
0.0037581485325084885,0.6649890190336749
0.003768223997743096,0.6649890190336749
0.003768223997743096,0.6652635431918009
0.003778299462977703,0.6652635431918009
0.003778299462977703,0.6656295754026355
0.0037833371955950067,0.6656295754026355
0.0037833371955950067,0.6660871156661786
0.00378837492821231,0.6660871156661786
0.00378837492821231,0.667276720351391
0.0037934126608296136,0.667276720351391
0.0037934126608296136,0.6676427525622255
0.003803488126064221,0.6676427525622255
0.003803488126064221,0.66800878477306
0.0038085258586815244,0.66800878477306
0.0038085258586815244,0.6681918008784773
0.0038135635912988283,0.6681918008784773
0.0038135635912988283,0.6684663250366032
0.0038236390565334353,0.6684663250366032
0.0038236390565334353,0.6685578330893118
0.00384378998700265,0.6685578330893118
0.00384378998700265,0.6686493411420205
0.0038488277196199534,0.6686493411420205
0.0038488277196199534,0.6687408491947291
0.003853865452237257,0.6687408491947291
0.003853865452237257,0.6691983894582724
0.003858903184854561,0.6691983894582724
0.003858903184854561,0.6694729136163983
0.0038689786500891677,0.6694729136163983
0.0038689786500891677,0.6698389458272328
0.0038740163827064716,0.6698389458272328
0.0038740163827064716,0.6708455344070278
0.003894167313175686,0.6708455344070278
0.003894167313175686,0.6709370424597365
0.0039042427784102933,0.6709370424597365
0.0039042427784102933,0.671303074670571
0.003909280511027596,0.671303074670571
0.003909280511027596,0.6713945827232797
0.0039143182436449,0.6713945827232797
0.0039143182436449,0.6724011713030746
0.003919355976262204,0.6724011713030746
0.003919355976262204,0.6724926793557833
0.003929431441496811,0.6724926793557833
0.003929431441496811,0.6726756954612005
0.003934469174114115,0.6726756954612005
0.003934469174114115,0.6729502196193266
0.003944544639348722,0.6729502196193266
0.003944544639348722,0.6731332357247438
0.003949582371966026,0.6731332357247438
0.003949582371966026,0.673590775988287
0.003959657837200633,0.673590775988287
0.003959657837200633,0.6736822840409956
0.0039747710350525435,0.6736822840409956
0.0039747710350525435,0.6738653001464129
0.0039798087676698474,0.6738653001464129
0.0039798087676698474,0.6739568081991215
0.003989884232904454,0.6739568081991215
0.003989884232904454,0.6742313323572474
0.004004997430756365,0.6742313323572474
0.004004997430756365,0.674322840409956
0.004010035163373669,0.674322840409956
0.004010035163373669,0.6750549048316252
0.004015072895990972,0.6750549048316252
0.004015072895990972,0.675603953147877
0.00402514836122558,0.675603953147877
0.00402514836122558,0.6758784773060029
0.004030186093842883,0.6758784773060029
0.004030186093842883,0.6760614934114202
0.004035223826460187,0.6760614934114202
0.004035223826460187,0.6763360175695461
0.004045299291694794,0.6763360175695461
0.004045299291694794,0.6765190336749634
0.0040654502221640085,0.6765190336749634
0.0040654502221640085,0.676610541727672
0.0040755256873986154,0.676610541727672
0.0040755256873986154,0.6767935578330894
0.004080563420015919,0.6767935578330894
0.004080563420015919,0.6773426061493412
0.00409567661786783,0.6773426061493412
0.00409567661786783,0.6774341142020498
0.004100714350485134,0.6774341142020498
0.004100714350485134,0.677891654465593
0.004110789815719741,0.677891654465593
0.004110789815719741,0.6781661786237189
0.004115827548337045,0.6781661786237189
0.004115827548337045,0.6785322108345534
0.004120865280954348,0.6785322108345534
0.004120865280954348,0.678898243045388
0.004130940746188955,0.678898243045388
0.004130940746188955,0.6789897510980967
0.004135978478806259,0.6789897510980967
0.004135978478806259,0.6791727672035139
0.004141016211423563,0.6791727672035139
0.004141016211423563,0.6796303074670571
0.004146053944040866,0.6796303074670571
0.004146053944040866,0.6797218155197657
0.00415109167665817,0.6797218155197657
0.00415109167665817,0.679904831625183
0.0041561294092754735,0.679904831625183
0.0041561294092754735,0.6800878477306003
0.00416620487451008,0.6800878477306003
0.00416620487451008,0.6803623718887262
0.004171242607127384,0.6803623718887262
0.004171242607127384,0.6804538799414348
0.004176280339744687,0.6804538799414348
0.004176280339744687,0.6806368960468521
0.004181318072361991,0.6806368960468521
0.004181318072361991,0.6813689604685212
0.004186355804979295,0.6813689604685212
0.004186355804979295,0.6816434846266471
0.004191393537596598,0.6816434846266471
0.004191393537596598,0.6818265007320644
0.004201469002831206,0.6818265007320644
0.004201469002831206,0.6821925329428989
0.004206506735448509,0.6821925329428989
0.004206506735448509,0.6827415812591509
0.004211544468065813,0.6827415812591509
0.004211544468065813,0.6829245973645681
0.004216582200683117,0.6829245973645681
0.004216582200683117,0.683199121522694
0.00422161993330042,0.683199121522694
0.00422161993330042,0.6837481698389458
0.004226657665917724,0.6837481698389458
0.004226657665917724,0.6840226939970717
0.0042468085963869385,0.6840226939970717
0.0042468085963869385,0.6844802342606149
0.0042518463290042415,0.6844802342606149
0.0042518463290042415,0.6847547584187409
0.004256884061621545,0.6847547584187409
0.004256884061621545,0.6849377745241582
0.00427703499209076,0.6849377745241582
0.00427703499209076,0.6850292825768668
0.004287110457325367,0.6850292825768668
0.004287110457325367,0.6851207906295754
0.004292148189942671,0.6851207906295754
0.004292148189942671,0.6853953147877013
0.004302223655177278,0.6853953147877013
0.004302223655177278,0.6856698389458272
0.004312299120411885,0.6856698389458272
0.004312299120411885,0.6859443631039531
0.004327412318263796,0.6859443631039531
0.004327412318263796,0.6860358711566618
0.004337487783498403,0.6860358711566618
0.004337487783498403,0.6861273792093704
0.00434756324873301,0.6861273792093704
0.00434756324873301,0.6865849194729137
0.004357638713967617,0.6865849194729137
0.004357638713967617,0.6866764275256223
0.004362676446584921,0.6866764275256223
0.004362676446584921,0.6869509516837482
0.004372751911819528,0.6869509516837482
0.004372751911819528,0.6872254758418741
0.004377789644436832,0.6872254758418741
0.004377789644436832,0.6873169838945827
0.004387865109671439,0.6873169838945827
0.004387865109671439,0.6875
0.004397940574906046,0.6875
0.004397940574906046,0.6875915080527086
0.00440297830752335,0.6875915080527086
0.00440297830752335,0.6877745241581259
0.004418091505375261,0.6877745241581259
0.004418091505375261,0.6878660322108345
0.004438242435844475,0.6878660322108345
0.004438242435844475,0.6880490483162518
0.004443280168461778,0.6880490483162518
0.004443280168461778,0.6885980966325037
0.004463431098930993,0.6885980966325037
0.004463431098930993,0.688781112737921
0.004488619762017511,0.688781112737921
0.004488619762017511,0.6888726207906296
0.004493657494634815,0.6888726207906296
0.004493657494634815,0.6889641288433382
0.004498695227252119,0.6889641288433382
0.004498695227252119,0.6891471449487555
0.004503732959869422,0.6891471449487555
0.004503732959869422,0.68951317715959
0.004523883890338636,0.68951317715959
0.004523883890338636,0.6896961932650073
0.00452892162295594,0.6896961932650073
0.00452892162295594,0.6897877013177159
0.004533959355573243,0.6897877013177159
0.004533959355573243,0.6898792093704246
0.004538997088190547,0.6898792093704246
0.004538997088190547,0.6899707174231332
0.004544034820807851,0.6899707174231332
0.004544034820807851,0.6902452415812591
0.004549072553425154,0.6902452415812591
0.004549072553425154,0.6905197657393851
0.004554110286042458,0.6905197657393851
0.004554110286042458,0.6909773060029283
0.004559148018659762,0.6909773060029283
0.004559148018659762,0.6911603221083455
0.004569223483894369,0.6911603221083455
0.004569223483894369,0.6917093704245973
0.004574261216511673,0.6917093704245973
0.004574261216511673,0.6921669106881405
0.00458433668174628,0.6921669106881405
0.00458433668174628,0.6926244509516838
0.004589374414363584,0.6926244509516838
0.004589374414363584,0.6927159590043924
0.0046095253448327975,0.6927159590043924
0.0046095253448327975,0.6928074670571011
0.004619600810067405,0.6928074670571011
0.004619600810067405,0.6929904831625183
0.004624638542684708,0.6929904831625183
0.004624638542684708,0.6931734992679356
0.004634714007919316,0.6931734992679356
0.004634714007919316,0.6937225475841874
0.004649827205771226,0.6937225475841874
0.004649827205771226,0.6940885797950219
0.004659902671005834,0.6940885797950219
0.004659902671005834,0.6941800878477306
0.004664940403623137,0.6941800878477306
0.004664940403623137,0.6943631039531479
0.004669978136240441,0.6943631039531479
0.004669978136240441,0.6944546120058566
0.004675015868857745,0.6944546120058566
0.004675015868857745,0.6946376281112738
0.004685091334092352,0.6946376281112738
0.004685091334092352,0.6947291361639825
0.0046901290667096555,0.6947291361639825
0.0046901290667096555,0.6948206442166911
0.0046951667993269585,0.6948206442166911
0.0046951667993269585,0.6950036603221084
0.004705242264561566,0.6950036603221084
0.004705242264561566,0.695095168374817
0.004710279997178869,0.695095168374817
0.004710279997178869,0.6953696925329429
0.004730430927648084,0.6953696925329429
0.004730430927648084,0.6956442166910688
0.004740506392882691,0.6956442166910688
0.004740506392882691,0.6958272327964861
0.004750581858117299,0.6958272327964861
0.004750581858117299,0.6960102489019033
0.004755619590734602,0.6960102489019033
0.004755619590734602,0.696101756954612
0.004770732788586513,0.696101756954612
0.004770732788586513,0.6962847730600292
0.0047808082538211205,0.6962847730600292
0.0047808082538211205,0.6965592972181552
0.004790883719055727,0.6965592972181552
0.004790883719055727,0.6969253294289898
0.004795921451673031,0.6969253294289898
0.004795921451673031,0.697108345534407
0.004800959184290334,0.697108345534407
0.004800959184290334,0.6971998535871157
0.004811034649524942,0.6971998535871157
0.004811034649524942,0.6972913616398243
0.004816072382142245,0.6972913616398243
0.004816072382142245,0.6976573938506588
0.004826147847376853,0.6976573938506588
0.004826147847376853,0.6977489019033675
0.00483622331261146,0.6977489019033675
0.00483622331261146,0.6979319180087847
0.004861411975697978,0.6979319180087847
0.004861411975697978,0.698114934114202
0.0048714874409325854,0.698114934114202
0.0048714874409325854,0.6984809663250366
0.004891638371401799,0.6984809663250366
0.004891638371401799,0.6990300146412884
0.004896676104019103,0.6990300146412884
0.004896676104019103,0.6991215226939971
0.004901713836636407,0.6991215226939971
0.004901713836636407,0.6993045387994143
0.00490675156925371,0.6993045387994143
0.00490675156925371,0.7000366032210834
0.004916827034488317,0.7000366032210834
0.004916827034488317,0.700128111273792
0.004921864767105621,0.700128111273792
0.004921864767105621,0.700402635431918
0.004931940232340228,0.700402635431918
0.004931940232340228,0.7004941434846267
0.004952091162809443,0.7004941434846267
0.004952091162809443,0.7010431918008785
0.0049621666280440496,0.7010431918008785
0.0049621666280440496,0.7011346998535871
0.0049672043606613535,0.7011346998535871
0.0049672043606613535,0.7012262079062958
0.004972242093278657,0.7012262079062958
0.004972242093278657,0.7015922401171303
0.00497727982589596,0.7015922401171303
0.00497727982589596,0.7016837481698389
0.004982317558513264,0.7016837481698389
0.004982317558513264,0.7023243045387995
0.004992393023747871,0.7023243045387995
0.004992393023747871,0.7025988286969254
0.004997430756365175,0.7025988286969254
0.004997430756365175,0.7028733528550513
0.005002468488982479,0.7028733528550513
0.005002468488982479,0.7029648609077599
0.005012543954217086,0.7029648609077599
0.005012543954217086,0.7030563689604685
0.00501758168683439,0.7030563689604685
0.00501758168683439,0.7033308931185944
0.005022619419451693,0.7033308931185944
0.005022619419451693,0.7035139092240117
0.005027657152068997,0.7035139092240117
0.005027657152068997,0.7036054172767203
0.005032694884686301,0.7036054172767203
0.005032694884686301,0.7038799414348462
0.005037732617303604,0.7038799414348462
0.005037732617303604,0.7040629575402635
0.005042770349920908,0.7040629575402635
0.005042770349920908,0.7042459736456809
0.005062921280390122,0.7042459736456809
0.005062921280390122,0.7044289897510981
0.005067959013007425,0.7044289897510981
0.005067959013007425,0.7046120058565154
0.005078034478242033,0.7046120058565154
0.005078034478242033,0.704703513909224
0.005083072210859336,0.704703513909224
0.005083072210859336,0.7047950219619327
0.005093147676093944,0.7047950219619327
0.005093147676093944,0.7048865300146413
0.005098185408711247,0.7048865300146413
0.005098185408711247,0.7050695461200586
0.005103223141328551,0.7050695461200586
0.005103223141328551,0.7051610541727672
0.005113298606563158,0.7051610541727672
0.005113298606563158,0.7053440702781845
0.005118336339180462,0.7053440702781845
0.005118336339180462,0.7054355783308931
0.005128411804415069,0.7054355783308931
0.005128411804415069,0.7055270863836017
0.0051334495370323726,0.7055270863836017
0.0051334495370323726,0.7056185944363104
0.0051435250022669795,0.7056185944363104
0.0051435250022669795,0.7058931185944363
0.005148562734884283,0.7058931185944363
0.005148562734884283,0.7059846266471449
0.005153600467501587,0.7059846266471449
0.005153600467501587,0.7062591508052709
0.005163675932736194,0.7062591508052709
0.005163675932736194,0.7066251830161054
0.005178789130588105,0.7066251830161054
0.005178789130588105,0.70699121522694
0.005188864595822712,0.70699121522694
0.005188864595822712,0.7071742313323572
0.005193902328440016,0.7071742313323572
0.005193902328440016,0.7073572474377745
0.005203977793674623,0.7073572474377745
0.005203977793674623,0.7074487554904831
0.005209015526291927,0.7074487554904831
0.005209015526291927,0.7075402635431918
0.00521405325890923,0.7075402635431918
0.00521405325890923,0.707723279648609
0.0052241287241438375,0.707723279648609
0.0052241287241438375,0.7078147877013177
0.0052291664567611406,0.7078147877013177
0.0052291664567611406,0.7080893118594437
0.005254355119847659,0.7080893118594437
0.005254355119847659,0.7081808199121523
0.005259392852464962,0.7081808199121523
0.005259392852464962,0.7085468521229868
0.005274506050316873,0.7085468521229868
0.005274506050316873,0.7091874084919473
0.005284581515551481,0.7091874084919473
0.005284581515551481,0.7093704245973645
0.005289619248168784,0.7093704245973645
0.005289619248168784,0.7096449487554904
0.005294656980786088,0.7096449487554904
0.005294656980786088,0.7098279648609077
0.005299694713403392,0.7098279648609077
0.005299694713403392,0.7100109809663251
0.0053198456438726055,0.7100109809663251
0.0053198456438726055,0.7107430453879942
0.005329921109107213,0.7107430453879942
0.005329921109107213,0.7112005856515373
0.005334958841724516,0.7112005856515373
0.005334958841724516,0.711292093704246
0.005350072039576427,0.711292093704246
0.005350072039576427,0.7113836017569546
0.005370222970045642,0.7113836017569546
0.005370222970045642,0.7114751098096632
0.005375260702662946,0.7114751098096632
0.005375260702662946,0.7116581259150805
0.005380298435280249,0.7116581259150805
0.005380298435280249,0.7118411420204978
0.005385336167897553,0.7118411420204978
0.005385336167897553,0.7122071742313324
0.005400449365749464,0.7122071742313324
0.005400449365749464,0.7123901903367497
0.005415562563601374,0.7123901903367497
0.005415562563601374,0.7125732064421669
0.005430675761453285,0.7125732064421669
0.005430675761453285,0.7130307467057101
0.005440751226687892,0.7130307467057101
0.005440751226687892,0.7132137628111274
0.005445788959305196,0.7132137628111274
0.005445788959305196,0.7133967789165446
0.005450826691922499,0.7133967789165446
0.005450826691922499,0.7137628111273792
0.005460902157157107,0.7137628111273792
0.005460902157157107,0.7138543191800878
0.00546593988977441,0.7138543191800878
0.00546593988977441,0.7143118594436311
0.005481053087626321,0.7143118594436311
0.005481053087626321,0.7144948755490483
0.005516317215947446,0.7144948755490483
0.005516317215947446,0.7146778916544656
0.00552135494856475,0.7146778916544656
0.00552135494856475,0.7148609077598829
0.005536468146416661,0.7148609077598829
0.005536468146416661,0.7150439238653001
0.005546543611651268,0.7150439238653001
0.005546543611651268,0.7151354319180088
0.005551581344268572,0.7151354319180088
0.005551581344268572,0.7152269399707174
0.005556619076885875,0.7152269399707174
0.005556619076885875,0.715318448023426
0.005561656809503179,0.715318448023426
0.005561656809503179,0.7155014641288433
0.00557677000735509,0.7155014641288433
0.00557677000735509,0.7156844802342606
0.0055818077399723935,0.7156844802342606
0.0055818077399723935,0.7158674963396779
0.005601958670441607,0.7158674963396779
0.005601958670441607,0.7160505124450952
0.005606996403058911,0.7160505124450952
0.005606996403058911,0.7162335285505125
0.005612034135676215,0.7162335285505125
0.005612034135676215,0.7164165446559297
0.005642260531380037,0.7164165446559297
0.005642260531380037,0.7165080527086384
0.00564729826399734,0.7165080527086384
0.00564729826399734,0.716599560761347
0.005652335996614644,0.716599560761347
0.005652335996614644,0.7167825768667643
0.0056775246597011615,0.7167825768667643
0.0056775246597011615,0.7168740849194729
0.005682562392318465,0.7168740849194729
0.005682562392318465,0.7169655929721815
0.005697675590170376,0.7169655929721815
0.005697675590170376,0.7172401171303074
0.005707751055404983,0.7172401171303074
0.005707751055404983,0.7173316251830161
0.00571782652063959,0.7173316251830161
0.00571782652063959,0.7175146412884333
0.005727901985874198,0.7175146412884333
0.005727901985874198,0.717606149341142
0.005732939718491501,0.717606149341142
0.005732939718491501,0.7176976573938506
0.005743015183726109,0.7176976573938506
0.005743015183726109,0.717880673499268
0.005753090648960716,0.717880673499268
0.005753090648960716,0.7180636896046853
0.0057581283815780196,0.7180636896046853
0.0057581283815780196,0.7182467057101025
0.005763166114195323,0.7182467057101025
0.005763166114195323,0.7187042459736457
0.0057682038468126265,0.7187042459736457
0.0057682038468126265,0.7192532942898975
0.00577324157942993,0.7192532942898975
0.00577324157942993,0.7194363103953147
0.005778279312047233,0.7194363103953147
0.005778279312047233,0.7195278184480234
0.005793392509899144,0.7195278184480234
0.005793392509899144,0.7197108345534406
0.005808505707751055,0.7197108345534406
0.005808505707751055,0.7198023426061494
0.005813543440368359,0.7198023426061494
0.005813543440368359,0.719893850658858
0.005818581172985663,0.719893850658858
0.005818581172985663,0.7199853587115667
0.005823618905602966,0.7199853587115667
0.005823618905602966,0.7201683748169839
0.0058488075686894845,0.7201683748169839
0.0058488075686894845,0.7203513909224012
0.0058538453013067876,0.7203513909224012
0.0058538453013067876,0.7206259150805271
0.0058588830339240915,0.7206259150805271
0.0058588830339240915,0.7207174231332357
0.005863920766541395,0.7207174231332357
0.005863920766541395,0.7212664714494875
0.005868958499158698,0.7212664714494875
0.005868958499158698,0.7213579795021962
0.005873996231776002,0.7213579795021962
0.005873996231776002,0.7215409956076134
0.005904222627479824,0.7215409956076134
0.005904222627479824,0.7216325036603221
0.005924373557949039,0.7216325036603221
0.005924373557949039,0.7217240117130308
0.005929411290566342,0.7217240117130308
0.005929411290566342,0.7218155197657394
0.005959637686270163,0.7218155197657394
0.005959637686270163,0.7220900439238653
0.005964675418887467,0.7220900439238653
0.005964675418887467,0.7225475841874085
0.005969713151504771,0.7225475841874085
0.005969713151504771,0.7226390922401171
0.005989864081973985,0.7226390922401171
0.005989864081973985,0.7228221083455344
0.005999939547208592,0.7228221083455344
0.005999939547208592,0.7230051244509517
0.006004977279825896,0.7230051244509517
0.006004977279825896,0.7233711566617862
0.0060100150124432,0.7233711566617862
0.0060100150124432,0.7234626647144948
0.006030165942912414,0.7234626647144948
0.006030165942912414,0.7235541727672035
0.006040241408147021,0.7235541727672035
0.006040241408147021,0.7239202049780381
0.006045279140764324,0.7239202049780381
0.006045279140764324,0.724194729136164
0.006065430071233539,0.724194729136164
0.006065430071233539,0.7242862371888726
0.00608054326908545,0.7242862371888726
0.00608054326908545,0.7246522693997072
0.006090618734320057,0.7246522693997072
0.006090618734320057,0.7247437774524158
0.006095656466937361,0.7247437774524158
0.006095656466937361,0.7249267935578331
0.006105731932171968,0.7249267935578331
0.006105731932171968,0.7251098096632503
0.006110769664789272,0.7251098096632503
0.006110769664789272,0.7253843338213762
0.006135958327875789,0.7253843338213762
0.006135958327875789,0.7256588579795022
0.006156109258345004,0.7256588579795022
0.006156109258345004,0.7258418740849195
0.006161146990962308,0.7258418740849195
0.006161146990962308,0.7259333821376281
0.006166184723579611,0.7259333821376281
0.006166184723579611,0.7262994143484627
0.006176260188814219,0.7262994143484627
0.006176260188814219,0.7263909224011713
0.006186335654048826,0.7263909224011713
0.006186335654048826,0.72648243045388
0.006201448851900737,0.72648243045388
0.006201448851900737,0.7265739385065886
0.0062064865845180405,0.7265739385065886
0.0062064865845180405,0.7266654465592972
0.0062115243171353435,0.7266654465592972
0.0062115243171353435,0.7267569546120058
0.0062165620497526474,0.7267569546120058
0.0062165620497526474,0.7268484626647145
0.006221599782369951,0.7268484626647145
0.006221599782369951,0.7270314787701317
0.006226637514987254,0.7270314787701317
0.006226637514987254,0.727214494875549
0.006241750712839165,0.727214494875549
0.006241750712839165,0.7275805270863837
0.006246788445456469,0.7275805270863837
0.006246788445456469,0.7278550512445096
0.006251826178073772,0.7278550512445096
0.006251826178073772,0.7280380673499268
0.006256863910691076,0.7280380673499268
0.006256863910691076,0.7282210834553441
0.00626190164330838,0.7282210834553441
0.00626190164330838,0.7283125915080527
0.006266939375925683,0.7283125915080527
0.006266939375925683,0.7285871156661786
0.006271977108542987,0.7285871156661786
0.006271977108542987,0.7287701317715959
0.006282052573777594,0.7287701317715959
0.006282052573777594,0.7288616398243045
0.006297165771629505,0.7288616398243045
0.006297165771629505,0.7289531478770132
0.0063022035042468085,0.7289531478770132
0.0063022035042468085,0.7290446559297218
0.006322354434716023,0.7290446559297218
0.006322354434716023,0.729227672035139
0.00633242989995063,0.729227672035139
0.00633242989995063,0.7295021961932651
0.006337467632567934,0.7295021961932651
0.006337467632567934,0.7295937042459737
0.006342505365185237,0.7295937042459737
0.006342505365185237,0.7296852122986823
0.006357618563037148,0.7296852122986823
0.006357618563037148,0.729776720351391
0.006362656295654452,0.729776720351391
0.006362656295654452,0.7298682284040996
0.006367694028271756,0.7298682284040996
0.006367694028271756,0.7299597364568082
0.0063928826913582735,0.7299597364568082
0.0063928826913582735,0.7301427525622255
0.006413033621827488,0.7301427525622255
0.006413033621827488,0.7302342606149341
0.006418071354444791,0.7302342606149341
0.006418071354444791,0.7303257686676428
0.006433184552296702,0.7303257686676428
0.006433184552296702,0.7304172767203514
0.00644326001753131,0.7304172767203514
0.00644326001753131,0.7306002928257687
0.006458373215383221,0.7306002928257687
0.006458373215383221,0.7308748169838946
0.006463410948000524,0.7308748169838946
0.006463410948000524,0.7309663250366032
0.006468448680617828,0.7309663250366032
0.006468448680617828,0.7310578330893118
0.0064734864132351315,0.7310578330893118
0.0064734864132351315,0.7311493411420205
0.0064785241458524346,0.7311493411420205
0.0064785241458524346,0.7313323572474377
0.006503712808938953,0.7313323572474377
0.006503712808938953,0.7314238653001464
0.006508750541556256,0.7314238653001464
0.006508750541556256,0.7316983894582724
0.006518826006790863,0.7316983894582724
0.006518826006790863,0.7319729136163983
0.006538976937260078,0.7319729136163983
0.006538976937260078,0.7320644216691069
0.006544014669877382,0.7320644216691069
0.006544014669877382,0.7321559297218155
0.006549052402494685,0.7321559297218155
0.006549052402494685,0.7322474377745242
0.006559127867729293,0.7322474377745242
0.006559127867729293,0.7324304538799414
0.006564165600346596,0.7324304538799414
0.006564165600346596,0.7325219619326501
0.0065692033329638995,0.7325219619326501
0.0065692033329638995,0.7326134699853587
0.00658431653081581,0.7326134699853587
0.00658431653081581,0.7327049780380673
0.006589354263433114,0.7327049780380673
0.006589354263433114,0.7329795021961932
0.006599429728667721,0.7329795021961932
0.006599429728667721,0.7330710102489019
0.006604467461285025,0.7330710102489019
0.006604467461285025,0.7332540263543191
0.006609505193902328,0.7332540263543191
0.006609505193902328,0.7334370424597365
0.006614542926519632,0.7334370424597365
0.006614542926519632,0.7335285505124451
0.006619580659136936,0.7335285505124451
0.006619580659136936,0.7336200585651538
0.006624618391754239,0.7336200585651538
0.006624618391754239,0.7337115666178624
0.006629656124371543,0.7337115666178624
0.006629656124371543,0.7342606149341142
0.006649807054840758,0.7342606149341142
0.006649807054840758,0.7343521229868228
0.0066598825200753645,0.7343521229868228
0.0066598825200753645,0.7344436310395315
0.006664920252692668,0.7344436310395315
0.006664920252692668,0.7350841874084919
0.006669957985309971,0.7350841874084919
0.006669957985309971,0.7351756954612005
0.006674995717927275,0.7351756954612005
0.006674995717927275,0.7356332357247438
0.006680033450544579,0.7356332357247438
0.006680033450544579,0.7358162518301611
0.006700184381013793,0.7358162518301611
0.006700184381013793,0.736090775988287
0.006710259846248401,0.736090775988287
0.006710259846248401,0.7361822840409956
0.006720335311483008,0.7361822840409956
0.006720335311483008,0.7362737920937042
0.0067404862419522225,0.7362737920937042
0.0067404862419522225,0.7366398243045388
0.006755599439804133,0.7366398243045388
0.006755599439804133,0.736822840409956
0.00676567490503874,0.736822840409956
0.00676567490503874,0.7370058565153733
0.006775750370273347,0.7370058565153733
0.006775750370273347,0.7371888726207906
0.006785825835507954,0.7371888726207906
0.006785825835507954,0.7374633967789166
0.006790863568125258,0.7374633967789166
0.006790863568125258,0.7377379209370425
0.006795901300742562,0.7377379209370425
0.006795901300742562,0.7378294289897511
0.006800939033359865,0.7378294289897511
0.006800939033359865,0.7380124450951684
0.006811014498594473,0.7380124450951684
0.006811014498594473,0.7382869692532943
0.00682108996382908,0.7382869692532943
0.00682108996382908,0.7386530014641288
0.006826127696446384,0.7386530014641288
0.006826127696446384,0.7388360175695461
0.006831165429063687,0.7388360175695461
0.006831165429063687,0.7389275256222547
0.0068362031616809905,0.7389275256222547
0.0068362031616809905,0.739110541727672
0.0068412408942982944,0.739110541727672
0.0068412408942982944,0.739385065885798
0.0068462786269155975,0.739385065885798
0.0068462786269155975,0.7394765739385066
0.006856354092150205,0.7394765739385066
0.006856354092150205,0.7395680819912153
0.006861391824767508,0.7395680819912153
0.006861391824767508,0.7399341142020498
0.006871467290002116,0.7399341142020498
0.006871467290002116,0.7401171303074671
0.006881542755236723,0.7401171303074671
0.006881542755236723,0.7402086383601757
0.006906731418323241,0.7402086383601757
0.006906731418323241,0.7403001464128843
0.006916806883557849,0.7403001464128843
0.006916806883557849,0.7406661786237189
0.0069268823487924555,0.7406661786237189
0.0069268823487924555,0.7407576866764275
0.006941995546644366,0.7407576866764275
0.006941995546644366,0.7409407027818448
0.006952071011878973,0.7409407027818448
0.006952071011878973,0.7412152269399708
0.006957108744496277,0.7412152269399708
0.006957108744496277,0.7413067349926794
0.006972221942348188,0.7413067349926794
0.006972221942348188,0.7414897510980967
0.006977259674965492,0.7414897510980967
0.006977259674965492,0.7415812591508053
0.006987335140200099,0.7415812591508053
0.006987335140200099,0.7417642752562226
0.007012523803286617,0.7417642752562226
0.007012523803286617,0.7419472913616398
0.0070175615359039205,0.7419472913616398
0.0070175615359039205,0.7421303074670571
0.007027637001138527,0.7421303074670571
0.007027637001138527,0.7423133235724744
0.007032674733755831,0.7423133235724744
0.007032674733755831,0.742404831625183
0.007047787931607742,0.742404831625183
0.007047787931607742,0.7424963396778916
0.007057863396842349,0.7424963396778916
0.007057863396842349,0.7425878477306003
0.007083052059928867,0.7425878477306003
0.007083052059928867,0.7426793557833089
0.007098165257780778,0.7426793557833089
0.007098165257780778,0.7427708638360175
0.0071032029903980816,0.7427708638360175
0.0071032029903980816,0.7428623718887262
0.0071082407230153855,0.7428623718887262
0.0071082407230153855,0.7434114202049781
0.007118316188249992,0.7434114202049781
0.007118316188249992,0.743685944363104
0.007123353920867296,0.743685944363104
0.007123353920867296,0.7439604685212299
0.00714350485133651,0.7439604685212299
0.00714350485133651,0.7440519765739385
0.007148542583953814,0.7440519765739385
0.007148542583953814,0.7442349926793558
0.007153580316571118,0.7442349926793558
0.007153580316571118,0.744418008784773
0.007158618049188421,0.744418008784773
0.007158618049188421,0.7446010248901903
0.007163655781805725,0.7446010248901903
0.007163655781805725,0.7447840409956076
0.007173731247040332,0.7447840409956076
0.007173731247040332,0.7448755490483162
0.007188844444892243,0.7448755490483162
0.007188844444892243,0.7450585651537335
0.0071938821775095465,0.7450585651537335
0.0071938821775095465,0.7453330893118595
0.007239221771065279,0.7453330893118595
0.007239221771065279,0.7454245973645681
0.007249297236299886,0.7454245973645681
0.007249297236299886,0.745699121522694
0.00725433496891719,0.745699121522694
0.00725433496891719,0.7458821376281113
0.007269448166769101,0.7458821376281113
0.007269448166769101,0.7462481698389458
0.007279523632003708,0.7462481698389458
0.007279523632003708,0.7463396778916545
0.007294636829855618,0.7463396778916545
0.007294636829855618,0.7464311859443631
0.007299674562472922,0.7464311859443631
0.007299674562472922,0.7467972181551976
0.007304712295090226,0.7467972181551976
0.007304712295090226,0.7468887262079063
0.007309750027707529,0.7468887262079063
0.007309750027707529,0.7469802342606149
0.007314787760324833,0.7469802342606149
0.007314787760324833,0.7471632503660323
0.007319825492942136,0.7471632503660323
0.007319825492942136,0.7474377745241582
0.007329900958176744,0.7474377745241582
0.007329900958176744,0.7475292825768668
0.007350051888645958,0.7475292825768668
0.007350051888645958,0.7477122986822841
0.007355089621263262,0.7477122986822841
0.007355089621263262,0.74798682284041
0.007385316016967083,0.74798682284041
0.007385316016967083,0.7480783308931186
0.007420580145288209,0.7480783308931186
0.007420580145288209,0.7481698389458272
0.007430655610522816,0.7481698389458272
0.007430655610522816,0.7482613469985359
0.00743569334314012,0.7482613469985359
0.00743569334314012,0.7484443631039531
0.007450806540992031,0.7484443631039531
0.007450806540992031,0.7485358711566618
0.0074608820062266375,0.7485358711566618
0.0074608820062266375,0.7486273792093704
0.0074709574714612445,0.7486273792093704
0.0074709574714612445,0.7488103953147877
0.007475995204078548,0.7488103953147877
0.007475995204078548,0.7492679355783309
0.007481032936695852,0.7492679355783309
0.007481032936695852,0.7494509516837482
0.007496146134547763,0.7494509516837482
0.007496146134547763,0.75
0.007501183867165066,0.75
0.007501183867165066,0.7501830161054173
0.007516297065016977,0.7501830161054173
0.007516297065016977,0.7502745241581259
0.007536447995486192,0.7502745241581259
0.007536447995486192,0.7504575402635432
0.007541485728103496,0.7504575402635432
0.007541485728103496,0.7505490483162518
0.0075515611933381025,0.7505490483162518
0.0075515611933381025,0.7507320644216691
0.007571712123807317,0.7507320644216691
0.007571712123807317,0.7508235724743777
0.00757674985642462,0.7508235724743777
0.00757674985642462,0.7509150805270863
0.007591863054276531,0.7509150805270863
0.007591863054276531,0.7510065885797951
0.007601938519511138,0.7510065885797951
0.007601938519511138,0.7510980966325037
0.007612013984745746,0.7510980966325037
0.007612013984745746,0.751281112737921
0.007622089449980353,0.751281112737921
0.007622089449980353,0.7513726207906296
0.00763216491521496,0.7513726207906296
0.00763216491521496,0.7514641288433382
0.007637202647832264,0.7514641288433382
0.007637202647832264,0.7516471449487555
0.0076472781130668705,0.7516471449487555
0.0076472781130668705,0.75201317715959
0.007672466776153389,0.75201317715959
0.007672466776153389,0.7521046852122987
0.007677504508770692,0.7521046852122987
0.007677504508770692,0.7522877013177159
0.007682542241387996,0.7522877013177159
0.007682542241387996,0.7523792093704246
0.007707730904474514,0.7523792093704246
0.007707730904474514,0.7524707174231332
0.007712768637091818,0.7524707174231332
0.007712768637091818,0.7525622254758418
0.0077278818349437286,0.7525622254758418
0.0077278818349437286,0.7526537335285505
0.0077329195675610325,0.7526537335285505
0.0077329195675610325,0.7527452415812591
0.0077379573001783355,0.7527452415812591
0.0077379573001783355,0.7528367496339677
0.007753070498030246,0.7528367496339677
0.007753070498030246,0.753294289897511
0.007768183695882157,0.753294289897511
0.007768183695882157,0.7533857979502196
0.007783296893734068,0.7533857979502196
0.007783296893734068,0.7537518301610542
0.007788334626351372,0.7537518301610542
0.007788334626351372,0.7540263543191801
0.007793372358968676,0.7540263543191801
0.007793372358968676,0.7542093704245973
0.007798410091585979,0.7542093704245973
0.007798410091585979,0.754300878477306
0.007803447824203283,0.754300878477306
0.007803447824203283,0.7543923865300146
0.007808485556820587,0.7543923865300146
0.007808485556820587,0.7546669106881405
0.007818561022055193,0.7546669106881405
0.007818561022055193,0.7547584187408491
0.0078286364872898,0.7547584187408491
0.0078286364872898,0.7548499267935578
0.007838711952524408,0.7548499267935578
0.007838711952524408,0.7549414348462665
0.007848787417759014,0.7549414348462665
0.007848787417759014,0.7552159590043924
0.007879013813462836,0.7552159590043924
0.007879013813462836,0.7554904831625183
0.007889089278697444,0.7554904831625183
0.007889089278697444,0.755581991215227
0.007894127011314747,0.755581991215227
0.007894127011314747,0.7557650073206442
0.007899164743932052,0.7557650073206442
0.007899164743932052,0.7564970717423133
0.007904202476549355,0.7564970717423133
0.007904202476549355,0.7565885797950219
0.007909240209166658,0.7565885797950219
0.007909240209166658,0.7567715959004392
0.007914277941783962,0.7567715959004392
0.007914277941783962,0.7568631039531479
0.007919315674401265,0.7568631039531479
0.007919315674401265,0.7570461200585652
0.007929391139635873,0.7570461200585652
0.007929391139635873,0.7571376281112738
0.00793946660487048,0.7571376281112738
0.00793946660487048,0.7573206442166911
0.007949542070105087,0.7573206442166911
0.007949542070105087,0.7575036603221084
0.007969693000574301,0.7575036603221084
0.007969693000574301,0.757595168374817
0.007974730733191606,0.757595168374817
0.007974730733191606,0.7578696925329429
0.00800999486151273,0.7578696925329429
0.00800999486151273,0.7579612005856515
0.00805029672245116,0.7579612005856515
0.00805029672245116,0.7580527086383602
0.008055334455068463,0.7580527086383602
0.008055334455068463,0.7581442166910688
0.00806540992030307,0.7581442166910688
0.00806540992030307,0.7582357247437774
0.008080523118154982,0.7582357247437774
0.008080523118154982,0.7583272327964861
0.008090598583389588,0.7583272327964861
0.008090598583389588,0.7584187408491947
0.008125862711710714,0.7584187408491947
0.008125862711710714,0.7585102489019033
0.00813593817694532,0.7585102489019033
0.00813593817694532,0.758601756954612
0.008146013642179928,0.758601756954612
0.008146013642179928,0.7586932650073206
0.008151051374797231,0.7586932650073206
0.008151051374797231,0.7587847730600292
0.008156089107414536,0.7587847730600292
0.008156089107414536,0.758876281112738
0.008161126840031839,0.758876281112738
0.008161126840031839,0.7589677891654466
0.008166164572649142,0.7589677891654466
0.008166164572649142,0.7593338213762811
0.008171202305266446,0.7593338213762811
0.008171202305266446,0.7594253294289898
0.00819135323573566,0.7594253294289898
0.00819135323573566,0.7596998535871157
0.008211504166204874,0.7596998535871157
0.008211504166204874,0.7599743777452416
0.008216541898822179,0.7599743777452416
0.008216541898822179,0.7601573938506588
0.008226617364056785,0.7601573938506588
0.00823165509667409,0.7602489019033675
0.00823165509667409,0.7603404099560761
0.008236692829291393,0.7603404099560761
0.008236692829291393,0.7605234260614934
0.008246768294525999,0.7605234260614934
0.008246768294525999,0.760889458272328
0.008251806027143304,0.760889458272328
0.008251806027143304,0.7612554904831625
0.008256843759760607,0.7613469985358712
0.008256843759760607,0.7614385065885798
0.00826188149237791,0.7614385065885798
0.00826188149237791,0.7616215226939971
0.008266919224995214,0.7616215226939971
0.008266919224995214,0.7617130307467057
0.00827699469022982,0.7617130307467057
0.00827699469022982,0.761896046852123
0.008282032422847125,0.761896046852123
0.008282032422847125,0.7621705710102489
0.008297145620699036,0.7621705710102489
0.008297145620699036,0.7622620790629575
0.008312258818550947,0.7622620790629575
0.008312258818550947,0.7623535871156661
0.00831729655116825,0.7623535871156661
0.00831729655116825,0.762628111273792
0.008327372016402858,0.762628111273792
0.008327372016402858,0.7627196193265008
0.008337447481637464,0.7627196193265008
0.008337447481637464,0.7629941434846267
0.008347522946872072,0.7629941434846267
0.008347522946872072,0.7633601756954612
0.008367673877341286,0.7633601756954612
0.008367673877341286,0.7634516837481699
0.008377749342575893,0.7634516837481699
0.008377749342575893,0.7636346998535871
0.008382787075193196,0.7636346998535871
0.008382787075193196,0.7637262079062958
0.008397900273045107,0.7637262079062958
0.008397900273045107,0.7640007320644217
0.008402938005662412,0.7640007320644217
0.008402938005662412,0.7645497803806734
0.008413013470897018,0.7645497803806734
0.008413013470897018,0.7648243045387995
0.008428126668748929,0.7648243045387995
0.008428126668748929,0.7649158125915081
0.00844323986660084,0.7649158125915081
0.00844323986660084,0.7650988286969254
0.00845835306445275,0.7650988286969254
0.00845835306445275,0.7652818448023426
0.008473466262304661,0.7652818448023426
0.008473466262304661,0.7654648609077599
0.00849865492539118,0.7654648609077599
0.00849865492539118,0.7656478770131772
0.00851376812324309,0.7656478770131772
0.00851376812324309,0.7658308931185944
0.008574220914650734,0.7658308931185944
0.008574220914650734,0.766196925329429
0.008584296379885342,0.766196925329429
0.008584296379885342,0.7662884333821376
0.008589334112502645,0.7662884333821376
0.008589334112502645,0.7663799414348462
0.008594371845119948,0.7663799414348462
0.008594371845119948,0.7665629575402635
0.008604447310354556,0.7665629575402635
0.008604447310354556,0.7666544655929722
0.008609485042971859,0.7666544655929722
0.008609485042971859,0.7669289897510981
0.008614522775589164,0.7669289897510981
0.008614522775589164,0.7670204978038068
0.00862459824082377,0.7670204978038068
0.00862459824082377,0.7671120058565154
0.008629635973441074,0.7671120058565154
0.008629635973441074,0.767203513909224
0.008634673706058377,0.767203513909224
0.008634673706058377,0.7672950219619327
0.00863971143867568,0.7672950219619327
0.00863971143867568,0.7673865300146413
0.00868001329961411,0.7673865300146413
0.00868001329961411,0.7674780380673499
0.008690088764848718,0.7674780380673499
0.008690088764848718,0.7675695461200586
0.00869512649746602,0.7675695461200586
0.00869512649746602,0.7678440702781845
0.008710239695317932,0.7678440702781845
0.008710239695317932,0.7679355783308931
0.008745503823639056,0.7679355783308931
0.008745503823639056,0.7680270863836017
0.008750541556256361,0.7680270863836017
0.008750541556256361,0.7683016105417276
0.008775730219342878,0.7683016105417276
0.008775730219342878,0.7685761346998536
0.008780767951960181,0.7685761346998536
0.008780767951960181,0.7686676427525623
0.008795881149812092,0.7686676427525623
0.008795881149812092,0.7687591508052709
0.008816032080281307,0.7687591508052709
0.008816032080281307,0.7688506588579795
0.008831145278133218,0.7688506588579795
0.008831145278133218,0.7689421669106882
0.008836183010750521,0.7689421669106882
0.008836183010750521,0.7693081991215227
0.008841220743367824,0.7693081991215227
0.008841220743367824,0.7693997071742313
0.008871447139071646,0.7693997071742313
0.008871447139071646,0.76949121522694
0.008886560336923557,0.76949121522694
0.008886560336923557,0.7696742313323572
0.008916786732627378,0.7696742313323572
0.008916786732627378,0.7697657393850659
0.00893189993047929,0.7697657393850659
0.00893189993047929,0.7699487554904831
0.008936937663096594,0.7699487554904831
0.008936937663096594,0.7701317715959004
0.008967164058800416,0.7701317715959004
0.008967164058800416,0.770223279648609
0.008997390454504237,0.770223279648609
0.008997390454504237,0.7703147877013177
0.009017541384973451,0.7703147877013177
0.009017541384973451,0.7704062957540263
0.009027616850208059,0.7704062957540263
0.009027616850208059,0.7704978038067349
0.009032654582825362,0.7704978038067349
0.009032654582825362,0.7705893118594437
0.009037692315442665,0.7705893118594437
0.009037692315442665,0.770772327964861
0.009062880978529184,0.770772327964861
0.009062880978529184,0.7708638360175696
0.009077994176381094,0.7708638360175696
0.009077994176381094,0.7709553440702782
0.009088069641615702,0.7709553440702782
0.009088069641615702,0.7710468521229868
0.009108220572084916,0.7710468521229868
0.009108220572084916,0.7711383601756955
0.009118296037319524,0.7711383601756955
0.009118296037319524,0.7713213762811127
0.00912837150255413,0.7713213762811127
0.00912837150255413,0.7715959004392386
0.00914348470040604,0.7715959004392386
0.00914348470040604,0.7716874084919473
0.009153560165640649,0.7716874084919473
0.009153560165640649,0.7717789165446559
0.009178748828727167,0.7717789165446559
0.009178748828727167,0.7718704245973645
0.00918378656134447,0.7718704245973645
0.00918378656134447,0.7719619326500732
0.009188824293961773,0.7719619326500732
0.009188824293961773,0.7721449487554904
0.009193862026579078,0.7721449487554904
0.009193862026579078,0.7725109809663251
0.009203937491813684,0.7725109809663251
0.009203937491813684,0.7726024890190337
0.009208975224430989,0.7726024890190337
0.009208975224430989,0.7726939970717424
0.009219050689665595,0.7726939970717424
0.009219050689665595,0.7728770131771596
0.0092240884222829,0.7728770131771596
0.0092240884222829,0.7729685212298683
0.009229126154900203,0.7729685212298683
0.009229126154900203,0.7730600292825769
0.009234163887517506,0.7730600292825769
0.009234163887517506,0.7731515373352855
0.00923920162013481,0.7731515373352855
0.00923920162013481,0.7732430453879942
0.009244239352752114,0.7732430453879942
0.009244239352752114,0.7734260614934114
0.009249277085369417,0.7734260614934114
0.009249277085369417,0.77351756954612
0.009259352550604024,0.77351756954612
0.009259352550604024,0.7736090775988287
0.009264390283221327,0.7736090775988287
0.009264390283221327,0.7738836017569546
0.009274465748455935,0.7738836017569546
0.009274465748455935,0.7740666178623719
0.009289578946307846,0.7740666178623719
0.009289578946307846,0.7741581259150805
0.00930972987677706,0.7741581259150805
0.00930972987677706,0.7742496339677891
0.009314767609394363,0.7742496339677891
0.009314767609394363,0.7744326500732065
0.009319805342011668,0.7744326500732065
0.009319805342011668,0.7745241581259151
0.009329880807246274,0.7745241581259151
0.009329880807246274,0.7746156661786238
0.009339956272480882,0.7746156661786238
0.009339956272480882,0.7748901903367497
0.00935003173771549,0.7748901903367497
0.00935003173771549,0.7749816983894583
0.009355069470332792,0.7749816983894583
0.009355069470332792,0.7750732064421669
0.009360107202950095,0.7750732064421669
0.009360107202950095,0.7751647144948756
0.009370182668184703,0.7751647144948756
0.009370182668184703,0.7753477306002928
0.009385295866036614,0.7753477306002928
0.009385295866036614,0.7756222547584187
0.009390333598653917,0.7756222547584187
0.009390333598653917,0.7757137628111274
0.009400409063888525,0.7757137628111274
0.009400409063888525,0.7759882869692533
0.009420559994357739,0.7759882869692533
0.009420559994357739,0.7760797950219619
0.009430635459592347,0.7760797950219619
0.009430635459592347,0.7761713030746705
0.009486050518382687,0.7761713030746705
0.009486050518382687,0.7762628111273792
0.00953139011193842,0.7762628111273792
0.00953139011193842,0.7763543191800878
0.009536427844555722,0.7763543191800878
0.009536427844555722,0.7764458272327965
0.009541465577173025,0.7764458272327965
0.009541465577173025,0.7766288433382138
0.00954650330979033,0.7766288433382138
0.00954650330979033,0.7769033674963397
0.009551541042407633,0.7769033674963397
0.009551541042407633,0.777086383601757
0.009571691972876847,0.777086383601757
0.009571691972876847,0.7771778916544656
0.009591842903346063,0.7771778916544656
0.009591842903346063,0.7772693997071742
0.009596880635963366,0.7772693997071742
0.009596880635963366,0.7773609077598829
0.009601918368580669,0.7773609077598829
0.009601918368580669,0.7774524158125915
0.009606956101197973,0.7774524158125915
0.009606956101197973,0.7775439238653001
0.009611993833815276,0.7775439238653001
0.009611993833815276,0.7776354319180088
0.00961703156643258,0.7776354319180088
0.00961703156643258,0.777818448023426
0.009622069299049884,0.777818448023426
0.009622069299049884,0.7780929721815519
0.009642220229519098,0.7780929721815519
0.009642220229519098,0.7781844802342606
0.009652295694753706,0.7781844802342606
0.009652295694753706,0.7783674963396779
0.009657333427371009,0.7783674963396779
0.009657333427371009,0.7784590043923866
0.009662371159988312,0.7784590043923866
0.009662371159988312,0.7787335285505125
0.009667408892605617,0.7787335285505125
0.009667408892605617,0.7788250366032211
0.009677484357840223,0.7788250366032211
0.009677484357840223,0.7791910688140556
0.00968755982307483,0.7791910688140556
0.00968755982307483,0.7792825768667643
0.00971274848616135,0.7792825768667643
0.00971274848616135,0.7793740849194729
0.009722823951395955,0.7793740849194729
0.009722823951395955,0.7794655929721815
0.009732899416630563,0.7794655929721815
0.009732899416630563,0.7795571010248902
0.009763125812334385,0.7795571010248902
0.009763125812334385,0.7796486090775988
0.009768163544951688,0.7796486090775988
0.009773201277568993,0.7797401171303074
0.009773201277568993,0.7798316251830161
0.009778239010186296,0.7798316251830161
0.009778239010186296,0.7799231332357247
0.009788314475420903,0.7799231332357247
0.009788314475420903,0.780106149341142
0.009793352208038206,0.780106149341142
0.009793352208038206,0.7802891654465594
0.009818540871124725,0.7802891654465594
0.009818540871124725,0.780380673499268
0.009828616336359331,0.780380673499268
0.009828616336359331,0.7806551976573939
0.009838691801593939,0.7806551976573939
0.009838691801593939,0.7807467057101025
0.009843729534211242,0.7807467057101025
0.009843729534211242,0.7808382137628112
0.00985380499944585,0.7808382137628112
0.00985380499944585,0.7809297218155198
0.009858842732063153,0.7809297218155198
0.009858842732063153,0.7812042459736457
0.009863880464680456,0.7812042459736457
0.009863880464680456,0.7814787701317716
0.009894106860384277,0.7814787701317716
0.009894106860384277,0.7815702781844802
0.009899144593001582,0.7815702781844802
0.009899144593001582,0.7816617862371888
0.009914257790853493,0.7816617862371888
0.009914257790853493,0.7817532942898975
0.009929370988705404,0.7817532942898975
0.009929370988705404,0.7818448023426061
0.009934408721322707,0.7818448023426061
0.009934408721322707,0.782119326500732
0.009944484186557315,0.782119326500732
0.009944484186557315,0.7822108345534406
0.00995455965179192,0.7822108345534406
0.00995455965179192,0.7823023426061494
0.009959597384409226,0.7823023426061494
0.009959597384409226,0.782393850658858
0.009964635117026529,0.782393850658858
0.009964635117026529,0.7824853587115667
0.010004936977964958,0.7824853587115667
0.010004936977964958,0.7826683748169839
0.010009974710582261,0.7826683748169839
0.010009974710582261,0.7827598828696926
0.010020050175816869,0.7827598828696926
0.010020050175816869,0.7829428989751098
0.010030125641051475,0.7829428989751098
0.010030125641051475,0.7830344070278185
0.010045238838903386,0.7830344070278185
0.010045238838903386,0.7831259150805271
0.01005027657152069,0.7831259150805271
0.01005027657152069,0.7833089311859444
0.010060352036755297,0.7833089311859444
0.010060352036755297,0.783400439238653
0.010065389769372601,0.783400439238653
0.010065389769372601,0.7834919472913616
0.010075465234607207,0.7834919472913616
0.010075465234607207,0.7835834553440703
0.010085540699841815,0.7835834553440703
0.010085540699841815,0.7836749633967789
0.010095616165076423,0.7836749633967789
0.010095616165076423,0.7837664714494875
0.010100653897693726,0.7837664714494875
0.010100653897693726,0.7838579795021962
0.010105691630311029,0.7838579795021962
0.010105691630311029,0.7839494875549048
0.010110729362928334,0.7839494875549048
0.010110729362928334,0.7840409956076134
0.01012080482816294,0.7840409956076134
0.01012080482816294,0.7841325036603221
0.010130880293397548,0.7841325036603221
0.010130880293397548,0.7844070278184481
0.01013591802601485,0.7844070278184481
0.01013591802601485,0.7844985358711567
0.010140955758632155,0.7844985358711567
0.010140955758632155,0.7845900439238653
0.010145993491249458,0.7845900439238653
0.010145993491249458,0.7847730600292826
0.010151031223866762,0.7847730600292826
0.010151031223866762,0.7848645680819912
0.010166144421718672,0.7848645680819912
0.010166144421718672,0.7850475841874085
0.010196370817422494,0.7850475841874085
0.010196370817422494,0.7851390922401171
0.010256823608830137,0.7851390922401171
0.010256823608830137,0.785413616398243
0.010261861341447442,0.785413616398243
0.010261861341447442,0.7855051244509517
0.010266899074064745,0.7855051244509517
0.010266899074064745,0.7856881405563689
0.010287050004533959,0.7856881405563689
0.010287050004533959,0.7860541727672035
0.0103424650633243,0.7860541727672035
0.0103424650633243,0.7862371888726208
0.01035757826117621,0.7862371888726208
0.01035757826117621,0.7864202049780381
0.010362615993793513,0.7864202049780381
0.010362615993793513,0.786694729136164
0.010367653726410816,0.786694729136164
0.010367653726410816,0.7867862371888726
0.010392842389497335,0.7867862371888726
0.010392842389497335,0.7868777452415813
0.010418031052583853,0.7868777452415813
0.010418031052583853,0.7871522693997072
0.010433144250435764,0.7871522693997072
0.010433144250435764,0.7872437774524158
0.010438181983053067,0.7872437774524158
0.010438181983053067,0.7875183016105417
0.010463370646139586,0.7875183016105417
0.010463370646139586,0.7876098096632503
0.0104835215766088,0.7876098096632503
0.0104835215766088,0.787701317715959
0.01049863477446071,0.787701317715959
0.01049863477446071,0.7877928257686676
0.010503672507078014,0.7877928257686676
0.010503672507078014,0.7878843338213762
0.010528861170164532,0.7878843338213762
0.010528861170164532,0.7879758418740849
0.010533898902781835,0.7879758418740849
0.010533898902781835,0.7880673499267935
0.01053893663539914,0.7880673499267935
0.01053893663539914,0.7881588579795022
0.010543974368016443,0.7881588579795022
0.010543974368016443,0.7883418740849195
0.010559087565868354,0.7883418740849195
0.010559087565868354,0.7884333821376281
0.010564125298485657,0.7884333821376281
0.010564125298485657,0.7885248901903368
0.010574200763720265,0.7885248901903368
0.010574200763720265,0.7886163982430454
0.010579238496337568,0.7886163982430454
0.010579238496337568,0.788707906295754
0.010584276228954873,0.788707906295754
0.010584276228954873,0.7887994143484627
0.010659842218214427,0.7887994143484627
0.010659842218214427,0.7888909224011713
0.010669917683449033,0.7888909224011713
0.010669917683449033,0.7891654465592972
0.010674955416066337,0.7891654465592972
0.010674955416066337,0.7892569546120058
0.010690068613918248,0.7892569546120058
0.010690068613918248,0.7894399707174231
0.01070518181177016,0.7894399707174231
0.01070518181177016,0.7895314787701317
0.010710219544387462,0.7895314787701317
0.010710219544387462,0.789714494875549
0.010740445940091284,0.789714494875549
0.010740445940091284,0.7898060029282576
0.010765634603177802,0.7898060029282576
0.010765634603177802,0.7899890190336749
0.010780747801029713,0.7899890190336749
0.010780747801029713,0.7901720351390923
0.010785785533647016,0.7901720351390923
0.010785785533647016,0.7902635431918009
0.01079082326626432,0.7902635431918009
0.01079082326626432,0.7903550512445096
0.010810974196733535,0.7903550512445096
0.010810974196733535,0.7906295754026355
0.010821049661968141,0.7906295754026355
0.010821049661968141,0.7908125915080527
0.010831125127202749,0.7908125915080527
0.010831125127202749,0.7909040995607614
0.010836162859820052,0.7909040995607614
0.010836162859820052,0.79099560761347
0.010856313790289267,0.79099560761347
0.010856313790289267,0.7910871156661786
0.010871426988141178,0.7910871156661786
0.010871426988141178,0.7911786237188873
0.010876464720758481,0.7911786237188873
0.010876464720758481,0.7913616398243045
0.010886540185993089,0.7913616398243045
0.010886540185993089,0.7915446559297218
0.010901653383844998,0.7915446559297218
0.010901653383844998,0.7916361639824304
0.010911728849079606,0.7916361639824304
0.010911728849079606,0.7918191800878477
0.010926842046931517,0.7918191800878477
0.010926842046931517,0.7920021961932651
0.010982257105721857,0.7920021961932651
0.010982257105721857,0.7921852122986823
0.011002408036191071,0.7921852122986823
0.011002408036191071,0.792276720351391
0.011007445768808374,0.792276720351391
0.011007445768808374,0.7923682284040996
0.011032634431894893,0.7923682284040996
0.011032634431894893,0.7924597364568082
0.011037672164512196,0.7924597364568082
0.011037672164512196,0.7925512445095169
0.011052785362364106,0.7925512445095169
0.011052785362364106,0.7926427525622255
0.011083011758067928,0.7926427525622255
0.011083011758067928,0.7927342606149341
0.011088049490685233,0.7927342606149341
0.011088049490685233,0.7929172767203514
0.011098124955919839,0.7929172767203514
0.011098124955919839,0.7931918008784773
0.011103162688537144,0.7931918008784773
0.011103162688537144,0.7933748169838946
0.01112835135162366,0.7933748169838946
0.01112835135162366,0.7935578330893118
0.011143464549475571,0.7935578330893118
0.011143464549475571,0.7937408491947291
0.011158577747327482,0.7937408491947291
0.011158577747327482,0.7940153733528551
0.011173690945179393,0.7940153733528551
0.011173690945179393,0.794289897510981
0.011203917340883215,0.794289897510981
0.011203917340883215,0.7943814055636896
0.01122406827135243,0.7943814055636896
0.01122406827135243,0.7947474377745242
0.011254294667056252,0.7947474377745242
0.011254294667056252,0.7949304538799414
0.011259332399673555,0.7949304538799414
0.011259332399673555,0.7950219619326501
0.011269407864908163,0.7950219619326501
0.011269407864908163,0.795296486090776
0.011284521062760074,0.795296486090776
0.011284521062760074,0.7953879941434846
0.011289558795377377,0.7953879941434846
0.011289558795377377,0.7954795021961932
0.011299634260611984,0.7954795021961932
0.011299634260611984,0.7955710102489019
0.011304671993229288,0.7955710102489019
0.011304671993229288,0.7956625183016105
0.01133489838893311,0.7956625183016105
0.01133489838893311,0.7958455344070278
0.011339936121550412,0.7958455344070278
0.011339936121550412,0.7959370424597365
0.011344973854167717,0.7959370424597365
0.011344973854167717,0.7960285505124451
0.011360087052019628,0.7960285505124451
0.011360087052019628,0.7961200585651538
0.011385275715106145,0.7961200585651538
0.011385275715106145,0.7962115666178624
0.011400388912958056,0.7962115666178624
0.011400388912958056,0.796303074670571
0.01140542664557536,0.796303074670571
0.01140542664557536,0.7965775988286969
0.011425577576044574,0.7965775988286969
0.011425577576044574,0.7966691068814056
0.011430615308661877,0.7966691068814056
0.011430615308661877,0.7969436310395315
0.01143565304127918,0.7969436310395315
0.01143565304127918,0.7970351390922401
0.011460841704365699,0.7970351390922401
0.011460841704365699,0.7971266471449487
0.011465879436983002,0.7971266471449487
0.011465879436983002,0.7972181551976574
0.011470917169600307,0.7972181551976574
0.011470917169600307,0.7974011713030746
0.01147595490221761,0.7974011713030746
0.01147595490221761,0.7974926793557833
0.011486030367452217,0.7974926793557833
0.01149106810006952,0.7975841874084919
0.011506181297921431,0.7975841874084919
0.011506181297921431,0.7976756954612005
0.011511219030538734,0.7976756954612005
0.011511219030538734,0.7977672035139092
0.011526332228390645,0.7977672035139092
0.011526332228390645,0.7978587115666179
0.011536407693625253,0.7978587115666179
0.011536407693625253,0.7979502196193266
0.01154648315885986,0.7979502196193266
0.01154648315885986,0.7980417276720352
0.011551520891477164,0.7980417276720352
0.011551520891477164,0.7981332357247438
0.011581747287180985,0.7981332357247438
0.011581747287180985,0.7984077598828697
0.011586785019798288,0.7984077598828697
0.011586785019798288,0.7984992679355783
0.011591822752415593,0.7984992679355783
0.011591822752415593,0.7986822840409956
0.011622049148119415,0.7986822840409956
0.011622049148119415,0.7987737920937042
0.01165731327644054,0.7987737920937042
0.01165731327644054,0.7988653001464129
0.011662351009057843,0.7988653001464129
0.011662351009057843,0.7990483162518301
0.011687539672144361,0.7990483162518301
0.011687539672144361,0.7991398243045388
0.011702652869996272,0.7991398243045388
0.011702652869996272,0.7992313323572474
0.011707690602613575,0.7992313323572474
0.011707690602613575,0.799322840409956
0.01171272833523088,0.799322840409956
0.01171272833523088,0.7995058565153733
0.011722803800465486,0.7995058565153733
0.011722803800465486,0.7996888726207906
0.011747992463552005,0.7996888726207906
0.011747992463552005,0.7997803806734992
0.011763105661403915,0.7997803806734992
0.011763105661403915,0.799871888726208
0.01178325659187313,0.799871888726208
0.01178325659187313,0.7999633967789166
0.011793332057107737,0.7999633967789166
0.011793332057107737,0.8003294289897511
0.011808445254959648,0.8003294289897511
0.011808445254959648,0.800603953147877
0.011813482987576951,0.800603953147877
0.011813482987576951,0.8006954612005857
0.011828596185428862,0.8006954612005857
0.011828596185428862,0.8007869692532943
0.011848747115898077,0.8007869692532943
0.011848747115898077,0.8008784773060029
0.011858822581132683,0.8008784773060029
0.011858822581132683,0.8009699853587116
0.01190919990730572,0.8009699853587116
0.01190919990730572,0.8010614934114202
0.011914237639923024,0.8010614934114202
0.011914237639923024,0.8011530014641288
0.011934388570392238,0.8011530014641288
0.011934388570392238,0.8013360175695461
0.011939426303009542,0.8013360175695461
0.011939426303009542,0.8014275256222547
0.01196461496609606,0.8014275256222547
0.01196461496609606,0.801610541727672
0.011969652698713362,0.801610541727672
0.011969652698713362,0.8017935578330894
0.01199484136179988,0.8017935578330894
0.01199484136179988,0.801885065885798
0.012004916827034489,0.801885065885798
0.012004916827034489,0.8019765739385066
0.012009954559651792,0.8019765739385066
0.012009954559651792,0.8020680819912153
0.0120200300248864,0.8020680819912153
0.0120200300248864,0.8021595900439239
0.01203514322273831,0.8021595900439239
0.01203514322273831,0.8022510980966325
0.012040180955355613,0.8022510980966325
0.012040180955355613,0.8023426061493412
0.012045218687972916,0.8023426061493412
0.012045218687972916,0.8025256222547584
0.012060331885824827,0.8025256222547584
0.012060331885824827,0.8026171303074671
0.012070407351059435,0.8026171303074671
0.012070407351059435,0.8028001464128843
0.012080482816294043,0.8028001464128843
0.012080482816294043,0.802891654465593
0.012095596014145954,0.802891654465593
0.012095596014145954,0.8030746705710102
0.012100633746763257,0.8030746705710102
0.012100633746763257,0.8031661786237189
0.01210567147938056,0.8031661786237189
0.01210567147938056,0.8032576866764275
0.012110709211997864,0.8032576866764275
0.012110709211997864,0.8033491947291361
0.012130860142467078,0.8033491947291361
0.012130860142467078,0.8034407027818448
0.012135897875084381,0.8034407027818448
0.012135897875084381,0.8035322108345534
0.012140935607701686,0.8035322108345534
0.012140935607701686,0.803623718887262
0.01217619973602281,0.803623718887262
0.01217619973602281,0.8038067349926794
0.012196350666492025,0.8038067349926794
0.012196350666492025,0.803898243045388
0.01220138839910933,0.803898243045388
0.01220138839910933,0.8039897510980967
0.012246727992665062,0.8039897510980967
0.012246727992665062,0.8040812591508053
0.012256803457899668,0.8040812591508053
0.012256803457899668,0.8041727672035139
0.012292067586220794,0.8041727672035139
0.012292067586220794,0.8042642752562226
0.012312218516690008,0.8042642752562226
0.012312218516690008,0.8044472913616398
0.012317256249307311,0.8044472913616398
0.012317256249307311,0.8045387994143485
0.012322293981924616,0.8045387994143485
0.012322293981924616,0.8046303074670571
0.012347482645011133,0.8046303074670571
0.012347482645011133,0.8047218155197657
0.012372671308097652,0.8047218155197657
0.012372671308097652,0.8048133235724744
0.012377709040714955,0.8048133235724744
0.012377709040714955,0.804904831625183
0.01239785997118417,0.804904831625183
0.01239785997118417,0.8050878477306003
0.012402897703801473,0.8050878477306003
0.012402897703801473,0.8052708638360175
0.012407935436418776,0.8052708638360175
0.012407935436418776,0.8053623718887262
0.012418010901653384,0.8053623718887262
0.012418010901653384,0.8055453879941434
0.012443199564739903,0.8055453879941434
0.012443199564739903,0.8056368960468521
0.012453275029974509,0.8056368960468521
0.012453275029974509,0.8057284040995608
0.012458312762591814,0.8057284040995608
0.012458312762591814,0.8059114202049781
0.012473425960443724,0.8059114202049781
0.012473425960443724,0.8060029282576867
0.01248350142567833,0.8060029282576867
0.01248350142567833,0.8060944363103953
0.012503652356147544,0.8060944363103953
0.012503652356147544,0.806185944363104
0.012508690088764849,0.806185944363104
0.012508690088764849,0.8063689604685212
0.012548991949703277,0.8063689604685212
0.012548991949703277,0.8064604685212299
0.012569142880172492,0.8064604685212299
0.012569142880172492,0.8066434846266471
0.01259433154325901,0.8066434846266471
0.01259433154325901,0.8068265007320644
0.012599369275876314,0.8068265007320644
0.012599369275876314,0.806918008784773
0.012604407008493617,0.806918008784773
0.012604407008493617,0.8070095168374817
0.012619520206345528,0.8070095168374817
0.012619520206345528,0.8072840409956076
0.012624557938962831,0.8072840409956076
0.012624557938962831,0.8073755490483162
0.012644708869432046,0.8073755490483162
0.012644708869432046,0.8074670571010248
0.01264974660204935,0.8074670571010248
0.01264974660204935,0.8075585651537335
0.012669897532518563,0.8075585651537335
0.012669897532518563,0.8076500732064422
0.012690048462987779,0.8076500732064422
0.012690048462987779,0.8077415812591509
0.012710199393456993,0.8077415812591509
0.012710199393456993,0.8079245973645681
0.012715237126074296,0.8079245973645681
0.012715237126074296,0.8081076134699854
0.012730350323926207,0.8081076134699854
0.012730350323926207,0.808199121522694
0.01277568991748194,0.808199121522694
0.01277568991748194,0.8082906295754027
0.01279080311533385,0.8082906295754027
0.01279080311533385,0.8083821376281113
0.01280591631318576,0.8083821376281113
0.01280591631318576,0.8086566617862372
0.01283110497627228,0.8086566617862372
0.01283110497627228,0.8090226939970717
0.012866369104593404,0.8090226939970717
0.012866369104593404,0.809205710102489
0.012881482302445315,0.809205710102489
0.012881482302445315,0.8093887262079063
0.01290163323291453,0.8093887262079063
0.01290163323291453,0.8096632503660323
0.012906670965531834,0.8096632503660323
0.012906670965531834,0.8097547584187409
0.01297216148955678,0.8097547584187409
0.01297216148955678,0.8098462664714495
0.01301246335049521,0.8098462664714495
0.01301246335049521,0.8100292825768668
0.013037652013581726,0.8100292825768668
0.013037652013581726,0.8101207906295754
0.013047727478816334,0.8101207906295754
0.013047727478816334,0.8102122986822841
0.013072916141902853,0.8102122986822841
0.013072916141902853,0.8103953147877013
0.013123293468075888,0.8103953147877013
0.013123293468075888,0.81048682284041
0.013128331200693191,0.81048682284041
0.013128331200693191,0.8105783308931186
0.013133368933310496,0.8105783308931186
0.013133368933310496,0.8108528550512445
0.013143444398545102,0.8108528550512445
0.013143444398545102,0.8109443631039531
0.01316863306163162,0.8109443631039531
0.01316863306163162,0.811218887262079
0.013178708526866229,0.811218887262079
0.013178708526866229,0.8114019033674963
0.013198859457335442,0.8114019033674963
0.013198859457335442,0.8114934114202049
0.01320893492257005,0.8114934114202049
0.01320893492257005,0.8115849194729137
0.013219010387804656,0.8115849194729137
0.013219010387804656,0.8116764275256223
0.013244199050891175,0.8116764275256223
0.013244199050891175,0.8117679355783309
0.013254274516125783,0.8117679355783309
0.013254274516125783,0.8118594436310396
0.01329457637706421,0.8118594436310396
0.01329457637706421,0.8119509516837482
0.013309689574916121,0.8119509516837482
0.013309689574916121,0.8120424597364568
0.013344953703237248,0.8120424597364568
0.013344953703237248,0.8122254758418741
0.013360066901089158,0.8122254758418741
0.013360066901089158,0.8125
0.01339029329679298,0.8125
0.01339029329679298,0.8126830161054173
0.013400368762027586,0.8126830161054173
0.013400368762027586,0.8127745241581259
0.013405406494644891,0.8127745241581259
0.013405406494644891,0.8128660322108345
0.013435632890348713,0.8128660322108345
0.013435632890348713,0.8130490483162518
0.01346082155343523,0.8130490483162518
0.01346082155343523,0.8131405563689604
0.013470897018669837,0.8131405563689604
0.013470897018669837,0.8134150805270863
0.013480972483904445,0.8134150805270863
0.013480972483904445,0.8135980966325037
0.013491047949139051,0.8135980966325037
0.013491047949139051,0.8136896046852123
0.01353134981007748,0.8136896046852123
0.01353134981007748,0.813781112737921
0.013541425275312088,0.813781112737921
0.013541425275312088,0.8138726207906296
0.013581727136250516,0.8138726207906296
0.013581727136250516,0.8139641288433382
0.013591802601485124,0.8139641288433382
0.013591802601485124,0.8140556368960469
0.013596840334102427,0.8140556368960469
0.013596840334102427,0.8141471449487555
0.013632104462423552,0.8141471449487555
0.013632104462423552,0.8142386530014641
0.01364217992765816,0.8142386530014641
0.01364217992765816,0.8143301610541728
0.013682481788596589,0.8143301610541728
0.013682481788596589,0.81451317715959
0.013692557253831195,0.81451317715959
0.013692557253831195,0.8146046852122987
0.013717745916917714,0.8146046852122987
0.013717745916917714,0.8147877013177159
0.013737896847386927,0.8147877013177159
0.013737896847386927,0.8149707174231332
0.013753010045238838,0.8149707174231332
0.013753010045238838,0.8151537335285505
0.013778198708325357,0.8151537335285505
0.013778198708325357,0.8152452415812591
0.013818500569263786,0.8152452415812591
0.013818500569263786,0.8153367496339677
0.013833613767115697,0.8153367496339677
0.013833613767115697,0.8154282576866764
0.013838651499733,0.8154282576866764
0.013838651499733,0.8156112737920937
0.013843689232350303,0.8156112737920937
0.013843689232350303,0.815794289897511
0.013848726964967608,0.815794289897511
0.013848726964967608,0.8160688140556369
0.013858802430202214,0.8160688140556369
0.013858802430202214,0.8161603221083455
0.013863840162819519,0.8161603221083455
0.013863840162819519,0.8163433382137628
0.013868877895436822,0.8163433382137628
0.013868877895436822,0.8164348462664714
0.01387895336067143,0.8164348462664714
0.01387895336067143,0.8165263543191801
0.013883991093288733,0.8165263543191801
0.013883991093288733,0.8166178623718887
0.013889028825906036,0.8166178623718887
0.013889028825906036,0.8167093704245973
0.013914217488992554,0.8167093704245973
0.013914217488992554,0.816800878477306
0.013919255221609857,0.816800878477306
0.013919255221609857,0.8168923865300146
0.013924292954227162,0.8168923865300146
0.013924292954227162,0.8170754026354319
0.013929330686844465,0.8170754026354319
0.013929330686844465,0.8173499267935578
0.013934368419461768,0.8173499267935578
0.013934368419461768,0.8174414348462665
0.013944443884696376,0.8174414348462665
0.013944443884696376,0.8175329428989752
0.01396459481516559,0.8175329428989752
0.01396459481516559,0.8176244509516838
0.013994821210869412,0.8176244509516838
0.013994821210869412,0.8177159590043924
0.014009934408721322,0.8177159590043924
0.014009934408721322,0.8178074670571011
0.014070387200128966,0.8178074670571011
0.014070387200128966,0.8179904831625183
0.01407542493274627,0.8179904831625183
0.01407542493274627,0.8181734992679356
0.01409053813059818,0.8181734992679356
0.01409053813059818,0.8183565153733529
0.01410565132845009,0.8183565153733529
0.01410565132845009,0.8185395314787701
0.014110689061067395,0.8185395314787701
0.014110689061067395,0.8186310395314788
0.014125802258919306,0.8186310395314788
0.014125802258919306,0.818814055636896
0.014130839991536609,0.818814055636896
0.014130839991536609,0.8189055636896047
0.014140915456771217,0.8189055636896047
0.014140915456771217,0.8189970717423133
0.01416106638724043,0.8189970717423133
0.01416106638724043,0.8190885797950219
0.014166104119857734,0.8190885797950219
0.014166104119857734,0.8191800878477306
0.014191292782944252,0.8191800878477306
0.014191292782944252,0.8194546120058566
0.014221519178648074,0.8194546120058566
0.014221519178648074,0.8196376281112738
0.014281971970055717,0.8196376281112738
0.014281971970055717,0.8198206442166911
0.014307160633142236,0.8198206442166911
0.014307160633142236,0.8199121522693997
0.014322273830994147,0.8199121522693997
0.014322273830994147,0.8201866764275256
0.014337387028846058,0.8201866764275256
0.014337387028846058,0.8202781844802343
0.014347462494080664,0.8202781844802343
0.014347462494080664,0.8203696925329429
0.01436761342454988,0.8203696925329429
