fpr,tpr
0.0,0.0
1.6518004625041296e-05,0.0
1.6518004625041296e-05,0.0006944444444444445
3.303600925008259e-05,0.0006944444444444445
3.303600925008259e-05,0.004166666666666667
4.955401387512388e-05,0.004166666666666667
4.955401387512388e-05,0.0125
6.607201850016519e-05,0.0125
6.607201850016519e-05,0.03194444444444444
8.259002312520647e-05,0.03194444444444444
8.259002312520647e-05,0.03819444444444445
9.910802775024777e-05,0.03819444444444445
9.910802775024777e-05,0.06458333333333334
0.00011562603237528906,0.06458333333333334
0.00011562603237528906,0.06944444444444445
0.00014866204162537167,0.06944444444444445
0.00014866204162537167,0.07361111111111111
0.00016518004625041294,0.07361111111111111
0.00016518004625041294,0.07916666666666666
0.00018169805087545423,0.07916666666666666
0.00018169805087545423,0.08958333333333333
0.00018169805087545423,0.09097222222222222
0.00018169805087545423,0.11527777777777778
0.00019821605550049553,0.11527777777777778
0.00019821605550049553,0.11736111111111111
0.00019821605550049553,0.11875
0.00019821605550049553,0.11944444444444445
0.00021473406012553683,0.11944444444444445
0.00021473406012553683,0.125
0.00023125206475057812,0.125
0.00023125206475057812,0.12708333333333333
0.00023125206475057812,0.1284722222222222
0.00023125206475057812,0.12986111111111112
0.0002477700693756194,0.12986111111111112
0.0002477700693756194,0.13333333333333333
0.00026428807400066074,0.13333333333333333
0.00026428807400066074,0.14583333333333334
0.000280806078625702,0.14583333333333334
0.000280806078625702,0.15625
0.0003138420878757846,0.15625
0.0003138420878757846,0.1597222222222222
0.0003303600925008259,0.1597222222222222
0.0003303600925008259,0.16666666666666666
0.0003468780971258672,0.16666666666666666
0.0003468780971258672,0.17291666666666666
0.00036339610175090847,0.17291666666666666
0.00036339610175090847,0.18819444444444444
0.00036339610175090847,0.18958333333333333
0.00036339610175090847,0.1909722222222222
0.0003799141063759498,0.1909722222222222
0.0003799141063759498,0.19305555555555556
0.00039643211100099106,0.19305555555555556
0.00039643211100099106,0.1986111111111111
0.0004129501156260324,0.1986111111111111
0.0004129501156260324,0.20208333333333334
0.00042946812025107365,0.20208333333333334
0.00042946812025107365,0.20347222222222222
0.00046250412950115625,0.20347222222222222
0.00046250412950115625,0.21388888888888888
0.00047902213412619757,0.21388888888888888
0.00047902213412619757,0.21666666666666667
0.0004955401387512388,0.21666666666666667
0.0004955401387512388,0.21944444444444444
0.0005285761480013215,0.21944444444444444
0.0005285761480013215,0.23819444444444443
0.0005450941526263627,0.23819444444444443
0.0005450941526263627,0.2520833333333333
0.000561612157251404,0.2520833333333333
0.000561612157251404,0.25416666666666665
0.0005781301618764453,0.25416666666666665
0.0005781301618764453,0.25625
0.0006111661711265279,0.25625
0.0006111661711265279,0.25972222222222224
0.0006111661711265279,0.2611111111111111
0.0006111661711265279,0.26458333333333334
0.0006276841757515692,0.26458333333333334
0.0006276841757515692,0.2722222222222222
0.0006442021803766105,0.2722222222222222
0.0006442021803766105,0.27708333333333335
0.0006607201850016518,0.27708333333333335
0.0006607201850016518,0.2791666666666667
0.0006772381896266931,0.2791666666666667
0.0006772381896266931,0.28125
0.0006937561942517344,0.28125
0.0006937561942517344,0.2847222222222222
0.0007102741988767757,0.2847222222222222
0.0007102741988767757,0.29097222222222224
0.0007267922035018169,0.29097222222222224
0.0007267922035018169,0.2923611111111111
0.0007433102081268583,0.2923611111111111
0.0007433102081268583,0.29444444444444445
0.0007598282127518996,0.2951388888888889
0.0007598282127518996,0.2965277777777778
0.0007598282127518996,0.2972222222222222
0.0007763462173769409,0.2972222222222222
0.0007763462173769409,0.30625
0.0007763462173769409,0.3076388888888889
0.0007763462173769409,0.3125
0.0008093822266270234,0.3125
0.0008093822266270234,0.3145833333333333
0.0008259002312520648,0.3145833333333333
0.0008259002312520648,0.3173611111111111
0.0008424182358771061,0.3173611111111111
0.0008424182358771061,0.32013888888888886
0.0008754542451271886,0.32013888888888886
0.0008754542451271886,0.33611111111111114
0.00089197224975223,0.33611111111111114
0.00089197224975223,0.3423611111111111
0.0009084902543772713,0.3423611111111111
0.0009084902543772713,0.34652777777777777
0.0009250082590023125,0.34652777777777777
0.0009250082590023125,0.34930555555555554
0.0009415262636273538,0.34930555555555554
0.0009415262636273538,0.3548611111111111
0.0009580442682523951,0.3548611111111111
0.0009580442682523951,0.35555555555555557
0.0009745622728774364,0.35555555555555557
0.0009745622728774364,0.3638888888888889
0.0009910802775024777,0.3638888888888889
0.0009910802775024777,0.36875
0.001007598282127519,0.36875
0.001007598282127519,0.3784722222222222
0.0010241162867525603,0.3784722222222222
0.0010241162867525603,0.38333333333333336
0.0010406342913776017,0.38333333333333336
0.0010406342913776017,0.38680555555555557
0.001057152296002643,0.38680555555555557
0.001057152296002643,0.3993055555555556
0.001073670300627684,0.3993055555555556
0.001073670300627684,0.40208333333333335
0.0010901883052527254,0.40208333333333335
0.0010901883052527254,0.40625
0.0011067063098777667,0.40625
0.0011067063098777667,0.4076388888888889
0.001123224314502808,0.4076388888888889
0.001123224314502808,0.40902777777777777
0.0011397423191278494,0.40902777777777777
0.0011397423191278494,0.41180555555555554
0.0011562603237528907,0.41180555555555554
0.001172778328377932,0.4125
0.0011892963330029733,0.4125
0.0011892963330029733,0.4166666666666667
0.0011892963330029733,0.41805555555555557
0.0012223323422530558,0.41805555555555557
0.0012223323422530558,0.42291666666666666
0.001238850346878097,0.42291666666666666
0.001238850346878097,0.43194444444444446
0.0012553683515031384,0.43194444444444446
0.0012553683515031384,0.43819444444444444
0.0012718863561281797,0.43819444444444444
0.0012718863561281797,0.4409722222222222
0.001288404360753221,0.4409722222222222
0.001288404360753221,0.44375
0.0013379583746283448,0.44375
0.0013379583746283448,0.44722222222222224
0.0013544763792533861,0.44722222222222224
0.0013544763792533861,0.45208333333333334
0.0013709943838784275,0.45208333333333334
0.0013709943838784275,0.4576388888888889
0.0013875123885034688,0.4576388888888889
0.0013875123885034688,0.4597222222222222
0.0014040303931285101,0.4597222222222222
0.0014040303931285101,0.46111111111111114
0.0014205483977535514,0.46111111111111114
0.0014205483977535514,0.4666666666666667
0.0014370664023785928,0.4666666666666667
0.0014370664023785928,0.47152777777777777
0.0014535844070036339,0.47152777777777777
0.0014535844070036339,0.47291666666666665
0.0014866204162537165,0.47291666666666665
0.0014866204162537165,0.47638888888888886
0.0015031384208787578,0.47638888888888886
0.0015031384208787578,0.47708333333333336
0.0015196564255037992,0.47708333333333336
0.0015196564255037992,0.4791666666666667
0.0015361744301288405,0.4791666666666667
0.0015361744301288405,0.48194444444444445
0.001569210439378923,0.48194444444444445
0.001569210439378923,0.48333333333333334
0.0016022464486290056,0.48333333333333334
0.0016022464486290056,0.48541666666666666
0.0016352824578790882,0.48541666666666666
0.0016352824578790882,0.49027777777777776
0.0016518004625041295,0.49027777777777776
0.0016518004625041295,0.49236111111111114
0.0016683184671291709,0.49236111111111114
0.0016683184671291709,0.49375
0.0016848364717542122,0.49375
0.0016848364717542122,0.4951388888888889
0.0017013544763792533,0.4951388888888889
0.0017013544763792533,0.4986111111111111
0.0017178724810042946,0.4986111111111111
0.0017178724810042946,0.5020833333333333
0.001734390485629336,0.5020833333333333
0.001734390485629336,0.5034722222222222
0.0017509084902543773,0.5034722222222222
0.0017509084902543773,0.5041666666666667
0.00178394449950446,0.5041666666666667
0.00178394449950446,0.5076388888888889
0.0018004625041295012,0.5076388888888889
0.0018004625041295012,0.5104166666666666
0.0018334985133795837,0.5104166666666666
0.0018334985133795837,0.5111111111111111
0.0018665345226296663,0.5111111111111111
0.0018665345226296663,0.5125
0.001899570531879749,0.5125
0.001899570531879749,0.5145833333333333
0.0019160885365047903,0.5145833333333333
0.0019160885365047903,0.5152777777777777
0.0019326065411298316,0.5152777777777777
0.0019326065411298316,0.5159722222222223
0.0019821605550049554,0.5159722222222223
0.0019821605550049554,0.5173611111111112
0.0019986785596299967,0.5173611111111112
0.0019986785596299967,0.5180555555555556
0.0020317145688800793,0.5180555555555556
0.0020317145688800793,0.5201388888888889
0.0020482325735051207,0.5201388888888889
0.0020482325735051207,0.5208333333333334
0.002064750578130162,0.5208333333333334
0.002064750578130162,0.5256944444444445
0.0020812685827552033,0.5256944444444445
0.0020812685827552033,0.5270833333333333
0.0020977865873802446,0.5270833333333333
0.0020977865873802446,0.5277777777777778
0.002114304592005286,0.5277777777777778
0.002114304592005286,0.5319444444444444
0.0021308225966303273,0.5319444444444444
0.0021308225966303273,0.5326388888888889
0.002180376610505451,0.5326388888888889
0.002180376610505451,0.5333333333333333
0.0022299306243805748,0.5333333333333333
0.0022299306243805748,0.5340277777777778
0.002246448629005616,0.5340277777777778
0.002246448629005616,0.5347222222222222
0.0022629666336306574,0.5347222222222222
0.0022629666336306574,0.5361111111111111
0.00229600264288074,0.5361111111111111
0.00229600264288074,0.5368055555555555
0.0023620746613809054,0.5368055555555555
0.0023620746613809054,0.5381944444444444
0.0023785926660059467,0.5381944444444444
0.0023785926660059467,0.5423611111111111
0.0023951106706309876,0.5423611111111111
0.0023951106706309876,0.5430555555555555
0.002411628675256029,0.5430555555555555
0.002411628675256029,0.54375
0.002411628675256029,0.5451388888888888
0.0024446646845061116,0.5451388888888888
0.0024446646845061116,0.5458333333333333
0.002461182689131153,0.5458333333333333
0.002461182689131153,0.5520833333333334
0.002477700693756194,0.5520833333333334
0.002477700693756194,0.5541666666666667
0.0024942186983812355,0.5541666666666667
0.0024942186983812355,0.5604166666666667
0.002510736703006277,0.5604166666666667
0.002510736703006277,0.5611111111111111
0.0025437727122563595,0.5611111111111111
0.0025437727122563595,0.5666666666666667
0.002560290716881401,0.5666666666666667
0.002560290716881401,0.5673611111111111
0.002609844730756525,0.5673611111111111
0.002609844730756525,0.5694444444444444
0.002626362735381566,0.5694444444444444
0.002626362735381566,0.5708333333333333
0.002642880740006607,0.5708333333333333
0.002642880740006607,0.5729166666666666
0.0026593987446316483,0.5729166666666666
0.0026593987446316483,0.5743055555555555
0.002692434753881731,0.5743055555555555
0.002692434753881731,0.575
0.0027089527585067723,0.575
0.0027089527585067723,0.5770833333333333
0.002741988767756855,0.5770833333333333
0.002741988767756855,0.5798611111111112
0.002791542781631979,0.5798611111111112
0.002791542781631979,0.5840277777777778
0.0028080607862570202,0.5840277777777778
0.0028080607862570202,0.5868055555555556
0.0028245787908820616,0.5868055555555556
0.0028245787908820616,0.5888888888888889
0.0028741328047571855,0.5888888888888889
0.0028741328047571855,0.5902777777777778
0.0028741328047571855,0.5916666666666667
0.0028741328047571855,0.5930555555555556
0.0029071688140072677,0.5930555555555556
0.0029071688140072677,0.5951388888888889
0.002923686818632309,0.5951388888888889
0.002923686818632309,0.5958333333333333
0.002973240832507433,0.5958333333333333
0.002973240832507433,0.6
0.0029897588371324744,0.6
0.0029897588371324744,0.6069444444444444
0.0030062768417575157,0.6069444444444444
0.0030393128510075983,0.6069444444444444
0.0030393128510075983,0.6097222222222223
0.003072348860257681,0.6097222222222223
0.003072348860257681,0.6104166666666667
0.0031053848695077636,0.6104166666666667
0.0031053848695077636,0.6125
0.003138420878757846,0.6125
0.003138420878757846,0.6138888888888889
0.003154938883382887,0.6138888888888889
0.003154938883382887,0.6145833333333334
0.00318797489263297,0.6145833333333334
0.00318797489263297,0.6152777777777778
0.003237528906508094,0.6152777777777778
0.003237528906508094,0.6159722222222223
0.003254046911133135,0.6159722222222223
0.003254046911133135,0.6194444444444445
0.0032870829203832178,0.6194444444444445
0.0032870829203832178,0.6208333333333333
0.0033201189296333004,0.6208333333333333
0.0033201189296333004,0.6215277777777778
0.0034027089527585066,0.6215277777777778
0.0034027089527585066,0.6222222222222222
0.003419226957383548,0.6222222222222222
0.003419226957383548,0.6229166666666667
0.0034357449620085892,0.6229166666666667
0.0034357449620085892,0.6243055555555556
0.003485298975883713,0.6243055555555556
0.003485298975883713,0.6256944444444444
0.0035018169805087545,0.6256944444444444
0.0035018169805087545,0.6291666666666667
0.003518334985133796,0.6291666666666667
0.003518334985133796,0.6298611111111111
0.003534852989758837,0.6298611111111111
0.003534852989758837,0.6326388888888889
0.0035513709943838785,0.6326388888888889
0.0035513709943838785,0.6333333333333333
0.00356788899900892,0.6333333333333333
0.00356788899900892,0.6340277777777777
0.003617443012884044,0.6340277777777777
0.003617443012884044,0.6361111111111111
0.003633961017509085,0.6361111111111111
0.003633961017509085,0.6375
0.003633961017509085,0.6388888888888888
0.003633961017509085,0.6395833333333333
0.0036669970267591673,0.6395833333333333
0.0036669970267591673,0.6402777777777777
0.003749587049884374,0.6402777777777777
0.003749587049884374,0.6416666666666667
0.0038156590683845392,0.6416666666666667
0.0038156590683845392,0.6423611111111112
0.0038321770730095806,0.6423611111111112
0.0038321770730095806,0.6430555555555556
0.003848695077634622,0.6430555555555556
0.003848695077634622,0.6444444444444445
0.003865213082259663,0.6444444444444445
0.003865213082259663,0.6465277777777778
0.003914767096134787,0.6465277777777778
0.003914767096134787,0.65
0.003931285100759828,0.65
0.003931285100759828,0.6513888888888889
0.00394780310538487,0.6513888888888889
0.00394780310538487,0.6520833333333333
0.003964321110009911,0.6520833333333333
0.003964321110009911,0.6534722222222222
0.003997357119259993,0.6534722222222222
0.003997357119259993,0.6548611111111111
0.004013875123885034,0.6548611111111111
0.004013875123885034,0.6576388888888889
0.004030393128510076,0.6576388888888889
0.004030393128510076,0.6590277777777778
0.004046911133135117,0.6590277777777778
0.004046911133135117,0.6604166666666667
0.004096465147010241,0.6604166666666667
0.004096465147010241,0.6631944444444444
0.004112983151635282,0.6631944444444444
0.004112983151635282,0.6638888888888889
0.004162537165510407,0.6638888888888889
0.004162537165510407,0.6652777777777777
0.0042781631978856954,0.6652777777777777
0.0042781631978856954,0.6659722222222222
0.004344235216385861,0.6659722222222222
0.004344235216385861,0.6666666666666666
0.004393789230260984,0.6666666666666666
0.004393789230260984,0.66875
0.004443343244136109,0.66875
0.004443343244136109,0.6694444444444444
0.0044598612487611496,0.6694444444444444
0.0044598612487611496,0.6701388888888888
0.004476379253386191,0.6701388888888888
0.004476379253386191,0.6708333333333333
0.004509415262636274,0.6708333333333333
0.004509415262636274,0.6715277777777777
0.004542451271886356,0.6715277777777777
0.004542451271886356,0.6743055555555556
0.00459200528576148,0.6743055555555556
0.00459200528576148,0.675
0.004608523290386521,0.675
0.004608523290386521,0.6763888888888889
0.004674595308886686,0.6763888888888889
0.004674595308886686,0.6770833333333334
0.004740667327386852,0.6770833333333334
0.004740667327386852,0.6777777777777778
0.004757185332011893,0.6777777777777778
0.004757185332011893,0.6791666666666667
0.004790221341261975,0.6791666666666667
0.004790221341261975,0.68125
0.004806739345887017,0.68125
0.004806739345887017,0.6819444444444445
0.004823257350512058,0.6819444444444445
0.004823257350512058,0.6840277777777778
0.004889329369012223,0.6840277777777778
0.004889329369012223,0.6847222222222222
0.00497191939213743,0.6847222222222222
0.00497191939213743,0.6854166666666667
0.004988437396762471,0.6854166666666667
0.004988437396762471,0.6875
0.005021473406012554,0.6875
0.005021473406012554,0.6881944444444444
0.005037991410637595,0.6881944444444444
0.005037991410637595,0.6888888888888889
0.005054509415262636,0.6888888888888889
0.005054509415262636,0.6895833333333333
0.00510406342913776,0.6895833333333333
0.00510406342913776,0.6909722222222222
0.0052362074661380905,0.6909722222222222
0.0052362074661380905,0.6916666666666667
0.005252725470763132,0.6916666666666667
0.005252725470763132,0.6923611111111111
0.005285761480013214,0.6923611111111111
0.005285761480013214,0.6930555555555555
0.005401387512388504,0.6930555555555555
0.005401387512388504,0.69375
0.005417905517013545,0.69375
0.005417905517013545,0.6944444444444444
0.005500495540138752,0.6944444444444444
0.005500495540138752,0.6958333333333333
0.0055170135447637925,0.6958333333333333
0.0055170135447637925,0.6965277777777777
0.005583085563263958,0.6965277777777777
0.005583085563263958,0.6986111111111111
0.005632639577139081,0.6986111111111111
0.005632639577139081,0.7
0.005649157581764123,0.7
0.005649157581764123,0.7020833333333333
0.005665675586389164,0.7020833333333333
0.005665675586389164,0.7027777777777777
0.005698711595639247,0.7027777777777777
0.005715229600264288,0.7027777777777777
0.005715229600264288,0.7034722222222223
0.005764783614139412,0.7034722222222223
0.005764783614139412,0.7048611111111112
0.005781301618764453,0.7048611111111112
0.005781301618764453,0.70625
0.005830855632639577,0.70625
0.005830855632639577,0.7069444444444445
0.00586389164188966,0.7069444444444445
0.00586389164188966,0.7076388888888889
0.005880409646514701,0.7076388888888889
0.005880409646514701,0.7090277777777778
0.0058969276511397425,0.7090277777777778
0.0058969276511397425,0.7097222222222223
0.005946481665014866,0.7097222222222223
0.005946481665014866,0.7104166666666667
0.005979517674264949,0.7104166666666667
0.005979517674264949,0.7118055555555556
0.006045589692765114,0.7118055555555556
0.006045589692765114,0.7125
0.006177733729765445,0.7125
0.006177733729765445,0.7131944444444445
0.0061942517343904855,0.7131944444444445
0.0061942517343904855,0.7138888888888889
0.006210769739015527,0.7138888888888889
0.006210769739015527,0.7145833333333333
0.00624380574826561,0.7145833333333333
0.00624380574826561,0.7152777777777778
0.006342913776015857,0.7152777777777778
0.006342913776015857,0.7166666666666667
0.006359431780640899,0.7166666666666667
0.006359431780640899,0.71875
0.006458539808391147,0.71875
0.006458539808391147,0.7201388888888889
0.006640237859266601,0.7201388888888889
0.006640237859266601,0.7208333333333333
0.006788899900891972,0.7208333333333333
0.006788899900891972,0.7215277777777778
0.006805417905517013,0.7215277777777778
0.006805417905517013,0.7222222222222222
0.006821935910142055,0.7222222222222222
0.006821935910142055,0.7229166666666667
0.006854971919392138,0.7229166666666667
0.006854971919392138,0.7243055555555555
0.006937561942517344,0.7243055555555555
0.006937561942517344,0.725
0.006987115956392468,0.725
0.006987115956392468,0.7256944444444444
0.007003633961017509,0.7256944444444444
0.007003633961017509,0.7263888888888889
0.007053187974892633,0.7263888888888889
0.007053187974892633,0.7277777777777777
0.007168814007267922,0.7277777777777777
0.007168814007267922,0.7284722222222222
0.007185332011892963,0.7284722222222222
0.007185332011892963,0.7291666666666666
0.007218368021143046,0.7291666666666666
0.007218368021143046,0.7298611111111111
0.007416584076643542,0.7298611111111111
0.007416584076643542,0.7305555555555555
0.007581764122893954,0.7305555555555555
0.007581764122893954,0.73125
0.007598282127518996,0.73125
0.007598282127518996,0.7319444444444444
0.007697390155269244,0.7319444444444444
0.007697390155269244,0.7326388888888888
0.007713908159894285,0.7326388888888888
0.007713908159894285,0.7333333333333333
0.007746944169144367,0.7333333333333333
0.007746944169144367,0.7347222222222223
0.007796498183019491,0.7347222222222223
0.007796498183019491,0.7361111111111112
0.00791212421539478,0.7361111111111112
0.00791212421539478,0.7368055555555556
0.007928642220019821,0.7368055555555556
0.007928642220019821,0.7375
0.007961678229269905,0.7375
0.007961678229269905,0.7381944444444445
0.008027750247770069,0.7381944444444445
0.008027750247770069,0.7388888888888889
0.008060786257020152,0.7388888888888889
0.008060786257020152,0.7402777777777778
0.008126858275520317,0.7402777777777778
0.008126858275520317,0.7409722222222223
0.008341592335645853,0.7409722222222223
0.008341592335645853,0.7416666666666667
0.008374628344895937,0.7416666666666667
0.008374628344895937,0.7423611111111111
0.008391146349520979,0.7423611111111111
0.008391146349520979,0.74375
0.008473736372646184,0.74375
0.008473736372646184,0.7444444444444445
0.008572844400396433,0.7444444444444445
0.008572844400396433,0.7451388888888889
0.008622398414271556,0.7451388888888889
0.008622398414271556,0.7458333333333333
0.008688470432771721,0.7458333333333333
0.008688470432771721,0.7465277777777778
0.008771060455896929,0.7465277777777778
0.008771060455896929,0.7472222222222222
0.008787578460521969,0.7472222222222222
0.008787578460521969,0.7479166666666667
0.00880409646514701,0.7479166666666667
0.00880409646514701,0.7486111111111111
0.008853650479022134,0.7486111111111111
0.008853650479022134,0.7493055555555556
0.008870168483647176,0.7493055555555556
0.008870168483647176,0.75
0.008903204492897257,0.75
0.008903204492897257,0.7506944444444444
0.008952758506772383,0.7506944444444444
0.008952758506772383,0.7513888888888889
0.008969276511397423,0.7513888888888889
0.008969276511397423,0.7520833333333333
0.009035348529897588,0.7520833333333333
0.009035348529897588,0.7527777777777778
0.009101420548397753,0.7527777777777778
0.009101420548397753,0.7534722222222222
0.00918401057152296,0.7534722222222222
0.00918401057152296,0.7541666666666667
0.009217046580773042,0.7541666666666667
0.009217046580773042,0.7555555555555555
0.009398744631648496,0.7555555555555555
0.009398744631648496,0.75625
0.009448298645523621,0.75625
0.009464816650148661,0.7569444444444444
0.009464816650148661,0.7576388888888889
0.009844730756524612,0.7576388888888889
0.009844730756524612,0.7583333333333333
0.009877766765774695,0.7583333333333333
0.009877766765774695,0.7590277777777777
0.009910802775024777,0.7590277777777777
0.009910802775024777,0.7597222222222222
0.010125536835150314,0.7597222222222222
0.010125536835150314,0.7604166666666666
0.010158572844400396,0.7604166666666666
0.010158572844400396,0.7611111111111111
0.01019160885365048,0.7611111111111111
0.01019160885365048,0.7618055555555555
0.010241162867525603,0.7618055555555555
0.010241162867525603,0.7625
0.010274198876775685,0.7625
0.010274198876775685,0.7631944444444444
0.0104393789230261,0.7631944444444444
0.0104393789230261,0.7638888888888888
0.010637594978526593,0.7638888888888888
0.010637594978526593,0.7645833333333333
0.010703666997026759,0.7645833333333333
0.010703666997026759,0.7652777777777777
0.010753221010901884,0.7652777777777777
0.010786257020151966,0.7652777777777777
0.010868847043277173,0.7652777777777777
0.010868847043277173,0.7666666666666667
0.01096795507102742,0.7666666666666667
0.01096795507102742,0.7673611111111112
0.010984473075652462,0.7673611111111112
0.010984473075652462,0.7680555555555556
0.011182689131152957,0.7680555555555556
0.01121572514040304,0.7680555555555556
0.011364387182028412,0.7680555555555556
0.011364387182028412,0.7701388888888889
0.011496531219028742,0.7701388888888889
0.011496531219028742,0.7708333333333334
0.011562603237528906,0.7708333333333334
0.01159563924677899,0.7708333333333334
0.011645193260654113,0.7708333333333334
0.011645193260654113,0.7715277777777778
0.011777337297654443,0.7715277777777778
0.011777337297654443,0.7722222222222223
0.01197555335315494,0.7722222222222223
0.01197555335315494,0.7729166666666667
0.012421539478031055,0.7729166666666667
0.012421539478031055,0.7736111111111111
0.012553683515031383,0.7736111111111111
0.012553683515031383,0.7756944444444445
0.012801453584407003,0.7756944444444445
0.012801453584407003,0.7763888888888889
0.012851007598282128,0.7763888888888889
0.01288404360753221,0.7763888888888889
0.012900561612157252,0.7763888888888889
0.012933597621407333,0.7763888888888889
0.013032705649157582,0.7763888888888889
0.013032705649157582,0.7770833333333333
0.013115295672282788,0.7770833333333333
0.013115295672282788,0.7777777777777778
0.013181367690782953,0.7777777777777778
0.013181367690782953,0.7784722222222222
0.013429137760158572,0.7784722222222222
0.013429137760158572,0.7791666666666667
0.013610835811034026,0.7791666666666667
0.013610835811034026,0.7798611111111111
0.013809051866534522,0.7798611111111111
0.013809051866534522,0.7805555555555556
0.013941195903534853,0.7805555555555556
0.013941195903534853,0.78125
0.014040303931285102,0.78125
0.014040303931285102,0.7819444444444444
0.014139411959035349,0.7819444444444444
0.014139411959035349,0.7826388888888889
0.01415592996366039,0.7826388888888889
0.01415592996366039,0.7833333333333333
0.014222001982160556,0.7833333333333333
0.014222001982160556,0.7847222222222222
0.014238519986785596,0.7847222222222222
0.01427155599603568,0.7847222222222222
0.014370664023785926,0.7847222222222222
0.014370664023785926,0.7861111111111111
0.014519326065411299,0.7861111111111111
0.01455236207466138,0.7861111111111111
0.01466798810703667,0.7861111111111111
0.01466798810703667,0.7868055555555555
0.01478361413941196,0.7868055555555555
0.01478361413941196,0.7875
0.014833168153287083,0.7875
0.014833168153287083,0.7881944444444444
0.014882722167162207,0.7881944444444444
0.014882722167162207,0.7888888888888889
0.01504790221341262,0.7888888888888889
0.01504790221341262,0.7895833333333333
0.015064420218037661,0.7895833333333333
0.015064420218037661,0.7902777777777777
0.015080938222662703,0.7902777777777777
0.015080938222662703,0.7909722222222222
0.015213082259663033,0.7909722222222222
0.015213082259663033,0.7923611111111111
0.01531219028741328,0.7923611111111111
0.01531219028741328,0.7930555555555555
0.015394780310538488,0.7930555555555555
0.015394780310538488,0.79375
0.015411298315163528,0.79375
0.015411298315163528,0.7944444444444444
0.015493888338288735,0.7944444444444444
0.015493888338288735,0.7951388888888888
0.01567558638916419,0.7951388888888888
0.01567558638916419,0.7958333333333333
0.01569210439378923,0.7958333333333333
0.01569210439378923,0.7965277777777777
0.015708622398414272,0.7965277777777777
0.015708622398414272,0.7972222222222223
0.015857284440039643,0.7972222222222223
0.015857284440039643,0.7979166666666667
0.015890320449289726,0.7979166666666667
0.015890320449289726,0.7986111111111112
0.016138090518665344,0.7986111111111112
0.016138090518665344,0.7993055555555556
0.016171126527915428,0.7993055555555556
0.016171126527915428,0.8
0.01620416253716551,0.8
0.016286752560290718,0.8
0.016286752560290718,0.8013888888888889
0.016484968615791212,0.8013888888888889
0.016484968615791212,0.8020833333333334
0.016501486620416252,0.8020833333333334
0.016501486620416252,0.8027777777777778
0.01658407664354146,0.8027777777777778
0.01658407664354146,0.8034722222222223
0.016600594648166503,0.8034722222222223
0.016600594648166503,0.8041666666666667
0.017030062768417575,0.8041666666666667
0.017030062768417575,0.8048611111111111
0.017063098777667658,0.8048611111111111
0.017063098777667658,0.8055555555555556
0.017129170796167822,0.8055555555555556
0.017129170796167822,0.8069444444444445
0.01732738685166832,0.8069444444444445
0.01732738685166832,0.8076388888888889
0.017426494879418566,0.8076388888888889
0.017426494879418566,0.8083333333333333
0.017773372976544435,0.8083333333333333
0.017773372976544435,0.8097222222222222
0.01825239511067063,0.8097222222222222
0.01825239511067063,0.8104166666666667
0.018351503138420877,0.8104166666666667
0.018351503138420877,0.8111111111111111
0.0191608853650479,0.8111111111111111
0.0191608853650479,0.8118055555555556
0.01937561942517344,0.8118055555555556
0.01937561942517344,0.8125
0.019425173439048562,0.8125
0.019425173439048562,0.8131944444444444
0.019524281466798812,0.8131944444444444
0.019524281466798812,0.8138888888888889
0.01962338949454906,0.8138888888888889
0.01962338949454906,0.8145833333333333
0.019854641559299637,0.8145833333333333
0.019854641559299637,0.8152777777777778
0.019937231582424844,0.8152777777777778
0.019937231582424844,0.8159722222222222
0.020003303600925008,0.8159722222222222
0.020003303600925008,0.8166666666666667
0.02005285761480013,0.8166666666666667
0.02005285761480013,0.8180555555555555
0.02013544763792534,0.8180555555555555
0.02013544763792534,0.81875
0.02025107367030063,0.81875
0.02025107367030063,0.8194444444444444
0.02028410967955071,0.8194444444444444
0.02028410967955071,0.8201388888888889
0.020350181698050876,0.8201388888888889
0.020350181698050876,0.8215277777777777
0.020399735711926,0.8215277777777777
0.020399735711926,0.8222222222222222
0.020746613809051868,0.8222222222222222
0.020746613809051868,0.8229166666666666
0.020944829864552362,0.8229166666666666
0.020944829864552362,0.8236111111111111
0.021126527915427816,0.8236111111111111
0.021126527915427816,0.8243055555555555
0.021225635943178063,0.8243055555555555
0.021225635943178063,0.825
0.02129170796167823,0.825
0.02129170796167823,0.8256944444444444
0.021489924017178724,0.8256944444444444
0.021489924017178724,0.8263888888888888
0.021522960026428808,0.8263888888888888
0.021522960026428808,0.8270833333333333
0.021688140072679222,0.8270833333333333
0.021721176081929302,0.8270833333333333
0.021754212091179385,0.8270833333333333
0.021754212091179385,0.8277777777777777
0.02206805417905517,0.8277777777777777
0.02206805417905517,0.8284722222222223
0.022249752229930624,0.8284722222222223
0.022282788239180708,0.8284722222222223
0.02243145028080608,0.8284722222222223
0.02243145028080608,0.8291666666666667
0.02271225635943178,0.8291666666666667
0.02271225635943178,0.8298611111111112
0.022877436405682194,0.8298611111111112
0.022877436405682194,0.8305555555555556
0.023240832507433102,0.8305555555555556
0.023240832507433102,0.83125
0.02332342253055831,0.83125
0.02332342253055831,0.8319444444444445
0.023372976544433433,0.8319444444444445
0.023372976544433433,0.8326388888888889
0.023389494549058473,0.8326388888888889
0.023389494549058473,0.8333333333333334
0.023703336636934257,0.8333333333333334
0.023703336636934257,0.8340277777777778
0.024000660720185002,0.8340277777777778
0.024000660720185002,0.8347222222222223
0.024132804757185333,0.8347222222222223
0.024132804757185333,0.8354166666666667
0.02421539478031054,0.8354166666666667
0.02424843078956062,0.8354166666666667
0.024297984803435747,0.8354166666666667
0.024297984803435747,0.8361111111111111
0.024661380905186655,0.8361111111111111
0.024661380905186655,0.8375
0.024777006937561942,0.8375
0.024777006937561942,0.8381944444444445
0.024958704988437396,0.8381944444444445
0.024958704988437396,0.8388888888888889
0.02500825900231252,0.8388888888888889
0.02500825900231252,0.8395833333333333
0.025338619094813348,0.8395833333333333
0.025338619094813348,0.8402777777777778
0.02538817310868847,0.8402777777777778
0.02542120911793855,0.8402777777777778
0.025685497191939213,0.8402777777777778
0.025685497191939213,0.8416666666666667
0.026131483316815328,0.8416666666666667
0.026131483316815328,0.8423611111111111
0.02652791542781632,0.8423611111111111
0.02652791542781632,0.8430555555555556
0.02667657746944169,0.8430555555555556
0.02667657746944169,0.84375
0.02702345556656756,0.84375
0.02702345556656756,0.8444444444444444
0.0270399735711926,0.8444444444444444
0.0270399735711926,0.8451388888888889
0.027205153617443013,0.8451388888888889
0.027205153617443013,0.8458333333333333
0.027452923686818634,0.8458333333333333
0.027452923686818634,0.8472222222222222
0.027485959696068714,0.8472222222222222
0.027485959696068714,0.8479166666666667
0.027601585728444004,0.8479166666666667
0.027601585728444004,0.8486111111111111
0.027981499834819953,0.8486111111111111
0.027981499834819953,0.8493055555555555
0.028245787908820614,0.8493055555555555
0.028245787908820614,0.85
0.028377931945820944,0.85
0.028377931945820944,0.8506944444444444
0.028410967955071028,0.8506944444444444
0.028410967955071028,0.8527777777777777
0.02846052196894615,0.8527777777777777
0.02846052196894615,0.8534722222222222
0.028592666005946482,0.8534722222222222
0.028625702015196566,0.8534722222222222
0.028625702015196566,0.8548611111111111
0.028906508093822267,0.8548611111111111
0.028906508093822267,0.8555555555555555
0.029286422200198215,0.8555555555555555
0.029286422200198215,0.85625
0.02956722827882392,0.85625
0.02956722827882392,0.8569444444444444
0.029897588371324745,0.8569444444444444
0.029930624380574828,0.8569444444444444
0.030161876445325406,0.8569444444444444
0.030161876445325406,0.8583333333333333
0.03022794846382557,0.8583333333333333
0.030260984473075653,0.8583333333333333
0.030723488602576808,0.8583333333333333
0.030723488602576808,0.8590277777777777
0.030806078625702015,0.8590277777777777
0.030806078625702015,0.8597222222222223
0.031070366699702676,0.8597222222222223
0.03110340270895276,0.8597222222222223
0.03125206475057813,0.8597222222222223
0.03128510075982821,0.8597222222222223
0.031301618764453254,0.8597222222222223
0.031301618764453254,0.8604166666666667
0.031334654773703334,0.8604166666666667
0.031334654773703334,0.8611111111111112
0.031863230921704656,0.8611111111111112
0.031863230921704656,0.8618055555555556
0.03275520317145689,0.8618055555555556
0.03275520317145689,0.8625
0.0328377931945821,0.8625
0.0328377931945821,0.8631944444444445
0.032936901222332345,0.8631944444444445
0.032936901222332345,0.8638888888888889
0.03321770730095804,0.8638888888888889
0.03321770730095804,0.8645833333333334
0.033267261314833166,0.8645833333333334
0.033267261314833166,0.8652777777777778
0.03358110340270895,0.8652777777777778
0.03361413941195904,0.8652777777777778
0.034010571522960026,0.8652777777777778
0.034010571522960026,0.8659722222222223
0.03432441361083581,0.8659722222222223
0.03432441361083581,0.8666666666666667
0.034407003633961014,0.8666666666666667
0.034407003633961014,0.8673611111111111
0.03455566567558639,0.8673611111111111
0.03455566567558639,0.86875
0.03457218368021143,0.86875
0.03457218368021143,0.8694444444444445
0.03488602576808721,0.8694444444444445
0.03488602576808721,0.8701388888888889
0.034902543772712256,0.8701388888888889
0.034902543772712256,0.8708333333333333
0.035563263957713906,0.8708333333333333
0.035563263957713906,0.8715277777777778
0.035678889990089196,0.8715277777777778
0.035678889990089196,0.8722222222222222
0.03597621407333994,0.8722222222222222
0.03597621407333994,0.8729166666666667
0.03640568219359101,0.8729166666666667
0.0364387182028411,0.8729166666666667
0.03660389824909151,0.8729166666666667
0.03660389824909151,0.8736111111111111
0.036818632309217045,0.8736111111111111
0.036818632309217045,0.8743055555555556
0.03723158242484308,0.8743055555555556
0.03723158242484308,0.8756944444444444
0.037264618434093164,0.8756944444444444
0.037264618434093164,0.8763888888888889
0.037528906508093825,0.8763888888888889
0.037528906508093825,0.8770833333333333
0.037594978526593985,0.8770833333333333
0.037594978526593985,0.8777777777777778
0.0377601585728444,0.8777777777777778
0.037793194582094486,0.8777777777777778
0.037826230591344566,0.8777777777777778
0.037826230591344566,0.8784722222222222
0.03916418896597291,0.8784722222222222
0.03916418896597291,0.8791666666666667
0.03947803105384869,0.8791666666666667
0.03951106706309878,0.8791666666666667
0.03961017509084903,0.8791666666666667
0.03961017509084903,0.8805555555555555
0.040452593326726134,0.8805555555555555
0.040452593326726134,0.88125
0.04061777337297654,0.88125
0.04061777337297654,0.8819444444444444
0.04101420548397754,0.8819444444444444
0.04101420548397754,0.8826388888888889
0.04119590353485299,0.8826388888888889
0.04119590353485299,0.8833333333333333
0.0412784935579782,0.8833333333333333
0.04131152956722828,0.8833333333333333
0.04180706970597952,0.8833333333333333
0.04180706970597952,0.8840277777777777
0.04251734390485629,0.8840277777777777
0.04255037991410637,0.8840277777777777
0.042781631978856954,0.8840277777777777
0.042781631978856954,0.8847222222222222
0.04331020812685828,0.8847222222222222
0.04331020812685828,0.8854166666666666
0.043409316154608524,0.8854166666666666
0.043409316154608524,0.8861111111111111
0.04365708622398414,0.8861111111111111
0.04365708622398414,0.8868055555555555
0.04464816650148662,0.8868055555555555
0.04464816650148662,0.8875
0.044928972580112324,0.8875
0.044962008589362404,0.8875
0.04565576478361414,0.8875
0.04565576478361414,0.8881944444444444
0.04575487281136439,0.8881944444444444
0.04578790882061447,0.8881944444444444
0.04601916088536505,0.8881944444444444
0.04601916088536505,0.8888888888888888
0.04606871489924017,0.8888888888888888
0.04610175090849025,0.8888888888888888
0.04634952097786588,0.8888888888888888
0.04634952097786588,0.8895833333333333
0.046448629005616124,0.8895833333333333
0.046448629005616124,0.8902777777777777
0.04691113313511728,0.8902777777777777
0.04691113313511728,0.8909722222222223
0.046927651139742316,0.8909722222222223
0.046927651139742316,0.8916666666666667
0.049339279814998346,0.8916666666666667
0.04937231582424843,0.8916666666666667
0.04962008589362405,0.8916666666666667
0.04962008589362405,0.8923611111111112
0.049966963990749916,0.8923611111111112
0.05,0.8923611111111112
0.05009910802775025,0.8923611111111112
0.05009910802775025,0.8930555555555556
0.050297324083250744,0.8930555555555556
0.050330360092500824,0.8930555555555556
0.05077634621737694,0.8930555555555556
0.05077634621737694,0.89375
0.05158572844400396,0.89375
0.05158572844400396,0.8944444444444445
0.05170135447637925,0.8944444444444445
0.05170135447637925,0.8951388888888889
0.05292368681863231,0.8951388888888889
0.05292368681863231,0.8958333333333334
0.05394780310538487,0.8958333333333334
0.05401387512388504,0.8958333333333334
0.054922365378262304,0.8958333333333334
0.05495540138751239,0.8958333333333334
0.056161215725140406,0.8958333333333334
0.056161215725140406,0.8965277777777778
0.0566402378592666,0.8965277777777778
0.0566402378592666,0.8972222222222223
0.05672282788239181,0.8972222222222223
0.05672282788239181,0.8979166666666667
0.05678889990089197,0.8979166666666667
0.05678889990089197,0.8986111111111111
0.05728444003964321,0.8986111111111111
0.05728444003964321,0.8993055555555556
0.0599603567888999,0.8993055555555556
0.0599603567888999,0.9
0.06076973901552692,0.9
0.06076973901552692,0.9006944444444445
0.06078625702015197,0.9006944444444445
0.06078625702015197,0.9013888888888889
0.06105054509415263,0.9013888888888889
0.06105054509415263,0.9020833333333333
0.06124876114965312,0.9020833333333333
0.06124876114965312,0.9027777777777778
0.06199207135777998,0.9027777777777778
0.06199207135777998,0.9034722222222222
0.06257020151965642,0.9034722222222222
0.06257020151965642,0.9041666666666667
0.06346217376940866,0.9041666666666667
0.06346217376940866,0.9048611111111111
0.0634786917740337,0.9048611111111111
0.0634786917740337,0.9055555555555556
0.06387512388503469,0.9055555555555556
0.06390815989428478,0.9055555555555556
0.0639577139081599,0.9055555555555556
0.06399074991740998,0.9055555555555556
0.0647175421209118,0.9055555555555556
0.0647175421209118,0.90625
0.06513049223653783,0.90625
0.0651635282457879,0.90625
0.06526263627353816,0.90625
0.06526263627353816,0.9069444444444444
0.06539478031053848,0.9069444444444444
0.06542781631978857,0.9069444444444444
0.06656755863891642,0.9069444444444444
0.06656755863891642,0.9076388888888889
0.06658407664354146,0.9076388888888889
0.06658407664354146,0.9083333333333333
0.0681202510736703,0.9083333333333333
0.0681202510736703,0.9090277777777778
0.06835150313842088,0.9090277777777778
0.06835150313842088,0.9097222222222222
0.06836802114304592,0.9097222222222222
0.06836802114304592,0.9104166666666667
0.0688800792864222,0.9104166666666667
0.06891311529567229,0.9104166666666667
0.0691608853650479,0.9104166666666667
0.0691608853650479,0.9111111111111111
0.06937561942517344,0.9111111111111111
0.06937561942517344,0.9118055555555555
0.06949124545754873,0.9118055555555555
0.06949124545754873,0.9125
0.06977205153617443,0.9125
0.06977205153617443,0.9131944444444444
0.0704823257350512,0.9131944444444444
0.07051536174430129,0.9131944444444444
0.07061446977205153,0.9131944444444444
0.07064750578130162,0.9131944444444444
0.07092831185992732,0.9131944444444444
0.07092831185992732,0.9138888888888889
0.07114304592005286,0.9138888888888889
0.07114304592005286,0.9145833333333333
0.07299306243805748,0.9145833333333333
0.07302609844730756,0.9145833333333333
0.074000660720185,0.9145833333333333
0.074000660720185,0.9152777777777777
0.07414932276181037,0.9152777777777777
0.07414932276181037,0.9159722222222222
0.07484307895606211,0.9159722222222222
0.07484307895606211,0.9173611111111111
0.07547076313181368,0.9173611111111111
0.07547076313181368,0.9180555555555555
0.07558638916418897,0.9180555555555555
0.07558638916418897,0.91875
0.07570201519656425,0.91875
0.07570201519656425,0.9194444444444444
0.07576808721506442,0.9194444444444444
0.07580112322431451,0.9194444444444444
0.07616451932606541,0.9194444444444444
0.07616451932606541,0.9201388888888888
0.0761975553353155,0.9201388888888888
0.07621407333994054,0.9208333333333333
0.07624710934919061,0.9208333333333333
0.07624710934919061,0.9222222222222223
0.07793194582094483,0.9222222222222223
0.07793194582094483,0.9229166666666667
0.07832837793194582,0.9229166666666667
0.07832837793194582,0.9236111111111112
0.07895606210769739,0.9236111111111112
0.07898909811694747,0.9236111111111112
0.08069045259332673,0.9236111111111112
0.08069045259332673,0.9243055555555556
0.08070697059795177,0.9243055555555556
0.08074000660720185,0.9243055555555556
0.08087215064420218,0.9243055555555556
0.08087215064420218,0.925
0.08120251073670301,0.925
0.08123554674595308,0.925
0.08422530558308557,0.925
0.08422530558308557,0.9256944444444445
0.08437396762471093,0.9256944444444445
0.08440700363396102,0.9256944444444445
0.08488602576808721,0.9256944444444445
0.08488602576808721,0.9263888888888889
0.0850016518004625,0.9263888888888889
0.0850016518004625,0.9270833333333334
0.08503468780971259,0.9270833333333334
0.08503468780971259,0.9284722222222223
0.08534852989758837,0.9284722222222223
0.08534852989758837,0.9291666666666667
0.08536504790221341,0.9291666666666667
0.08536504790221341,0.9298611111111111
0.08546415592996366,0.9298611111111111
0.08549719193921375,0.9298611111111111
0.0859596960687149,0.9298611111111111
0.0859596960687149,0.9305555555555556
0.08612487611496532,0.9305555555555556
0.08612487611496532,0.93125
0.0870829203832177,0.93125
0.08711595639246779,0.93125
0.08856954079947142,0.93125
0.08860257680872151,0.93125
0.08898249091509745,0.93125
0.08901552692434754,0.93125
0.09023785926660059,0.93125
0.09027089527585068,0.93125
0.09027089527585068,0.9319444444444445
0.09046911133135117,0.9319444444444445
0.09046911133135117,0.9326388888888889
0.09060125536835151,0.9326388888888889
0.09060125536835151,0.9333333333333333
0.09103072348860258,0.9333333333333333
0.09103072348860258,0.9340277777777778
0.09200528576148001,0.9340277777777778
0.09200528576148001,0.9347222222222222
0.09255037991410638,0.9347222222222222
0.09255037991410638,0.9354166666666667
0.09301288404360754,0.9354166666666667
0.09304592005285761,0.9354166666666667
0.09309547406673274,0.9354166666666667
0.09309547406673274,0.9361111111111111
0.09337628014535844,0.9361111111111111
0.09337628014535844,0.9368055555555556
0.09355797819623389,0.9368055555555556
0.09355797819623389,0.9375
0.09446646845061117,0.9375
0.09446646845061117,0.9381944444444444
0.09549058473736373,0.9381944444444444
0.09552362074661382,0.9381944444444444
0.09618434093161546,0.9381944444444444
0.0962008589362405,0.9388888888888889
0.09808391146349521,0.9388888888888889
0.0981169474727453,0.9388888888888889
0.0982821275189957,0.9388888888888889
0.0982821275189957,0.9395833333333333
0.09995044598612488,0.9395833333333333
0.09995044598612488,0.9402777777777778
0.1002808060786257,0.9402777777777778
0.1002808060786257,0.9409722222222222
0.1007598282127519,0.9409722222222222
0.1007598282127519,0.9416666666666667
0.10194912454575487,0.9416666666666667
0.10198216055500496,0.9416666666666667
0.10232903865213082,0.9416666666666667
0.1023620746613809,0.9416666666666667
0.1037991410637595,0.9416666666666667
0.1037991410637595,0.9423611111111111
0.10626032375289066,0.9423611111111111
0.10626032375289066,0.9430555555555555
0.10649157581764122,0.9430555555555555
0.10649157581764122,0.94375
0.10662371985464156,0.94375
0.10662371985464156,0.9444444444444444
0.10738354806739346,0.9444444444444444
0.10741658407664355,0.9444444444444444
0.10804426825239512,0.9444444444444444
0.10807730426164519,0.9444444444444444
0.10862239841427156,0.9444444444444444
0.10865543442352164,0.9444444444444444
0.10984473075652461,0.9444444444444444
0.10984473075652461,0.9451388888888889
0.11209117938553023,0.9451388888888889
0.1121242153947803,0.9451388888888889
0.11410637594978526,0.9451388888888889
0.11413941195903535,0.9451388888888889
0.11438718202841097,0.9451388888888889
0.11442021803766105,0.9451388888888889
0.11605550049554014,0.9451388888888889
0.1161215725140403,0.9451388888888889
0.11757515692104394,0.9451388888888889
0.11757515692104394,0.9458333333333333
0.11838453914767096,0.9458333333333333
0.11841757515692104,0.9458333333333333
0.1203171456888008,0.9458333333333333
0.12035018169805088,0.9458333333333333
0.12196894615130492,0.9458333333333333
0.12200198216055501,0.9458333333333333
0.12224975222993062,0.9458333333333333
0.1222827882391807,0.9458333333333333
0.1231582424843079,0.9458333333333333
0.12319127849355797,0.9458333333333333
0.12408325074331021,0.9458333333333333
0.12411628675256028,0.9458333333333333
0.12614800132144036,0.9458333333333333
0.12618103733069044,0.9458333333333333
0.12877436405682194,0.9458333333333333
0.12877436405682194,0.9472222222222222
0.12981499834819954,0.9472222222222222
0.12981499834819954,0.9479166666666666
0.12984803435744963,0.9479166666666666
0.12984803435744963,0.9486111111111111
0.13183019491245457,0.9486111111111111
0.13183019491245457,0.9493055555555555
0.1321605550049554,0.9493055555555555
0.1321605550049554,0.95
0.13391146349520977,0.95
0.13391146349520977,0.9506944444444444
0.1343244136108358,0.9506944444444444
0.1343574496200859,0.9506944444444444
0.1343574496200859,0.9513888888888888
0.13481995374958705,0.9513888888888888
0.13485298975883714,0.9513888888888888
0.13523290386521308,0.9513888888888888
0.13523290386521308,0.9520833333333333
0.1376445325404691,0.9520833333333333
0.1376445325404691,0.9527777777777777
0.13822266270234557,0.9527777777777777
0.13822266270234557,0.9534722222222223
0.13825569871159563,0.9534722222222223
0.1382887347208457,0.9534722222222223
0.13934588701684836,0.9534722222222223
0.13934588701684836,0.9541666666666667
0.14018830525272546,0.9541666666666667
0.14018830525272546,0.9548611111111112
0.14205483977535513,0.9548611111111112
0.14208787578460522,0.9548611111111112
0.1468780971258672,0.9548611111111112
0.1468780971258672,0.9555555555555556
0.14826560951437068,0.9555555555555556
0.14826560951437068,0.95625
0.14935579781962338,0.95625
0.14938883382887347,0.95625
0.14968615791212422,0.95625
0.1497191939213743,0.95625
0.14988437396762472,0.95625
0.14988437396762472,0.9569444444444445
0.1511562603237529,0.9569444444444445
0.1511562603237529,0.9576388888888889
0.1521968946151305,0.9576388888888889
0.1522299306243806,0.9576388888888889
0.1529567228278824,0.9576388888888889
0.1529567228278824,0.9583333333333334
0.15398083911463495,0.9583333333333334
0.15398083911463495,0.9590277777777778
0.15434423521638585,0.9590277777777778
0.15437727122563594,0.9590277777777778
0.15474066732738684,0.9590277777777778
0.15477370333663693,0.9590277777777778
0.1582755203171457,0.9590277777777778
0.15830855632639576,0.9590277777777778
0.1612487611496531,0.9590277777777778
0.1612817971589032,0.9590277777777778
0.16129831516352824,0.9590277777777778
0.16133135117277833,0.9590277777777778
0.16250412950115625,0.9590277777777778
0.16253716551040634,0.9590277777777778
0.1626032375289065,0.9590277777777778
0.1626362735381566,0.9590277777777778
0.16349520977865875,0.9590277777777778
0.1635282457879088,0.9590277777777778
0.1647505781301619,0.9590277777777778
0.1647505781301619,0.9597222222222223
0.16894615130492235,0.9597222222222223
0.16894615130492235,0.9604166666666667
0.16940865543442352,0.9604166666666667
0.1694416914436736,0.9604166666666667
0.1731252064750578,0.9604166666666667
0.1731582424843079,0.9604166666666667
0.17345556656755864,0.9604166666666667
0.17348860257680873,0.9604166666666667
0.1756854971919392,0.9604166666666667
0.1756854971919392,0.9611111111111111
0.17601585728444005,0.9611111111111111
0.17601585728444005,0.9618055555555556
0.17865873802444665,0.9618055555555556
0.17869177403369674,0.9618055555555556
0.18065741658407664,0.9618055555555556
0.18065741658407664,0.9625
0.18113643871820284,0.9625
0.18116947472745293,0.9625
0.18333333333333332,0.9625
0.18333333333333332,0.9631944444444445
0.18432441361083582,0.9631944444444445
0.18432441361083582,0.9638888888888889
0.1877601585728444,0.9638888888888889
0.18779319458209448,0.9638888888888889
0.18913115295672284,0.9638888888888889
0.18916418896597292,0.9638888888888889
0.18921374297984803,0.9638888888888889
0.1892467789890981,0.9638888888888889
0.19165840766435416,0.9638888888888889
0.19165840766435416,0.9645833333333333
0.1921209117938553,0.9645833333333333
0.19215394780310538,0.9645833333333333
0.19560621076973903,0.9645833333333333
0.19563924677898908,0.9645833333333333
0.19585398083911462,0.9645833333333333
0.1958870168483647,0.9645833333333333
0.19669639907499173,0.9645833333333333
0.19672943508424182,0.9645833333333333
0.1972414932276181,0.9645833333333333
0.1972414932276181,0.9652777777777778
0.19725801123224315,0.9652777777777778
0.19725801123224315,0.9659722222222222
0.1994053518334985,0.9659722222222222
0.1994053518334985,0.9666666666666667
0.20100759828212753,0.9666666666666667
0.2010406342913776,0.9666666666666667
0.20122233234225306,0.9666666666666667
0.20125536835150315,0.9666666666666667
0.20188305252725472,0.9666666666666667
0.20188305252725472,0.9673611111111111
0.20401387512388502,0.9673611111111111
0.2040469111331351,0.9673611111111111
0.20417905517013546,0.9673611111111111
0.20421209117938552,0.9673611111111111
0.20550049554013874,0.9673611111111111
0.20553353154938883,0.9673611111111111
0.20566567558638915,0.9673611111111111
0.20569871159563924,0.9673611111111111
0.2057647836141394,0.9673611111111111
0.20578130161876446,0.9680555555555556
0.20728444003964322,0.9680555555555556
0.2073174760488933,0.9680555555555556
0.2082755203171457,0.9680555555555556
0.20830855632639578,0.9680555555555556
0.2108358110340271,0.9680555555555556
0.21086884704327719,0.9680555555555556
0.211199207135778,0.9680555555555556
0.211199207135778,0.96875
0.21220680541790551,0.96875
0.2122398414271556,0.96875
0.2129170796167823,0.96875
0.2129501156260324,0.96875
0.21501486620416255,0.96875
0.2150479022134126,0.96875
0.2155269243475388,0.96875
0.2155599603567889,0.96875
0.21618764453254047,0.96875
0.21618764453254047,0.9694444444444444
0.21694747274529236,0.9694444444444444
0.21698050875454244,0.9694444444444444
0.21894615130492237,0.9694444444444444
0.21897918731417246,0.9694444444444444
0.22005285761480015,0.9694444444444444
0.2200858936240502,0.9694444444444444
0.22046580773042618,0.9694444444444444
0.22049884373967624,0.9694444444444444
0.22177073009580442,0.9694444444444444
0.2218037661050545,0.9694444444444444
0.2228444003964321,0.9694444444444444
0.2228774364056822,0.9694444444444444
0.22497522299306244,0.9694444444444444
0.22500825900231253,0.9694444444444444
0.22581764122893955,0.9694444444444444
0.22585067723818963,0.9694444444444444
0.2268747935249422,0.9694444444444444
0.22690782953419228,0.9694444444444444
0.2285596299966964,0.9694444444444444
0.2285926660059465,0.9694444444444444
0.2286422200198216,0.9694444444444444
0.22867525602907168,0.9694444444444444
0.22946812025107366,0.9694444444444444
0.22950115626032375,0.9694444444444444
0.23125206475057813,0.9694444444444444
0.23128510075982822,0.9694444444444444
0.23194582094482988,0.9694444444444444
0.23194582094482988,0.9701388888888889
0.23209448298645524,0.9701388888888889
0.23212751899570533,0.9701388888888889
0.23232573505120582,0.9701388888888889
0.23232573505120582,0.9708333333333333
0.23442352163858607,0.9708333333333333
0.23442352163858607,0.9715277777777778
0.2348364717542121,0.9715277777777778
0.2348364717542121,0.9722222222222222
0.23541460191608854,0.9722222222222222
0.23544763792533863,0.9722222222222222
0.2359596960687149,0.9722222222222222
0.23599273207796498,0.9722222222222222
0.23615791212421539,0.9722222222222222
0.23619094813346547,0.9722222222222222
0.23688470432771722,0.9722222222222222
0.2369177403369673,0.9722222222222222
0.23962669309547407,0.9722222222222222
0.23965972910472416,0.9722222222222222
0.24264948794185662,0.9722222222222222
0.2426825239511067,0.9722222222222222
0.24347538817310868,0.9722222222222222
0.24350842418235877,0.9722222222222222
0.2460356788899901,0.9722222222222222
0.24606871489924018,0.9722222222222222
0.24638255698711595,0.9722222222222222
0.24641559299636603,0.9722222222222222
0.24712586719524282,0.9722222222222222
0.2471589032044929,0.9722222222222222
0.247208457218368,0.9722222222222222
0.2472414932276181,0.9722222222222222
0.24745622728774364,0.9722222222222222
0.24748926329699372,0.9722222222222222
0.24829864552362074,0.9722222222222222
0.24833168153287083,0.9722222222222222
0.24965312190287414,0.9722222222222222
0.24965312190287414,0.9729166666666667
0.24998348199537496,0.9729166666666667
0.25001651800462504,0.9729166666666667
0.2500660720185002,0.9729166666666667
0.2500660720185002,0.9736111111111111
0.2521638586058804,0.9736111111111111
0.2521638586058804,0.9743055555555555
0.258391146349521,0.9743055555555555
0.258391146349521,0.975
0.25849025437727124,0.975
0.25852329038652133,0.975
0.2592335645853981,0.975
0.2592666005946482,0.975
0.26017509084902546,0.975
0.26020812685827555,0.975
0.2603567888999009,0.975
0.26038982490915097,0.975
0.26045589692765114,0.975
0.26048893293690123,0.975
0.2625536835150314,0.975
0.2625536835150314,0.9756944444444444
0.2642054839775355,0.9756944444444444
0.2642054839775355,0.9763888888888889
0.2671291707961678,0.9763888888888889
0.2671622068054179,0.9763888888888889
0.2707631318136769,0.9763888888888889
0.270796167822927,0.9763888888888889
0.27122563594317806,0.9763888888888889
0.27122563594317806,0.9770833333333333
0.27319127849355795,0.9770833333333333
0.27322431450280804,0.9770833333333333
0.27466138090518666,0.9770833333333333
0.27469441691443675,0.9770833333333333
0.2768252395110671,0.9770833333333333
0.2768252395110671,0.9784722222222222
0.27761810373306905,0.9784722222222222
0.27765113974231914,0.9784722222222222
0.2788734720845722,0.9784722222222222
0.2789065080938223,0.9784722222222222
0.2801949124545755,0.9784722222222222
0.2802279484638256,0.9784722222222222
0.2804757185332012,0.9784722222222222
0.2805087545424513,0.9784722222222222
0.2809877766765775,0.9784722222222222
0.28102081268582757,0.9784722222222222
0.28202841096795506,0.9784722222222222
0.28206144697720514,0.9784722222222222
0.287198546415593,0.9784722222222222
0.287198546415593,0.9791666666666666
0.28833828873472084,0.9791666666666666
0.2883713247439709,0.9791666666666666
0.2905847373637265,0.9791666666666666
0.29061777337297656,0.9791666666666666
0.291212421539478,0.9791666666666666
0.2912454575487281,0.9791666666666666
0.294400396432111,0.9791666666666666
0.2944334324413611,0.9791666666666666
0.2965642550379914,0.9791666666666666
0.2965972910472415,0.9791666666666666
0.2983647175421209,0.9791666666666666
0.2983647175421209,0.9798611111111111
0.30079286422200197,0.9798611111111111
0.30079286422200197,0.9805555555555555
0.30082590023125205,0.9805555555555555
0.30085893624050214,0.9805555555555555
0.30090849025437727,0.9805555555555555
0.30090849025437727,0.98125
0.3010736703006277,0.98125
0.3011067063098778,0.98125
0.3048397753551371,0.98125
0.3048397753551371,0.9819444444444444
0.30564915758176414,0.9819444444444444
0.30568219359101423,0.9819444444444444
0.3059299636603898,0.9819444444444444
0.3059629996696399,0.9819444444444444
0.3060290716881401,0.9819444444444444
0.3060290716881401,0.9826388888888888
0.31035678889990087,0.9826388888888888
0.31038982490915096,0.9826388888888888
0.3115460852329039,0.9826388888888888
0.3115791212421539,0.9826388888888888
0.3133961017509085,0.9826388888888888
0.31342913776015857,0.9826388888888888
0.31466798810703667,0.9826388888888888
0.31470102411628675,0.9826388888888888
0.31484968615791215,0.9826388888888888
0.31484968615791215,0.9833333333333333
0.315196564255038,0.9833333333333333
0.3152296002642881,0.9833333333333333
0.3167162206805418,0.9833333333333333
0.31674925668979187,0.9833333333333333
0.31681532870829204,0.9833333333333333
0.31684836471754213,0.9833333333333333
0.31861579121242156,0.9833333333333333
0.31861579121242156,0.9840277777777777
0.3241328047571853,0.9840277777777777
0.3241658407664354,0.9840277777777777
0.32469441691443673,0.9840277777777777
0.3247274529236868,0.9840277777777777
0.3261149653121903,0.9840277777777777
0.3261480013214404,0.9840277777777777
0.32725470763131814,0.9840277777777777
0.3272712256359432,0.9847222222222223
0.3289230260984473,0.9847222222222223
0.3289560621076974,0.9847222222222223
0.32897258011232244,0.9847222222222223
0.32897258011232244,0.9854166666666667
0.33108688470432773,0.9854166666666667
0.3311529567228279,0.9854166666666667
0.3330690452593327,0.9854166666666667
0.33310208126858276,0.9854166666666667
0.3353485298975884,0.9854166666666667
0.3353485298975884,0.9861111111111112
0.3362900561612157,0.9861111111111112
0.3363230921704658,0.9861111111111112
0.33762801453584407,0.9861111111111112
0.33766105054509415,0.9861111111111112
0.3390320449289726,0.9861111111111112
0.3390320449289726,0.9868055555555556
0.3406342913776016,0.9868055555555556
0.3406673273868517,0.9868055555555556
0.3420218037661051,0.9868055555555556
0.3420548397753551,0.9868055555555556
0.34438387842748597,0.9868055555555556
0.34441691443673605,0.9868055555555556
0.34478031053848696,0.9868055555555556
0.34481334654773704,0.9868055555555556
0.34613478691774036,0.9868055555555556
0.34616782292699044,0.9868055555555556
0.34646514701024117,0.9868055555555556
0.34646514701024117,0.9875
0.34686157912124216,0.9875
0.34689461513049225,0.9875
0.34734060125536836,0.9875
0.34737363726461845,0.9875
0.3493227618103733,0.9875
0.3493227618103733,0.9881944444444445
0.3496531219028741,0.9881944444444445
0.3496861579121242,0.9881944444444445
0.3498678559629997,0.9881944444444445
0.3499008919722498,0.9881944444444445
0.35122233234225303,0.9881944444444445
0.3512553683515031,0.9881944444444445
0.3530393128510076,0.9881944444444445
0.3530723488602577,0.9881944444444445
0.3530888668648827,0.9881944444444445
0.3531219028741328,0.9881944444444445
0.3533366369342583,0.9881944444444445
0.3533696729435084,0.9881944444444445
0.3564420218037661,0.9881944444444445
0.3564750578130162,0.9881944444444445
0.3568714899240172,0.9881944444444445
0.35690452593326727,0.9881944444444445
0.35733399405351834,0.9881944444444445
0.35736703006276843,0.9881944444444445
0.3580773042616452,0.9881944444444445
0.3581103402708953,0.9881944444444445
0.3617277832837793,0.9881944444444445
0.3617608192930294,0.9881944444444445
0.36185992732077965,0.9881944444444445
0.36189296333002974,0.9881944444444445
0.36463495209778657,0.9881944444444445
0.36466798810703666,0.9881944444444445
0.3656425503799141,0.9881944444444445
0.3656755863891642,0.9881944444444445
0.3658407664354146,0.9881944444444445
0.36587380244466466,0.9881944444444445
0.3661546085232904,0.9881944444444445
0.3661876445325405,0.9881944444444445
0.36846712917079616,0.9881944444444445
0.36850016518004625,0.9881944444444445
0.3691113313511728,0.9881944444444445
0.3691443673604229,0.9881944444444445
0.3696564255037991,0.9881944444444445
0.36967294350842417,0.9888888888888889
0.3712586719524281,0.9888888888888889
0.3712917079616782,0.9888888888888889
0.37274529236868187,0.9888888888888889
0.37277832837793196,0.9888888888888889
0.3755203171456888,0.9888888888888889
0.3755533531549389,0.9888888888888889
0.37801453584407,0.9888888888888889
0.3780475718533201,0.9888888888888889
0.38047571853320117,0.9888888888888889
0.38050875454245126,0.9888888888888889
0.3808391146349521,0.9888888888888889
0.38087215064420216,0.9888888888888889
0.3809217046580773,0.9888888888888889
0.3809547406673274,0.9888888888888889
0.3813181367690783,0.9888888888888889
0.3813181367690783,0.9895833333333334
0.38361413941195904,0.9895833333333334
0.38364717542120913,0.9895833333333334
0.3842913776015857,0.9895833333333334
0.3843244136108358,0.9895833333333334
0.38442352163858606,0.9895833333333334
0.38442352163858606,0.9902777777777778
0.3847703997357119,0.9902777777777778
0.384803435744962,0.9902777777777778
0.39373967624710937,0.9902777777777778
0.39377271225635946,0.9902777777777778
0.3957879088206145,0.9902777777777778
0.3958209448298646,0.9902777777777778
0.3965147010241163,0.9902777777777778
0.3965477370333664,0.9902777777777778
0.3983151635282458,0.9902777777777778
0.3983481995374959,0.9902777777777778
0.4006111661711265,0.9902777777777778
0.4006442021803766,0.9902777777777778
0.4014535844070036,0.9902777777777778
0.4014535844070036,0.9909722222222223
0.4036339610175091,0.9909722222222223
0.4036669970267592,0.9909722222222223
0.4057152296002643,0.9909722222222223
0.4057482656095144,0.9909722222222223
0.4077139081598943,0.9909722222222223
0.40774694416914437,0.9909722222222223
0.4089197224975223,0.9909722222222223
0.4089527585067724,0.9909722222222223
0.4104724149322762,0.9909722222222223
0.41050545094152624,0.9909722222222223
0.4120416253716551,0.9909722222222223
0.4120746613809052,0.9909722222222223
0.4122068054179055,0.9909722222222223
0.4122398414271556,0.9909722222222223
0.41242153947803106,0.9909722222222223
0.41245457548728115,0.9909722222222223
0.4126858275520317,0.9909722222222223
0.4127188635612818,0.9909722222222223
0.4131648496861579,0.9909722222222223
0.413197885695408,0.9909722222222223
0.4159729104724149,0.9909722222222223
0.416005946481665,0.9909722222222223
0.4163032705649158,0.9909722222222223
0.4163363065741658,0.9909722222222223
0.41650148662041625,0.9909722222222223
0.41653452262966634,0.9909722222222223
0.4190452593326726,0.9909722222222223
0.4190782953419227,0.9909722222222223
0.4193260654112983,0.9909722222222223
0.4193591014205484,0.9909722222222223
0.4202345556656756,0.9909722222222223
0.42026759167492567,0.9909722222222223
0.42069705979517674,0.9909722222222223
0.42073009580442683,0.9909722222222223
0.42198546415592997,0.9909722222222223
0.42198546415592997,0.9916666666666667
0.4223158242484308,0.9916666666666667
0.42234886025768087,0.9916666666666667
0.4244466468450611,0.9916666666666667
0.4244796828543112,0.9916666666666667
0.4272547076313181,0.9916666666666667
0.4272877436405682,0.9916666666666667
0.42801453584407,0.9916666666666667
0.4280475718533201,0.9916666666666667
0.43217707300958047,0.9916666666666667
0.4322101090188305,0.9916666666666667
0.4338784274859597,0.9916666666666667
0.43391146349520976,0.9916666666666667
0.4340436075322101,0.9916666666666667
0.4340766435414602,0.9916666666666667
0.43508424182358774,0.9916666666666667
0.43511727783283777,0.9916666666666667
0.4356788899900892,0.9916666666666667
0.4357119259993393,0.9916666666666667
0.43994053518334986,0.9916666666666667
0.43997357119259994,0.9916666666666667
0.4401717872481004,0.9916666666666667
0.4402048232573505,0.9916666666666667
0.44114634952097787,0.9916666666666667
0.44117938553022795,0.9916666666666667
0.4415262636273538,0.9916666666666667
0.4415592996366039,0.9916666666666667
0.44245127188635613,0.9916666666666667
0.4424843078956062,0.9916666666666667
0.44458209448298647,0.9916666666666667
0.44461513049223655,0.9916666666666667
0.446399074991741,0.9916666666666667
0.44643211100099106,0.9916666666666667
0.44778658738024446,0.9916666666666667
0.44781962338949455,0.9916666666666667
0.4485298975883713,0.9916666666666667
0.4485629335976214,0.9916666666666667
0.4506772381896267,0.9916666666666667
0.45071027419887677,0.9916666666666667
0.451189296333003,0.9916666666666667
0.45125536835150315,0.9916666666666667
0.45158572844400396,0.9916666666666667
0.45161876445325405,0.9916666666666667
0.4530888668648827,0.9916666666666667
0.4531219028741328,0.9916666666666667
0.45325404691113313,0.9916666666666667
0.4532870829203832,0.9916666666666667
0.4545094152626363,0.9916666666666667
0.45454245127188636,0.9916666666666667
0.4569210439378923,0.9916666666666667
0.4569540799471424,0.9916666666666667
0.45792864222001983,0.9916666666666667
0.4579616782292699,0.9916666666666667
0.45834159233564586,0.9916666666666667
0.45837462834489595,0.9916666666666667
0.46413941195903535,0.9916666666666667
0.46417244796828544,0.9916666666666667
0.46754212091179387,0.9916666666666667
0.46757515692104396,0.9916666666666667
0.4688305252725471,0.9916666666666667
0.4688635612817972,0.9916666666666667
0.4708787578460522,0.9916666666666667
0.4709117938553023,0.9916666666666667
0.47340601255368353,0.9916666666666667
0.4734390485629336,0.9916666666666667
0.47370333663693426,0.9916666666666667
0.47373637264618434,0.9916666666666667
0.474000660720185,0.9916666666666667
0.4740336967294351,0.9916666666666667
0.474810042946812,0.9916666666666667
0.4748430789560621,0.9916666666666667
0.4761149653121903,0.9916666666666667
0.47614800132144036,0.9916666666666667
0.4762801453584407,0.9916666666666667
0.4763131813676908,0.9916666666666667
0.47669309547406674,0.9916666666666667
0.47672613148331683,0.9916666666666667
0.4768252395110671,0.9916666666666667
0.4768582755203171,0.9916666666666667
0.4774859596960687,0.9916666666666667
0.4775189957053188,0.9916666666666667
0.47880740006607203,0.9916666666666667
0.4788404360753221,0.9916666666666667
0.47941856623719853,0.9916666666666667
0.4794516022464486,0.9916666666666667
0.4827386851668318,0.9916666666666667
0.4827717211760819,0.9916666666666667
0.48468780971258674,0.9916666666666667
0.4847208457218368,0.9916666666666667
0.48490254377271225,0.9916666666666667
0.48493557978196233,0.9916666666666667
0.4856954079947142,0.9916666666666667
0.4857284440039643,0.9916666666666667
0.4863561281797159,0.9916666666666667
0.486389164188966,0.9916666666666667
0.4878427485959696,0.9916666666666667
0.4878757846052197,0.9916666666666667
0.48858605880409645,0.9916666666666667
0.48861909481334653,0.9916666666666667
0.4897753551370994,0.9916666666666667
0.4898083911463495,0.9916666666666667
0.4906508093822266,0.9916666666666667
0.4906838453914767,0.9916666666666667
0.49137760158572846,0.9916666666666667
0.49141063759497855,0.9916666666666667
0.4931285100759828,0.9916666666666667
0.4931615460852329,0.9916666666666667
0.49345887016848367,0.9916666666666667
0.49345887016848367,0.9923611111111111
0.4939213742979848,0.9923611111111111
0.49395441030723486,0.9923611111111111
0.49428477039973573,0.9923611111111111
0.4943178064089858,0.9923611111111111
0.4953254046911133,0.9923611111111111
0.4953584407003634,0.9923611111111111
0.49537495870498843,0.9923611111111111
0.4954079947142385,0.9923611111111111
0.4955566567558639,0.9923611111111111
0.495589692765114,0.9923611111111111
0.4970102411628675,0.9923611111111111
0.4970432771721176,0.9923611111111111
0.5006772381896267,0.9923611111111111
0.5006772381896267,0.9930555555555556
0.501585728444004,0.9930555555555556
0.501585728444004,0.99375
0.5025933267261314,0.99375
0.5026263627353815,0.99375
0.5029897588371325,0.99375
0.5030227948463826,0.99375
0.5054839775355137,0.99375
0.5055170135447637,0.99375
0.510786257020152,0.99375
0.5108192930294021,0.99375
0.5121572514040303,0.99375
0.5121902874132804,0.99375
0.5131813676907829,0.99375
0.513214403700033,0.99375
0.5171456888007928,0.99375
0.5171787248100429,0.99375
0.5200528576148001,0.99375
0.5200858936240502,0.99375
0.5218368021143046,0.99375
0.5218698381235547,0.99375
0.5228939544103073,0.99375
0.5229269904195574,0.99375
0.5230426164519326,0.99375
0.5230756524611827,0.99375
0.5297158903204493,0.99375
0.5297489263296994,0.99375
0.5301618764453254,0.99375
0.5301949124545755,0.99375
0.530409646514701,0.99375
0.5304426825239511,0.99375
0.5321110009910803,0.99375
0.5321440370003303,0.99375
0.5340766435414602,0.99375
0.5341096795507103,0.99375
0.534407003633961,0.99375
0.5344400396432111,0.99375
0.5345226296663363,0.99375
0.5345556656755864,0.99375
0.5350512058143376,0.99375
0.5350842418235877,0.99375
0.5361744301288405,0.99375
0.5362074661380906,0.99375
0.5369342583415924,0.99375
0.5369342583415924,0.9944444444444445
0.5377601585728444,0.9944444444444445
0.5377931945820945,0.9944444444444445
0.5385199867855963,0.9944444444444445
0.5385530227948464,0.9944444444444445
0.5403039312851008,0.9944444444444445
0.5403369672943509,0.9944444444444445
0.5411463495209778,0.9944444444444445
0.5411793855302279,0.9944444444444445
0.541195903534853,0.9944444444444445
0.5412289395441031,0.9944444444444445
0.5419557317476049,0.9944444444444445
0.541988767756855,0.9944444444444445
0.5425834159233565,0.9944444444444445
0.5426494879418566,0.9944444444444445
0.5449785265939875,0.9944444444444445
0.5450115626032376,0.9944444444444445
0.5480673934588701,0.9944444444444445
0.5481004294681202,0.9944444444444445
0.5496861579121242,0.9944444444444445
0.5497191939213742,0.9944444444444445
0.5510241162867525,0.9944444444444445
0.5510571522960026,0.9944444444444445
0.5522464486290056,0.9944444444444445
0.5522794846382557,0.9944444444444445
0.5560290716881401,0.9944444444444445
0.5560621076973902,0.9944444444444445
0.5571027419887677,0.9944444444444445
0.5571357779980178,0.9944444444444445
0.5575982821275189,0.9944444444444445
0.557631318136769,0.9944444444444445
0.5646845061116618,0.9944444444444445
0.5647505781301618,0.9944444444444445
0.5662702345556657,0.9944444444444445
0.5663032705649158,0.9944444444444445
0.5688305252725471,0.9944444444444445
0.5688635612817972,0.9944444444444445
0.5708952758506772,0.9944444444444445
0.5709283118599273,0.9944444444444445
0.5709283118599273,0.9951388888888889
0.5719524281466799,0.9951388888888889
0.57198546415593,0.9951388888888889
0.5727452923686819,0.9951388888888889
0.572778328377932,0.9951388888888889
0.5777832837793194,0.9951388888888889
0.5778163197885695,0.9951388888888889
0.5807069705979517,0.9951388888888889
0.5807400066072018,0.9951388888888889
0.5810373306904526,0.9951388888888889
0.5810703666997027,0.9951388888888889
0.582788239180707,0.9951388888888889
0.5828212751899571,0.9951388888888889
0.5840601255368352,0.9951388888888889
0.5840931615460853,0.9951388888888889
0.5856623719854641,0.9951388888888889
0.5856954079947142,0.9951388888888889
0.5857614800132144,0.9951388888888889
0.5857945160224645,0.9951388888888889
0.5866534522629666,0.9951388888888889
0.5866864882722167,0.9951388888888889
0.5882391807069706,0.9951388888888889
0.5882722167162207,0.9951388888888889
0.5898744631648497,0.9951388888888889
0.5899074991740998,0.9951388888888889
0.5906177733729765,0.9951388888888889
0.5906508093822266,0.9951388888888889
0.5923356458539808,0.9951388888888889
0.5923686818632309,0.9951388888888889
0.5954575487281136,0.9951388888888889
0.5954905847373637,0.9951388888888889
0.5959200528576148,0.9951388888888889
0.5959530888668649,0.9951388888888889
0.5968285431119921,0.9951388888888889
0.5968615791212422,0.9951388888888889
0.5980343574496201,0.9951388888888889
0.5980673934588702,0.9951388888888889
0.6014701024116287,0.9951388888888889
0.6015031384208788,0.9951388888888889
0.6074991740997687,0.9951388888888889
0.6075322101090188,0.9951388888888889
0.6085232903865213,0.9951388888888889
0.6085563263957714,0.9951388888888889
0.6088206144697721,0.9951388888888889
0.6088536504790222,0.9951388888888889
0.611612157251404,0.9951388888888889
0.6116451932606541,0.9951388888888889
0.6131648496861579,0.9951388888888889
0.613197885695408,0.9951388888888889
0.6135612817971589,0.9951388888888889
0.6135943178064089,0.9951388888888889
0.613627353815659,0.9951388888888889
0.6136603898249091,0.9951388888888889
0.6143045920052858,0.9951388888888889
0.6143376280145358,0.9951388888888889
0.6144862900561612,0.9951388888888889
0.6145193260654113,0.9951388888888889
0.6163693425834159,0.9951388888888889
0.616402378592666,0.9951388888888889
0.616815328708292,0.9951388888888889
0.6168483647175421,0.9951388888888889
0.6180872150644202,0.9951388888888889
0.6181202510736703,0.9951388888888889
0.6187314172447969,0.9951388888888889
0.6187644532540469,0.9951388888888889
0.6191608853650479,0.9951388888888889
0.619193921374298,0.9951388888888889
0.619226957383548,0.9951388888888889
0.6192599933927981,0.9951388888888889
0.6204492897258012,0.9951388888888889
0.6204823257350512,0.9951388888888889
0.6212586719524281,0.9951388888888889
0.6212917079616782,0.9951388888888889
0.6226296663363066,0.9951388888888889
0.6226627023455567,0.9951388888888889
0.6228278823918071,0.9951388888888889
0.6228609184010572,0.9951388888888889
0.6238024446646845,0.9951388888888889
0.6238354806739346,0.9951388888888889
0.6238354806739346,0.9958333333333333
0.6270564915758177,0.9958333333333333
0.6270895275850678,0.9958333333333333
0.6284440039643211,0.9958333333333333
0.6284440039643211,0.9965277777777778
0.6286917740336967,0.9965277777777778
0.6287248100429468,0.9965277777777778
0.6289065080938223,0.9965277777777778
0.6289395441030724,0.9965277777777778
0.6291212421539478,0.9965277777777778
0.6291542781631979,0.9965277777777778
0.6306243805748266,0.9965277777777778
0.6306574165840766,0.9965277777777778
0.6323092170465807,0.9965277777777778
0.6323422530558308,0.9965277777777778
0.6353650479022134,0.9965277777777778
0.6353980839114635,0.9965277777777778
0.6378757846052197,0.9965277777777778
0.6379088206144697,0.9965277777777778
0.6386025768087215,0.9965277777777778
0.6386356128179715,0.9965277777777778
0.6387347208457218,0.9965277777777778
0.6387347208457218,0.9972222222222222
0.6404856293359762,0.9972222222222222
0.6405186653452263,0.9972222222222222
0.6411793855302279,0.9972222222222222
0.641212421539478,0.9972222222222222
0.6424512718863561,0.9972222222222222
0.6424843078956062,0.9972222222222222
0.6497357119259993,0.9972222222222222
0.6497687479352494,0.9972222222222222
0.6503468780971259,0.9972222222222222
0.650379914106376,0.9972222222222222
0.6515692104393789,0.9972222222222222
0.651602246448629,0.9972222222222222
0.6518665345226297,0.9972222222222222
0.6518665345226297,0.9979166666666667
0.6520647505781302,0.9979166666666667
0.6520977865873803,0.9979166666666667
0.653980839114635,0.9979166666666667
0.654013875123885,0.9979166666666667
0.6545589692765114,0.9979166666666667
0.6545920052857614,0.9979166666666667
0.6548893293690122,0.9979166666666667
0.6549223653782623,0.9979166666666667
0.6563759497852659,0.9979166666666667
0.656408985794516,0.9979166666666667
0.6578956062107697,0.9979166666666667
0.6579286422200198,0.9979166666666667
0.6594978526593988,0.9979166666666667
0.6595308886686488,0.9979166666666667
0.6611331351172778,0.9979166666666667
0.6611661711265279,0.9979166666666667
0.6622563594317806,0.9979166666666667
0.6622893954410307,0.9979166666666667
0.6654443343244136,0.9979166666666667
0.6654773703336637,0.9979166666666667
0.666369342583416,0.9979166666666667
0.666402378592666,0.9979166666666667
0.6704492897258011,0.9979166666666667
0.6704823257350512,0.9979166666666667
0.6711430459200528,0.9979166666666667
0.6711760819293029,0.9979166666666667
0.6714568880079287,0.9979166666666667
0.6714899240171788,0.9979166666666667
0.6718863561281797,0.9979166666666667
0.6719193921374298,0.9979166666666667
0.6724644862900562,0.9979166666666667
0.6724975222993063,0.9979166666666667
0.674397092831186,0.9979166666666667
0.6744301288404361,0.9979166666666667
0.6778989098116948,0.9979166666666667
0.6779319458209448,0.9979166666666667
0.6781797158903204,0.9979166666666667
0.6782127518995705,0.9979166666666667
0.6788734720845722,0.9979166666666667
0.6789065080938222,0.9979166666666667
0.6803600925008259,0.9979166666666667
0.6803931285100759,0.9979166666666667
0.6804757185332012,0.9979166666666667
0.6805087545424513,0.9979166666666667
0.6809712586719524,0.9979166666666667
0.6810042946812025,0.9979166666666667
0.6833994053518335,0.9979166666666667
0.6834324413610836,0.9979166666666667
0.6837132474397093,0.9979166666666667
0.6837462834489594,0.9979166666666667
0.6846052196894615,0.9979166666666667
0.6846382556987116,0.9979166666666667
0.684770399735712,0.9979166666666667
0.684803435744962,0.9979166666666667
0.6872315824248431,0.9979166666666667
0.6872646184340931,0.9979166666666667
0.6877601585728444,0.9979166666666667
0.6877931945820945,0.9979166666666667
0.6887512388503468,0.9979166666666667
0.6887842748595969,0.9979166666666667
0.6894284770399736,0.9979166666666667
0.6894615130492237,0.9979166666666667
0.693987446316485,0.9979166666666667
0.6940204823257351,0.9979166666666667
0.6945490584737364,0.9979166666666667
0.6945820944829865,0.9979166666666667
0.6989758837132475,0.9979166666666667
0.6990089197224976,0.9979166666666667
0.6991410637594978,0.9979166666666667
0.6991740997687479,0.9979166666666667
0.6999174099768748,0.9979166666666667
0.6999504459861249,0.9979166666666667
0.7001156260323753,0.9979166666666667
0.7001486620416254,0.9979166666666667
0.7003303600925008,0.9979166666666667
0.7003633961017509,0.9979166666666667
0.7006772381896267,0.9979166666666667
0.7007102741988768,0.9979166666666667
0.7018995705318798,0.9979166666666667
0.7019326065411299,0.9979166666666667
0.703600925008259,0.9979166666666667
0.7036339610175091,0.9979166666666667
0.7074661380905186,0.9979166666666667
0.7074991740997687,0.9979166666666667
0.7103237528906509,0.9979166666666667
0.7103567888999008,0.9979166666666667
0.7164849686157913,0.9979166666666667
0.7165180046250413,0.9979166666666667
0.7205153617443013,0.9979166666666667
0.7205483977535514,0.9979166666666667
0.7227452923686819,0.9979166666666667
0.722778328377932,0.9979166666666667
0.7237033366369343,0.9979166666666667
0.7237363726461843,0.9979166666666667
0.7238189626693096,0.9979166666666667
0.7238519986785596,0.9979166666666667
0.725569871159564,0.9979166666666667
0.725602907168814,0.9979166666666667
0.7286091840105715,0.9979166666666667
0.7286422200198216,0.9979166666666667
0.7300627684175751,0.9979166666666667
0.7300958044268252,0.9979166666666667
0.7310703666997027,0.9979166666666667
0.7311034027089528,0.9979166666666667
0.7357119259993393,0.9979166666666667
0.7357449620085894,0.9979166666666667
0.7366204162537165,0.9979166666666667
0.7366534522629666,0.9979166666666667
0.7371655104063429,0.9979166666666667
0.737198546415593,0.9979166666666667
0.7372481004294681,0.9979166666666667
0.7372811364387182,0.9979166666666667
0.7377271225635943,0.9979166666666667
0.7377601585728444,0.9979166666666667
0.7389659729104724,0.9979166666666667
0.7389990089197225,0.9979166666666667
0.7394945490584738,0.9979166666666667
0.7395275850677239,0.9979166666666667
0.7401552692434754,0.9979166666666667
0.7401883052527255,0.9979166666666667
0.7410802775024777,0.9979166666666667
0.7411133135117278,0.9979166666666667
0.7418731417244797,0.9979166666666667
0.7419061777337298,0.9979166666666667
0.7436405682193591,0.9979166666666667
0.7436736042286092,0.9979166666666667
0.7444334324413611,0.9979166666666667
0.7444664684506112,0.9979166666666667
0.7462504129501156,0.9979166666666667
0.7462834489593657,0.9979166666666667
0.7479352494218698,0.9979166666666667
0.7479682854311199,0.9979166666666667
0.7483151635282458,0.9979166666666667
0.7483481995374959,0.9979166666666667
0.7486124876114966,0.9979166666666667
0.7486124876114966,0.9986111111111111
0.7491906177733729,0.9986111111111111
0.749223653782623,0.9986111111111111
0.7494383878427486,0.9986111111111111
0.7494714238519987,0.9986111111111111
0.7512553683515031,0.9986111111111111
0.7513214403700033,0.9986111111111111
0.7548397753551371,0.9986111111111111
0.7548728113643872,0.9986111111111111
0.7551701354476379,0.9986111111111111
0.755203171456888,0.9986111111111111
0.75602907168814,0.9986111111111111
0.7560621076973901,0.9986111111111111
0.7582259663032705,0.9986111111111111
0.7582590023125206,0.9986111111111111
0.7593161546085233,0.9986111111111111
0.7593491906177734,0.9986111111111111
0.7597456227287743,0.9986111111111111
0.7597786587380244,0.9986111111111111
0.7618599273207797,0.9986111111111111
0.7618929633300298,0.9986111111111111
0.7630822596630327,0.9986111111111111
0.7631152956722828,0.9986111111111111
0.7632969937231583,0.9986111111111111
0.7633630657416584,0.9986111111111111
0.7645523620746614,0.9986111111111111
0.7645853980839115,0.9986111111111111
0.7683680211430459,0.9986111111111111
0.768401057152296,0.9986111111111111
0.7689296333002973,0.9986111111111111
0.7689626693095474,0.9986111111111111
0.7749917409976875,0.9986111111111111
0.7750247770069376,0.9986111111111111
0.775206475057813,0.9986111111111111
0.7752395110670631,0.9986111111111111
0.77601585728444,0.9986111111111111
0.7760488932936901,0.9986111111111111
0.7766435414601917,0.9986111111111111
0.7766765774694417,0.9986111111111111
0.7790386521308226,0.9986111111111111
0.7790716881400727,0.9986111111111111
0.779600264288074,0.9986111111111111
0.779600264288074,0.9993055555555556
0.7853980839114635,0.9993055555555556
0.7854311199207136,0.9993055555555556
0.7864387182028411,0.9993055555555556
0.7864717542120911,0.9993055555555556
0.7894449950445986,0.9993055555555556
0.7894780310538487,0.9993055555555556
0.7921539478031053,0.9993055555555556
0.7921869838123554,0.9993055555555556
0.795986124876115,0.9993055555555556
0.7960191608853651,0.9993055555555556
0.7977865873802444,0.9993055555555556
0.7978196233894945,0.9993055555555556
0.798017839444995,0.9993055555555556
0.7980508754542451,0.9993055555555556
0.7996696399074992,0.9993055555555556
0.7997026759167493,0.9993055555555556
0.800016518004625,0.9993055555555556
0.8000495540138751,0.9993055555555556
0.8001816980508755,0.9993055555555556
0.8002147340601256,0.9993055555555556
0.8022629666336306,0.9993055555555556
0.8022960026428807,0.9993055555555556
0.8037000330360092,0.9993055555555556
0.8037330690452593,0.9993055555555556
0.8054839775355137,0.9993055555555556
0.8055170135447638,0.9993055555555556
0.8116782292699042,0.9993055555555556
0.8117112652791543,0.9993055555555556
0.8119590353485299,0.9993055555555556
0.81199207135778,0.9993055555555556
0.8125867195242815,0.9993055555555556
0.8126197555335315,0.9993055555555556
0.8143211100099108,0.9993055555555556
0.8143541460191609,0.9993055555555556
0.8152956722827882,0.9993055555555556
0.8153287082920383,0.9993055555555556
0.8169970267591675,0.9993055555555556
0.8170300627684176,0.9993055555555556
0.8170630987776677,0.9993055555555556
0.8170961347869178,0.9993055555555556
0.8171456888007929,0.9993055555555556
0.817178724810043,0.9993055555555556
0.8209778658738024,0.9993055555555556
0.8210109018830525,0.9993055555555556
0.8230426164519326,0.9993055555555556
0.8230756524611826,0.9993055555555556
0.8241658407664354,0.9993055555555556
0.8241988767756855,0.9993055555555556
0.8275189957053188,0.9993055555555556
0.8275520317145689,0.9993055555555556
0.8286422200198216,0.9993055555555556
0.8286752560290717,0.9993055555555556
0.8286917740336968,0.9993055555555556
0.8287248100429468,0.9993055555555556
0.8296498183019492,0.9993055555555556
0.8296828543111993,0.9993055555555556
0.8307400066072018,0.9993055555555556
0.8307730426164519,0.9993055555555556
0.830806078625702,0.9993055555555556
0.8308391146349521,0.9993055555555556
0.8315493888338289,0.9993055555555556
0.831582424843079,0.9993055555555556
0.8337132474397093,0.9993055555555556
0.8337462834489594,0.9993055555555556
0.8353320118929634,0.9993055555555556
0.8353650479022134,0.9993055555555556
0.8366369342583416,0.9993055555555556
0.8366699702675917,0.9993055555555556
0.8379418566237199,0.9993055555555556
0.83797489263297,0.9993055555555556
0.8418235877106045,0.9993055555555556
0.8418566237198546,0.9993055555555556
0.8423686818632309,0.9993055555555556
0.842401717872481,0.9993055555555556
0.8424843078956062,0.9993055555555556
0.8425173439048563,0.9993055555555556
0.8434093161546086,0.9993055555555556
0.8434423521638587,0.9993055555555556
0.8479187314172448,0.9993055555555556
0.8479517674264949,0.9993055555555556
0.8509745622728775,0.9993055555555556
0.8510075982821275,0.9993055555555556
0.8510736703006276,0.9993055555555556
0.8511067063098777,0.9993055555555556
0.8515031384208788,0.9993055555555556
0.8515361744301289,0.9993055555555556
0.8517343904856294,0.9993055555555556
0.8517674264948795,0.9993055555555556
0.854806739345887,0.9993055555555556
0.8548397753551371,0.9993055555555556
0.8552527254707631,0.9993055555555556
0.8552857614800132,0.9993055555555556
0.859596960687149,0.9993055555555556
0.8596299966963991,0.9993055555555556
0.8611000991080278,0.9993055555555556
0.8611331351172778,0.9993055555555556
0.8653617443012884,0.9993055555555556
0.8653947803105385,0.9993055555555556
0.8676742649487942,0.9993055555555556
0.8677073009580443,0.9993055555555556
0.8678064089857945,0.9993055555555556
0.8678394449950446,0.9993055555555556
0.8689461513049224,0.9993055555555556
0.8689791873141725,0.9993055555555556
0.8706640237859267,0.9993055555555556
0.8706970597951768,0.9993055555555556
0.8719524281466798,0.9993055555555556
0.8719854641559299,0.9993055555555556
0.8731747604889329,0.9993055555555556
0.873207796498183,0.9993055555555556
0.8740667327386852,0.9993055555555556
0.8740997687479353,0.9993055555555556
0.8750578130161877,0.9993055555555556
0.8750908490254378,0.9993055555555556
0.8760488932936901,0.9993055555555556
0.8760819293029402,0.9993055555555556
0.8767261314833168,0.9993055555555556
0.8767591674925669,0.9993055555555556
0.8788899900891972,0.9993055555555556
0.8789230260984473,0.9993055555555556
0.8789890981169475,0.9993055555555556
0.8790221341261976,0.9993055555555556
0.8806739345887017,0.9993055555555556
0.8807069705979518,0.9993055555555556
0.8813346547737033,0.9993055555555556
0.8813676907829534,0.9993055555555556
0.8825074331020812,0.9993055555555556
0.8825404691113313,0.9993055555555556
0.8830690452593327,0.9993055555555556
0.8831020812685828,0.9993055555555556
0.8881731086884704,0.9993055555555556
0.8882061446977205,0.9993055555555556
0.8888503468780972,0.9993055555555556
0.8888833828873473,0.9993055555555556
0.892814667988107,0.9993055555555556
0.8928477039973571,0.9993055555555556
0.8930294020482326,0.9993055555555556
0.8930624380574826,0.9993055555555556
0.8985298975883713,0.9993055555555556
0.8985629335976214,0.9993055555555556
0.9046085232903865,0.9993055555555556
0.9046415592996366,0.9993055555555556
0.9047241493227618,0.9993055555555556
0.9047571853320119,0.9993055555555556
0.9054179055170135,0.9993055555555556
0.9054509415262636,0.9993055555555556
0.9072183680211431,0.9993055555555556
0.9072514040303932,0.9993055555555556
0.9128510075982821,0.9993055555555556
0.9128840436075322,0.9993055555555556
0.9135612817971589,0.9993055555555556
0.913594317806409,0.9993055555555556
0.9166501486620416,0.9993055555555556
0.9166831846712917,0.9993055555555556
0.9168153287082921,0.9993055555555556
0.9168483647175422,0.9993055555555556
0.9206805417905517,0.9993055555555556
0.9207135777998018,0.9993055555555556
0.9207631318136769,0.9993055555555556
0.9207631318136769,1.0
0.9221341261975553,1.0
0.9221671622068054,1.0
0.9252395110670631,1.0
0.9252725470763132,1.0
0.9261314833168153,1.0
0.9261645193260654,1.0
0.9264288074000661,1.0
0.9264618434093161,1.0
0.9268747935249422,1.0
0.9269078295341923,1.0
0.9278823918070697,1.0
0.9279154278163197,1.0
0.9302444664684506,1.0
0.9302775024777007,1.0
0.9314998348199538,1.0
0.9315328708292039,1.0
0.9323752890650809,1.0
0.932408325074331,1.0
0.9346052196894615,1.0
0.9346382556987116,1.0
0.934786917740337,1.0
0.934819953749587,1.0
0.9396762471093492,1.0
0.9397092831185992,1.0
0.9401387512388504,1.0
0.9401717872481005,1.0
0.9421539478031054,1.0
0.9421869838123554,1.0
0.9422035018169805,1.0
0.9422365378262306,1.0
0.9423026098447308,1.0
0.9423356458539809,1.0
0.9425503799141064,1.0
0.9425834159233565,1.0
0.944383878427486,1.0
0.944416914436736,1.0
0.9451767426494879,1.0
0.945209778658738,1.0
0.9478526593987446,1.0
0.9478856954079947,1.0
0.9485959696068715,1.0
0.9486290056161216,1.0
0.9527585067723819,1.0
0.952791542781632,1.0
0.9528576148001321,1.0
0.9528906508093822,1.0
0.9586389164188966,1.0
0.9586719524281467,1.0
0.960802775024777,1.0
0.960835811034027,1.0
0.9611496531219029,1.0
0.961182689131153,1.0
0.9666997026759168,1.0
0.9667327386851668,1.0
0.9669144367360423,1.0
0.9669474727452924,1.0
0.9677898909811695,1.0
0.9678229269904196,1.0
0.9694086554344236,1.0
0.9694416914436736,1.0
0.9701354476379254,1.0
0.9701684836471755,1.0
0.9731747604889329,1.0
0.973207796498183,1.0
0.9770399735711927,1.0
0.9770730095804426,1.0
0.9775685497191939,1.0
0.977601585728444,1.0
0.9833498513379584,1.0
0.9833828873472085,1.0
0.9840601255368352,1.0
0.9840931615460853,1.0
0.985199867855963,1.0
0.9852329038652131,1.0
0.9873802444664684,1.0
0.9874132804757185,1.0
0.987594978526594,1.0
0.987628014535844,1.0
0.990832507433102,1.0
0.9908655434423521,1.0
0.991592335645854,1.0
0.9916253716551041,1.0
0.9922035018169805,1.0
0.9922365378262306,1.0
0.9923521638586059,1.0
0.992385199867856,1.0
0.9943673604228609,1.0
0.994400396432111,1.0
0.9976214073339941,1.0
0.9976544433432442,1.0
1.0,1.0
