fpr,tpr
0.0,0.0
0.0,0.0003403675970047651
1.7075919538267136e-05,0.0003403675970047651
1.7075919538267136e-05,0.07147719537100068
1.7075919538267136e-05,0.07215793056501021
1.7075919538267136e-05,0.21885636487406399
3.415183907653427e-05,0.21885636487406399
3.415183907653427e-05,0.3005445881552076
5.1227758614801405e-05,0.3005445881552076
5.1227758614801405e-05,0.3356024506466984
6.830367815306854e-05,0.3356024506466984
6.830367815306854e-05,0.359428182437032
6.830367815306854e-05,0.3601089176310415
6.830367815306854e-05,0.4557522123893805
8.537959769133568e-05,0.4557522123893805
8.537959769133568e-05,0.5125936010891763
0.00010245551722960281,0.5125936010891763
0.00010245551722960281,0.5187202178352621
0.00011953143676786995,0.5187202178352621
0.00011953143676786995,0.5211027910142955
0.0001366073563061371,0.5211027910142955
0.0001366073563061371,0.5238257317903335
0.00015368327584440423,0.5238257317903335
0.00015368327584440423,0.5279101429543908
0.00017075919538267137,0.5279101429543908
0.00017075919538267137,0.5364193328795098
0.00018783511492093848,0.5364193328795098
0.00018783511492093848,0.540503744043567
0.00020491103445920562,0.540503744043567
0.00020491103445920562,0.5432266848196051
0.00022198695399747276,0.5432266848196051
0.00022198695399747276,0.5469707283866576
0.0002390628735357399,0.5469707283866576
0.0002390628735357399,0.5599046970728386
0.000256138793074007,0.5599046970728386
0.000256138793074007,0.5602450646698435
0.0002732147126122742,0.5602450646698435
0.0002732147126122742,0.5762423417290674
0.0002902906321505413,0.5762423417290674
0.0002902906321505413,0.5779441797140912
0.00030736655168880846,0.5779441797140912
0.00030736655168880846,0.5820285908781484
0.00034151839076534274,0.5820285908781484
0.00034151839076534274,0.5833900612661674
0.00035859431030360985,0.5833900612661674
0.00035859431030360985,0.5837304288631723
0.00037567022984187696,0.5837304288631723
0.00037567022984187696,0.5847515316541865
0.00039274614938014413,0.5847515316541865
0.00039274614938014413,0.5871341048332199
0.0004268979884566784,0.5871341048332199
0.0004268979884566784,0.5925799863852961
0.0004439739079949455,0.5925799863852961
0.0004439739079949455,0.5963240299523486
0.0004610498275332127,0.5963240299523486
0.0004610498275332127,0.5966643975493533
0.0004781257470714798,0.5966643975493533
0.0004781257470714798,0.6031313818924439
0.0004952016666097469,0.6031313818924439
0.0004952016666097469,0.6038121170864533
0.000512277586148014,0.6038121170864533
0.000512277586148014,0.6044928522804629
0.0005293535056862812,0.6044928522804629
0.0005293535056862812,0.6051735874744725
0.0005464294252245484,0.6051735874744725
0.0005464294252245484,0.6068754254594962
0.0005635053447628155,0.6068754254594962
0.0005635053447628155,0.607215793056501
0.0005976571838393497,0.607215793056501
0.0005976571838393497,0.6099387338325392
0.0006147331033776169,0.6099387338325392
0.0006147331033776169,0.6109598366235535
0.000631809022915884,0.6109598366235535
0.000631809022915884,0.6123213070115725
0.0006488849424541511,0.6123213070115725
0.0006488849424541511,0.6147038801906058
0.0006659608619924183,0.6147038801906058
0.0006659608619924183,0.6181075561606535
0.0006830367815306855,0.6181075561606535
0.0006830367815306855,0.6204901293396868
0.0007171886206072197,0.6204901293396868
0.0007171886206072197,0.6215112321307011
0.0007342645401454868,0.6215112321307011
0.0007342645401454868,0.6228727025187202
0.0007684163792220211,0.6228727025187202
0.0007684163792220211,0.6262763784887678
0.0008196441378368225,0.6262763784887678
0.0008196441378368225,0.6269571136827774
0.0008367200573750896,0.6269571136827774
0.0008367200573750896,0.6286589516678013
0.0008537959769133568,0.6286589516678013
0.0008537959769133568,0.6307011572498298
0.000887947815989891,0.6307011572498298
0.000887947815989891,0.6310415248468346
0.0009220996550664254,0.6310415248468346
0.0009220996550664254,0.6327433628318584
0.0009391755746046925,0.6327433628318584
0.0009391755746046925,0.6330837304288631
0.0009562514941429596,0.6330837304288631
0.0009562514941429596,0.6341048332198774
0.0009733274136812267,0.6341048332198774
0.0009733274136812267,0.634785568413887
0.0009904033332194938,0.634785568413887
0.0009904033332194938,0.6354663036078966
0.001007479252757761,0.6354663036078966
0.001007479252757761,0.6358066712049013
0.001024555172296028,0.6358066712049013
0.001024555172296028,0.6375085091899251
0.0010416310918342953,0.6375085091899251
0.0010416310918342953,0.639210347174949
0.0010587070113725625,0.639210347174949
0.0010587070113725625,0.6398910823689585
0.0010757829309108295,0.6398910823689585
0.0010757829309108295,0.6402314499659633
0.0010928588504490967,0.6402314499659633
0.0010928588504490967,0.6460176991150443
0.0011440866090638982,0.6460176991150443
0.0011440866090638982,0.6466984343090538
0.0011611625286021652,0.6466984343090538
0.0011611625286021652,0.6470388019060586
0.0011782384481404324,0.6470388019060586
0.0011782384481404324,0.6480599046970729
0.0011953143676786994,0.6480599046970729
0.0011953143676786994,0.6501021102791015
0.0012123902872169666,0.6501021102791015
0.0012123902872169666,0.6504424778761062
0.0012294662067552338,0.6504424778761062
0.0012294662067552338,0.6518039482641252
0.0012465421262935008,0.6518039482641252
0.0012465421262935008,0.6528250510551395
0.001263618045831768,0.6528250510551395
0.001263618045831768,0.6552076242341729
0.0012806939653700353,0.6552076242341729
0.0012806939653700353,0.6575901974132062
0.0012977698849083023,0.6575901974132062
0.0012977698849083023,0.6592920353982301
0.0013148458044465695,0.6592920353982301
0.0013148458044465695,0.6596324029952348
0.0013319217239848365,0.6596324029952348
0.0013319217239848365,0.6599727705922396
0.001366073563061371,0.6599727705922396
0.001366073563061371,0.6623553437712729
0.0014002254021379052,0.6623553437712729
0.0014002254021379052,0.6633764465622872
0.0014173013216761722,0.6633764465622872
0.0014173013216761722,0.6640571817562968
0.0014343772412144394,0.6640571817562968
0.0014343772412144394,0.6647379169503064
0.0014514531607527066,0.6647379169503064
0.0014514531607527066,0.6650782845473111
0.0014685290802909736,0.6650782845473111
0.0014685290802909736,0.6660993873383254
0.0014856049998292408,0.6660993873383254
0.0014856049998292408,0.6664397549353301
0.001519756838905775,0.6664397549353301
0.001519756838905775,0.6671204901293397
0.0015368327584440423,0.6671204901293397
0.0015368327584440423,0.6678012253233492
0.0015539086779823093,0.6678012253233492
0.0015539086779823093,0.668141592920354
0.0015709845975205765,0.668141592920354
0.0015709845975205765,0.6705241660993874
0.0016051364365971107,0.6705241660993874
0.0016051364365971107,0.6712049012933968
0.001622212356135378,0.6712049012933968
0.001622212356135378,0.672566371681416
0.0016563641952119122,0.672566371681416
0.0016563641952119122,0.6729067392784207
0.0016734401147501792,0.6729067392784207
0.0016734401147501792,0.6742682096664397
0.0016905160342884464,0.6742682096664397
0.0016905160342884464,0.6749489448604493
0.0017075919538267136,0.6749489448604493
0.0017075919538267136,0.6756296800544588
0.0017246678733649806,0.6756296800544588
0.0017246678733649806,0.6759700476514636
0.0017417437929032479,0.6759700476514636
0.0017417437929032479,0.6807351940095303
0.001758819712441515,0.6807351940095303
0.001758819712441515,0.6814159292035398
0.0018100474710563163,0.6814159292035398
0.0018100474710563163,0.6824370319945541
0.0018612752296711178,0.6824370319945541
0.0018612752296711178,0.6848196051735874
0.001878351149209385,0.6848196051735874
0.001878351149209385,0.6861810755616066
0.001895427068747652,0.6861810755616066
0.001895427068747652,0.6865214431586113
0.0019125029882859192,0.6865214431586113
0.0019125029882859192,0.6872021783526209
0.0019295789078241864,0.6872021783526209
0.0019295789078241864,0.6902654867256637
0.0019466548273624534,0.6902654867256637
0.0019466548273624534,0.6906058543226685
0.0019637307469007204,0.6906058543226685
0.0019637307469007204,0.6909462219196733
0.0019808066664389876,0.6909462219196733
0.0019808066664389876,0.691286589516678
0.002014958505515522,0.691286589516678
0.002014958505515522,0.6916269571136828
0.0020320344250537893,0.6916269571136828
0.0020320344250537893,0.6923076923076923
0.002049110344592056,0.6923076923076923
0.002049110344592056,0.6946902654867256
0.0020661862641303233,0.6946902654867256
0.0020661862641303233,0.6950306330837305
0.0020832621836685905,0.6950306330837305
0.0020832621836685905,0.6960517358747447
0.0021003381032068578,0.6960517358747447
0.0021003381032068578,0.6963921034717495
0.002117414022745125,0.6963921034717495
0.002117414022745125,0.6991150442477876
0.0021344899422833918,0.6991150442477876
0.0021344899422833918,0.6994554118447924
0.002151565861821659,0.6994554118447924
0.002151565861821659,0.7001361470388019
0.002168641781359926,0.7001361470388019
0.002168641781359926,0.7014976174268209
0.0021857177008981934,0.7014976174268209
0.0021857177008981934,0.7018379850238258
0.0022027936204364607,0.7018379850238258
0.0022027936204364607,0.7028590878148401
0.0022198695399747274,0.7028590878148401
0.0022198695399747274,0.7059223961878829
0.002254021379051262,0.7059223961878829
0.002254021379051262,0.7066031313818925
0.002271097298589529,0.7066031313818925
0.002271097298589529,0.7069434989788972
0.002305249137666063,0.7069434989788972
0.002305249137666063,0.7083049693669162
0.0023223250572043303,0.7083049693669162
0.0023223250572043303,0.7103471749489448
0.0023394009767425976,0.7103471749489448
0.0023394009767425976,0.7113682777399591
0.0023564768962808648,0.7113682777399591
0.0023564768962808648,0.7157930565010211
0.002373552815819132,0.7157930565010211
0.002373552815819132,0.7161334240980258
0.0023906287353573988,0.7161334240980258
0.0023906287353573988,0.717494894486045
0.002407704654895666,0.717494894486045
0.002407704654895666,0.7185159972770592
0.0024247805744339332,0.7185159972770592
0.0024247805744339332,0.718856364874064
0.0024589324135104677,0.718856364874064
0.0024589324135104677,0.7215793056501021
0.002476008333048735,0.7215793056501021
0.002476008333048735,0.7226004084411164
0.0024930842525870017,0.7226004084411164
0.0024930842525870017,0.7249829816201497
0.002510160172125269,0.7249829816201497
0.002510160172125269,0.7253233492171546
0.0025613879307400706,0.7253233492171546
0.0025613879307400706,0.7277059223961879
0.0025955397698166046,0.7277059223961879
0.0025955397698166046,0.7280462899931927
0.002629691608893139,0.7280462899931927
0.002629691608893139,0.7294077603812117
0.0026467675284314062,0.7294077603812117
0.0026467675284314062,0.7297481279782164
0.002663843447969673,0.7297481279782164
0.002663843447969673,0.7311095983662356
0.0026979952870462075,0.7311095983662356
0.0026979952870462075,0.731790333560245
0.0027150712065844747,0.731790333560245
0.0027150712065844747,0.7321307011572499
0.002732147126122742,0.7321307011572499
0.002732147126122742,0.7324710687542546
0.0027492230456610087,0.7324710687542546
0.0027492230456610087,0.7334921715452689
0.0028004508042758103,0.7334921715452689
0.0028004508042758103,0.7338325391422736
0.0028175267238140776,0.7338325391422736
0.0028175267238140776,0.7345132743362832
0.0028516785628906116,0.7345132743362832
0.0028516785628906116,0.7351940095302927
0.002868754482428879,0.7351940095302927
0.002868754482428879,0.7358747447243023
0.0029541340801202145,0.7358747447243023
0.0029541340801202145,0.7365554799183118
0.0030053618387350157,0.7365554799183118
0.0030053618387350157,0.7368958475153166
0.003022437758273283,0.7368958475153166
0.003022437758273283,0.7372362151123213
0.0030565895973498174,0.7372362151123213
0.0030565895973498174,0.7389380530973452
0.0030907414364263514,0.7389380530973452
0.0030907414364263514,0.7392784206943499
0.0031078173559646186,0.7392784206943499
0.0031078173559646186,0.7399591558883595
0.003124893275502886,0.7399591558883595
0.003124893275502886,0.742001361470388
0.003141969195041153,0.742001361470388
0.003141969195041153,0.7426820966643976
0.0031590451145794203,0.7426820966643976
0.0031590451145794203,0.7437031994554119
0.003176121034117687,0.7437031994554119
0.003176121034117687,0.7457454050374405
0.0031931969536559543,0.7457454050374405
0.0031931969536559543,0.7460857726344452
0.0032273487927324887,0.7460857726344452
0.0032273487927324887,0.7464261402314499
0.003244424712270756,0.7464261402314499
0.003244424712270756,0.7471068754254595
0.0032615006318090227,0.7471068754254595
0.0032615006318090227,0.7477876106194691
0.003381032068576893,0.7477876106194691
0.003381032068576893,0.7481279782164738
0.00339810798811516,0.7481279782164738
0.00339810798811516,0.7484683458134785
0.0034322598271916945,0.7484683458134785
0.0034322598271916945,0.7488087134104833
0.0034493357467299613,0.7488087134104833
0.0034493357467299613,0.7501701837985024
0.0034834875858064957,0.7501701837985024
0.0034834875858064957,0.7522123893805309
0.003500563505344763,0.7522123893805309
0.003500563505344763,0.7535738597685501
0.0035688671834978314,0.7535738597685501
0.0035688671834978314,0.7542545949625595
0.0037054745398039683,0.7542545949625595
0.0037054745398039683,0.7552756977535738
0.0037225504593422355,0.7552756977535738
0.0037225504593422355,0.7559564329475834
0.0037396263788805027,0.7559564329475834
0.0037396263788805027,0.7576582709326072
0.003807930057033571,0.7576582709326072
0.003807930057033571,0.7583390061266168
0.0038420818961101056,0.7583390061266168
0.0038420818961101056,0.7586793737236215
0.003893309654724907,0.7586793737236215
0.003893309654724907,0.7590197413206263
0.0039445374133397085,0.7590197413206263
0.0039445374133397085,0.7607215793056501
0.003961613332877975,0.7607215793056501
0.003961613332877975,0.7610619469026548
0.003978689252416243,0.7610619469026548
0.003978689252416243,0.762423417290674
0.00399576517195451,0.762423417290674
0.00399576517195451,0.763784887678693
0.0040128410914927765,0.763784887678693
0.0040128410914927765,0.7654867256637168
0.004029917011031044,0.7654867256637168
0.004029917011031044,0.7661674608577264
0.004098220689184112,0.7661674608577264
0.004098220689184112,0.7668481960517358
0.00411529660872238,0.7668481960517358
0.00411529660872238,0.7675289312457454
0.004132372528260647,0.7675289312457454
0.004132372528260647,0.7685500340367597
0.004149448447798914,0.7685500340367597
0.004149448447798914,0.769571136827774
0.004166524367337181,0.769571136827774
0.004166524367337181,0.7702518720217836
0.004217752125951982,0.7702518720217836
0.004217752125951982,0.770932607215793
0.00423482804549025,0.770932607215793
0.00423482804549025,0.7722940776038121
0.004251903965028517,0.7722940776038121
0.004251903965028517,0.7726344452008169
0.004303131723643318,0.7726344452008169
0.004303131723643318,0.7729748127978217
0.004337283562719852,0.7729748127978217
0.004337283562719852,0.7736555479918312
0.004371435401796387,0.7736555479918312
0.004371435401796387,0.7743362831858407
0.004439739079949455,0.7743362831858407
0.004439739079949455,0.7746766507828454
0.0044568149994877225,0.7746766507828454
0.0044568149994877225,0.7756977535738597
0.004490966838564257,0.7756977535738597
0.004490966838564257,0.7760381211708646
0.004508042758102524,0.7760381211708646
0.004508042758102524,0.7773995915588836
0.004559270516717325,0.7773995915588836
0.004559270516717325,0.7784206943498979
0.004576346436255593,0.7784206943498979
0.004576346436255593,0.7801225323349217
0.0045934223557938594,0.7801225323349217
0.0045934223557938594,0.7808032675289313
0.004610498275332126,0.7808032675289313
0.004610498275332126,0.781143635125936
0.004627574194870394,0.781143635125936
0.004627574194870394,0.7821647379169503
0.004644650114408661,0.7821647379169503
0.004644650114408661,0.782505105513955
0.004661726033946928,0.782505105513955
0.004661726033946928,0.7838665759019742
0.004695877873023462,0.7838665759019742
0.004695877873023462,0.7842069434989789
0.0047129537925617295,0.7842069434989789
0.0047129537925617295,0.7852280462899932
0.004747105631638264,0.7852280462899932
0.004747105631638264,0.7855684138869979
0.004815409309791332,0.7855684138869979
0.004815409309791332,0.7862491490810075
0.0048324852293296,0.7862491490810075
0.0048324852293296,0.7865895166780122
0.004900788907482668,0.7865895166780122
0.004900788907482668,0.7876106194690266
0.004934940746559202,0.7876106194690266
0.004934940746559202,0.7882913546630361
0.00495201666609747,0.7882913546630361
0.00495201666609747,0.7886317222600409
0.005020320344250538,0.7886317222600409
0.005020320344250538,0.7889720898570456
0.0050373962637888054,0.7889720898570456
0.0050373962637888054,0.7896528250510552
0.005054472183327072,0.7896528250510552
0.005054472183327072,0.7899931926480599
0.005071548102865339,0.7899931926480599
0.005071548102865339,0.7903335602450646
0.005088624022403607,0.7903335602450646
0.005088624022403607,0.7910142954390742
0.0051056999419418735,0.7910142954390742
0.0051056999419418735,0.7933968686181075
0.005122775861480141,0.7933968686181075
0.005122775861480141,0.7937372362151123
0.005139851781018408,0.7937372362151123
0.005139851781018408,0.7940776038121171
0.005174003620094942,0.7940776038121171
0.005174003620094942,0.7944179714091218
0.005225231378709744,0.7944179714091218
0.005225231378709744,0.7954390742001362
0.005310610976401079,0.7954390742001362
0.005310610976401079,0.7957794417971409
0.0053618387350158805,0.7957794417971409
0.0053618387350158805,0.7961198093941457
0.005395990574092415,0.7961198093941457
0.005395990574092415,0.7981620149761742
0.005447218332707216,0.7981620149761742
0.005447218332707216,0.7985023825731791
0.005464294252245484,0.7985023825731791
0.005464294252245484,0.7995234853641934
0.005481370171783751,0.7995234853641934
0.005481370171783751,0.7998638529611981
0.005515522010860285,0.7998638529611981
0.005515522010860285,0.8002042205582028
0.005532597930398552,0.8002042205582028
0.005532597930398552,0.8005445881552076
0.005566749769475086,0.8005445881552076
0.005566749769475086,0.8015656909462219
0.0056179775280898875,0.8015656909462219
0.0056179775280898875,0.8019060585432267
0.005652129367166422,0.8019060585432267
0.005652129367166422,0.8025867937372362
0.005703357125781223,0.8025867937372362
0.005703357125781223,0.8032675289312458
0.005771660803934292,0.8032675289312458
0.005771660803934292,0.8049693669162695
0.00583996448208736,0.8049693669162695
0.00583996448208736,0.8053097345132744
0.005925344079778696,0.8053097345132744
0.005925344079778696,0.8056501021102791
0.006027799597008299,0.8056501021102791
0.006027799597008299,0.8063308373042887
0.0060619514360848335,0.8063308373042887
0.0060619514360848335,0.807351940095303
0.0060790273556231,0.807351940095303
0.0060790273556231,0.8110959836623554
0.006147331033776169,0.8110959836623554
0.006147331033776169,0.8117767188563648
0.006181482872852703,0.8117767188563648
0.006181482872852703,0.8124574540503744
0.00619855879239097,0.8124574540503744
0.00619855879239097,0.8127978216473791
0.006232710631467505,0.8127978216473791
0.006232710631467505,0.8134785568413887
0.006249786551005772,0.8134785568413887
0.006249786551005772,0.8138189244383934
0.006335166148697107,0.8138189244383934
0.006335166148697107,0.8141592920353983
0.006420545746388443,0.8141592920353983
0.006420545746388443,0.814499659632403
0.006471773505003244,0.814499659632403
0.006471773505003244,0.8148400272294077
0.006488849424541512,0.8148400272294077
0.006488849424541512,0.8151803948264126
0.006523001263618045,0.8151803948264126
0.006523001263618045,0.8155207624234173
0.006608380861309381,0.8155207624234173
0.006608380861309381,0.8165418652144316
0.006625456780847649,0.8165418652144316
0.006625456780847649,0.8168822328114363
0.0066425327003859155,0.8168822328114363
0.0066425327003859155,0.8172226004084411
0.006693760459000717,0.8172226004084411
0.006693760459000717,0.8182437031994554
0.006710836378538984,0.8182437031994554
0.006710836378538984,0.8185840707964602
0.006744988217615519,0.8185840707964602
0.006744988217615519,0.8199455411844793
0.0067791400566920524,0.8199455411844793
0.0067791400566920524,0.820285908781484
0.0068303678153068545,0.820285908781484
0.0068303678153068545,0.821647379169503
0.006864519654383389,0.821647379169503
0.006864519654383389,0.8219877467665079
0.006881595573921656,0.8219877467665079
0.006881595573921656,0.8223281143635126
0.006949899252074725,0.8223281143635126
0.006949899252074725,0.8226684819605173
0.006966975171612991,0.8226684819605173
0.006966975171612991,0.8230088495575221
0.006984051091151258,0.8230088495575221
0.006984051091151258,0.8233492171545269
0.00703527884976606,0.8233492171545269
0.00703527884976606,0.8236895847515316
0.007137734366995663,0.8236895847515316
0.007137734366995663,0.8240299523485364
0.0071548102865339296,0.8240299523485364
0.0071548102865339296,0.8243703199455412
0.007171886206072197,0.8243703199455412
0.007171886206072197,0.8250510551395507
0.007188962125610464,0.8250510551395507
0.007188962125610464,0.8257317903335603
0.007206038045148732,0.8257317903335603
0.007206038045148732,0.826072157930565
0.007257265803763533,0.826072157930565
0.007257265803763533,0.8264125255275698
0.0072743417233018,0.8264125255275698
0.0072743417233018,0.8267528931245746
0.007291417642840067,0.8267528931245746
0.007291417642840067,0.827433628318584
0.007308493562378334,0.827433628318584
0.007308493562378334,0.8284547311095983
0.007410949079607937,0.8284547311095983
0.007410949079607937,0.8291354663036079
0.007445100918684471,0.8291354663036079
0.007445100918684471,0.8294758339006126
0.0074792527577610055,0.8294758339006126
0.0074792527577610055,0.8298162014976175
0.007496328677299272,0.8298162014976175
0.007496328677299272,0.8301565690946222
0.007530480516375807,0.8301565690946222
0.007530480516375807,0.8304969366916269
0.007581708274990608,0.8304969366916269
0.007581708274990608,0.8311776718856365
0.007615860114067142,0.8311776718856365
0.007615860114067142,0.8315180394826412
0.00763293603360541,0.8315180394826412
0.00763293603360541,0.831858407079646
0.007786619309449814,0.831858407079646
0.007786619309449814,0.8321987746766508
0.007837847068064615,0.8321987746766508
0.007837847068064615,0.8325391422736556
0.00792322666575595,0.8325391422736556
0.00792322666575595,0.8328795098706603
0.007940302585294217,0.8328795098706603
0.007940302585294217,0.8332198774676651
0.007957378504832486,0.8332198774676651
0.007957378504832486,0.8335602450646699
0.007974454424370753,0.8335602450646699
0.007974454424370753,0.8339006126616746
0.008042758102523822,0.8339006126616746
0.008042758102523822,0.8349217154526889
0.008059834022062088,0.8349217154526889
0.008059834022062088,0.8352620830496936
0.008111061780676889,0.8352620830496936
0.008111061780676889,0.8356024506466985
0.008179365458829958,0.8356024506466985
0.008179365458829958,0.8359428182437032
0.00823059321744476,0.8359428182437032
0.00823059321744476,0.8366235534377128
0.008264745056521293,0.8366235534377128
0.008264745056521293,0.8369639210347175
0.008298896895597829,0.8369639210347175
0.008298896895597829,0.8373042886317222
0.008333048734674362,0.8373042886317222
0.008333048734674362,0.8383253914227365
0.008401352412827431,0.8383253914227365
0.008401352412827431,0.8386657590197413
0.008418428332365698,0.8386657590197413
0.008418428332365698,0.8393464942137508
0.008452580171442231,0.8393464942137508
0.008452580171442231,0.8396868618107556
0.00858918752774837,0.8396868618107556
0.00858918752774837,0.8403675970047652
0.008623339366824903,0.8403675970047652
0.008623339366824903,0.8407079646017699
0.008640415286363171,0.8407079646017699
0.008640415286363171,0.8410483321987747
0.008674567125439705,0.8410483321987747
0.008674567125439705,0.8413886997957795
0.008725794884054507,0.8413886997957795
0.008725794884054507,0.8417290673927842
0.008794098562207574,0.8417290673927842
0.008794098562207574,0.8420694349897889
0.008811174481745843,0.8420694349897889
0.008811174481745843,0.8424098025867938
0.00882825040128411,0.8424098025867938
0.00882825040128411,0.8427501701837985
0.008845326320822376,0.8427501701837985
0.008845326320822376,0.8430905377808032
0.00887947815989891,0.8430905377808032
0.00887947815989891,0.8434309053778081
0.008896554079437178,0.8434309053778081
0.008896554079437178,0.8437712729748128
0.008947781838051979,0.8437712729748128
0.008947781838051979,0.8444520081688224
0.008981933677128514,0.8444520081688224
0.008981933677128514,0.8451327433628318
0.009016085516205048,0.8451327433628318
0.009016085516205048,0.8458134785568414
0.009033161435743314,0.8458134785568414
0.009033161435743314,0.8461538461538461
0.009050237355281581,0.8461538461538461
0.009050237355281581,0.8468345813478557
0.009169768792049452,0.8468345813478557
0.009169768792049452,0.8475153165418652
0.009323452067893857,0.8475153165418652
0.009323452067893857,0.84785568413887
0.00935760390697039,0.84785568413887
0.00935760390697039,0.8481960517358748
0.009374679826508657,0.8481960517358748
0.009374679826508657,0.8485364193328795
0.009494211263276528,0.8485364193328795
0.009494211263276528,0.8488767869298843
0.009511287182814795,0.8488767869298843
0.009511287182814795,0.8492171545268891
0.009528363102353062,0.8492171545268891
0.009528363102353062,0.8495575221238938
0.009613742700044397,0.8495575221238938
0.009613742700044397,0.8502382573179034
0.009630818619582664,0.8502382573179034
0.009630818619582664,0.8509189925119128
0.00964789453912093,0.8509189925119128
0.00964789453912093,0.8512593601089177
0.0096649704586592,0.8512593601089177
0.0096649704586592,0.8515997277059224
0.009699122297735733,0.8515997277059224
0.009699122297735733,0.8519400953029271
0.009767425975888802,0.8519400953029271
0.009767425975888802,0.852280462899932
0.009818653734503604,0.852280462899932
0.009818653734503604,0.8526208304969367
0.00983572965404187,0.8526208304969367
0.00983572965404187,0.8529611980939414
0.009852805573580137,0.8529611980939414
0.009852805573580137,0.8533015656909462
0.010040640688501076,0.8533015656909462
0.010040640688501076,0.853641933287951
0.010091868447115878,0.853641933287951
0.010091868447115878,0.8539823008849557
0.010126020286192411,0.8539823008849557
0.010126020286192411,0.8543226684819605
0.010143096205730678,0.8543226684819605
0.010143096205730678,0.8546630360789653
0.010228475803422014,0.8546630360789653
0.010228475803422014,0.8556841388699796
0.010245551722960282,0.8556841388699796
0.010245551722960282,0.8563648740639891
0.010382159079266418,0.8563648740639891
0.010382159079266418,0.8570456092579987
0.010399234998804685,0.8570456092579987
0.010399234998804685,0.8573859768550034
0.01050169051603429,0.8573859768550034
0.01050169051603429,0.8577263444520081
0.010535842355110823,0.8577263444520081
0.010535842355110823,0.8584070796460177
0.010621221952802158,0.8584070796460177
0.010621221952802158,0.8587474472430224
0.010689525630955227,0.8587474472430224
0.010689525630955227,0.859428182437032
0.010706601550493494,0.859428182437032
0.010706601550493494,0.8597685500340367
0.010809057067723097,0.8597685500340367
0.010809057067723097,0.8604492852280463
0.010911512584952699,0.8604492852280463
0.010911512584952699,0.860789652825051
0.010945664424029234,0.860789652825051
0.010945664424029234,0.8611300204220558
0.010962740343567501,0.8611300204220558
0.010962740343567501,0.8614703880190606
0.011048119941258837,0.8614703880190606
0.011048119941258837,0.8618107556160653
0.011065195860797104,0.8618107556160653
0.011065195860797104,0.8621511232130701
0.011099347699873639,0.8621511232130701
0.011099347699873639,0.8628318584070797
0.01115057545848844,0.8628318584070797
0.01115057545848844,0.8631722260040844
0.011167651378026706,0.8631722260040844
0.011167651378026706,0.8635125936010892
0.011184727297564975,0.8635125936010892
0.011184727297564975,0.863852961198094
0.011304258734332844,0.863852961198094
0.011304258734332844,0.8645336963921034
0.01132133465387111,0.8645336963921034
0.01132133465387111,0.8648740639891083
0.011355486492947646,0.8648740639891083
0.011355486492947646,0.865214431586113
0.011440866090638982,0.865214431586113
0.011440866090638982,0.8655547991831177
0.011492093849253782,0.8655547991831177
0.011492093849253782,0.8658951667801226
0.011509169768792049,0.8658951667801226
0.011509169768792049,0.8662355343771273
0.011543321607868584,0.8662355343771273
0.011543321607868584,0.866575901974132
0.011577473446945118,0.866575901974132
0.011577473446945118,0.8675970047651463
0.011594549366483384,0.8675970047651463
0.011594549366483384,0.8686181075561606
0.011714080803251255,0.8686181075561606
0.011714080803251255,0.8689584751531654
0.011731156722789522,0.8689584751531654
0.011731156722789522,0.8692988427501702
0.011765308561866056,0.8692988427501702
0.011765308561866056,0.869639210347175
0.011833612240019125,0.869639210347175
0.011833612240019125,0.8699795779441797
0.011850688159557391,0.8699795779441797
0.011850688159557391,0.8706603131381893
0.011901915918172194,0.8706603131381893
0.011901915918172194,0.8716814159292036
0.012021447354940063,0.8716814159292036
0.012021447354940063,0.8720217835262083
0.012055599194016598,0.8720217835262083
0.012055599194016598,0.8727025187202179
0.012140978791707934,0.8727025187202179
0.012140978791707934,0.8730428863172226
0.0121580547112462,0.8730428863172226
0.0121580547112462,0.8733832539142273
0.012294662067552338,0.8733832539142273
0.012294662067552338,0.8737236215112322
0.012362965745705405,0.8737236215112322
0.012362965745705405,0.8747447243022465
0.012414193504320208,0.8747447243022465
0.012414193504320208,0.8750850918992512
0.012619104538779412,0.8750850918992512
0.012619104538779412,0.8754254594962559
0.012721560056009017,0.8754254594962559
0.012721560056009017,0.8761061946902655
0.012738635975547283,0.8761061946902655
0.012738635975547283,0.8764465622872702
0.01275571189508555,0.8764465622872702
0.01275571189508555,0.876786929884275
0.012789863734162084,0.876786929884275
0.012789863734162084,0.8771272974812798
0.012892319251391688,0.8771272974812798
0.012892319251391688,0.8774676650782846
0.012909395170929955,0.8774676650782846
0.012909395170929955,0.8781484002722941
0.012926471090468222,0.8781484002722941
0.012926471090468222,0.8788291354663036
0.012943547010006488,0.8788291354663036
0.012943547010006488,0.8791695030633083
0.012977698849083024,0.8791695030633083
0.012977698849083024,0.8801906058543226
0.013028926607697824,0.8801906058543226
0.013028926607697824,0.8805309734513275
0.013148458044465695,0.8805309734513275
0.013148458044465695,0.8808713410483322
0.013319217239848366,0.8808713410483322
0.013319217239848366,0.8815520762423418
0.013370444998463167,0.8815520762423418
0.013370444998463167,0.8818924438393465
0.013455824596154502,0.8818924438393465
0.013455824596154502,0.8822328114363512
0.013489976435231038,0.8822328114363512
0.013489976435231038,0.8829135466303608
0.013541204193845838,0.8829135466303608
0.013541204193845838,0.8835942818243703
0.013558280113384105,0.8835942818243703
0.013558280113384105,0.8839346494213751
0.013575356032922373,0.8839346494213751
0.013575356032922373,0.8842750170183798
0.013626583791537174,0.8842750170183798
0.013626583791537174,0.8846153846153846
0.013643659711075442,0.8846153846153846
0.013643659711075442,0.8849557522123894
0.013746115228305045,0.8849557522123894
0.013746115228305045,0.8852961198093942
0.013814418906458114,0.8852961198093942
0.013814418906458114,0.8856364874063989
0.01383149482599638,0.8856364874063989
0.01383149482599638,0.8859768550034037
0.013985178101840785,0.8859768550034037
0.013985178101840785,0.8866575901974132
0.014087633619070387,0.8866575901974132
0.014087633619070387,0.8869979577944179
0.014121785458146921,0.8869979577944179
0.014121785458146921,0.8873383253914228
0.01419008913629999,0.8873383253914228
0.01419008913629999,0.8876786929884275
0.014224240975376523,0.8876786929884275
0.014224240975376523,0.8880190605854322
0.014241316894914792,0.8880190605854322
0.014241316894914792,0.8883594281824371
0.014360848331682661,0.8883594281824371
0.014360848331682661,0.8886997957794418
0.014395000170759195,0.8886997957794418
0.014395000170759195,0.8890401633764465
0.01442915200983573,0.8890401633764465
0.01442915200983573,0.8893805309734514
0.01448037976845053,0.8893805309734514
0.01448037976845053,0.8897208985704561
0.014582835285680135,0.8897208985704561
0.014582835285680135,0.8900612661674608
0.014651138963833202,0.8900612661674608
0.014651138963833202,0.8904016337644656
0.01466821488337147,0.8904016337644656
0.01466821488337147,0.8910823689584751
0.014890201837368942,0.8910823689584751
0.014890201837368942,0.8914227365554799
0.014907277756907209,0.8914227365554799
0.014907277756907209,0.8917631041524847
0.015043885113213347,0.8917631041524847
0.015043885113213347,0.8921034717494895
0.015112188791366415,0.8921034717494895
0.015112188791366415,0.8931245745405038
0.015214644308596018,0.8931245745405038
0.015214644308596018,0.8934649421375085
0.015368327584440422,0.8934649421375085
0.015368327584440422,0.8938053097345132
0.01562446637751443,0.8938053097345132
0.01562446637751443,0.8941456773315181
0.015692770055667497,0.8941456773315181
0.015692770055667497,0.8948264125255275
0.015778149653358834,0.8948264125255275
0.015778149653358834,0.8951667801225324
0.0157952255728971,0.8951667801225324
0.0157952255728971,0.8955071477195371
0.0158464533315119,0.8955071477195371
0.0158464533315119,0.8958475153165418
0.015948908848741505,0.8958475153165418
0.015948908848741505,0.8961878829135467
0.016017212526894573,0.8961878829135467
0.016017212526894573,0.8965282505105514
0.016068440285509376,0.8965282505105514
0.016068440285509376,0.8978897208985704
0.01615381988320071,0.8978897208985704
0.01615381988320071,0.8982300884955752
0.016187971722277244,0.8982300884955752
0.016187971722277244,0.89857045609258
0.016256275400430314,0.89857045609258
0.016256275400430314,0.8989108236895847
0.01632457907858338,0.8989108236895847
0.01632457907858338,0.8995915588835943
0.016358730917659915,0.8995915588835943
0.016358730917659915,0.899931926480599
0.016375806837198182,0.899931926480599
0.016375806837198182,0.9009530292716134
0.016444110515351253,0.9009530292716134
0.016444110515351253,0.9016337644656228
0.01646118643488952,0.9016337644656228
0.01646118643488952,0.9019741320626277
0.016495338273966053,0.9019741320626277
0.016495338273966053,0.9023144996596324
0.01651241419350432,0.9023144996596324
0.01651241419350432,0.9026548672566371
0.016614869710733924,0.9026548672566371
0.016614869710733924,0.902995234853642
0.01675147706704006,0.902995234853642
0.01675147706704006,0.9033356024506467
0.016785628906116595,0.9033356024506467
0.016785628906116595,0.9036759700476514
0.016802704825654862,0.9036759700476514
0.016802704825654862,0.9040163376446563
0.016922236262422733,0.9040163376446563
0.016922236262422733,0.9050374404356705
0.017024691779652334,0.9050374404356705
0.017024691779652334,0.9053778080326753
0.017075919538267134,0.9053778080326753
0.017075919538267134,0.90571817562968
0.017144223216420205,0.90571817562968
0.017144223216420205,0.9063989108236896
0.01716129913595847,0.9063989108236896
0.01716129913595847,0.9070796460176991
0.017195450975035005,0.9070796460176991
0.017195450975035005,0.9074200136147039
0.01729790649226461,0.9074200136147039
0.01729790649226461,0.9077603812117087
0.017383286089955943,0.9077603812117087
0.017383286089955943,0.9081007488087134
0.017724804480721286,0.9081007488087134
0.017724804480721286,0.908781484002723
0.017912639595642224,0.908781484002723
0.017912639595642224,0.9094622191967324
0.01794679143471876,0.9094622191967324
0.01794679143471876,0.9098025867937373
0.01801509511287183,0.9098025867937373
0.01801509511287183,0.910142954390742
0.01806632287148663,0.910142954390742
0.01806632287148663,0.9104833219877467
0.018100474710563162,0.9104833219877467
0.018100474710563162,0.9108236895847516
0.018168778388716233,0.9108236895847516
0.018168778388716233,0.9111640571817563
0.0181858543082545,0.9111640571817563
0.0181858543082545,0.9118447923757659
0.018254157986407567,0.9118447923757659
0.018254157986407567,0.9121851599727706
0.01830538574502237,0.9121851599727706
0.01830538574502237,0.9125255275697753
0.01866398005532598,0.9125255275697753
0.01866398005532598,0.9128658951667801
0.01871520781394078,0.9128658951667801
0.01871520781394078,0.9132062627637849
0.019005498446091323,0.9132062627637849
0.019005498446091323,0.9135466303607896
0.019210409480550528,0.9135466303607896
0.019210409480550528,0.9138869979577944
0.019261637239165328,0.9138869979577944
0.019261637239165328,0.9142273655547992
0.019483624193162803,0.9142273655547992
0.019483624193162803,0.914567733151804
0.01950070011270107,0.914567733151804
0.01950070011270107,0.9152484683458135
0.019637307469007208,0.9152484683458135
0.019637307469007208,0.9155888359428183
0.01967145930808374,0.9155888359428183
0.01967145930808374,0.9162695711368277
0.019756838905775075,0.9162695711368277
0.019756838905775075,0.9166099387338326
0.01979099074485161,0.9166099387338326
0.01979099074485161,0.9169503063308373
0.01980806666438988,0.9169503063308373
0.01980806666438988,0.917290673927842
0.019842218503466413,0.917290673927842
0.019842218503466413,0.9179714091218516
0.019927598101157747,0.9179714091218516
0.019927598101157747,0.9183117767188563
0.01997882585977255,0.9183117767188563
0.01997882585977255,0.9186521443158612
0.020047129537925618,0.9186521443158612
0.020047129537925618,0.9189925119128659
0.02008128137700215,0.9189925119128659
0.02008128137700215,0.9193328795098706
0.02016666097469349,0.9193328795098706
0.02016666097469349,0.9196732471068755
0.020200812813770022,0.9196732471068755
0.020200812813770022,0.9200136147038802
0.020474027526382294,0.9200136147038802
0.020474027526382294,0.9203539823008849
0.020610634882688432,0.9203539823008849
0.020610634882688432,0.9206943498978897
0.020661862641303236,0.9206943498978897
0.020661862641303236,0.9210347174948945
0.020883849595300708,0.9210347174948945
0.020883849595300708,0.9213750850918992
0.021020456951606845,0.9213750850918992
0.021020456951606845,0.921715452688904
0.021139988388374713,0.921715452688904
0.021139988388374713,0.9220558202859088
0.021208292066527783,0.9220558202859088
0.021208292066527783,0.9223961878829136
0.02122536798606605,0.9223961878829136
0.02122536798606605,0.9227365554799183
0.021259519825142584,0.9227365554799183
0.021259519825142584,0.9234172906739279
0.02134489942283392,0.9234172906739279
0.02134489942283392,0.9237576582709326
0.021601038215907926,0.9237576582709326
0.021601038215907926,0.9240980258679373
0.021686417813599264,0.9240980258679373
0.021686417813599264,0.9244383934649422
0.02175472149175233,0.9244383934649422
0.02175472149175233,0.9247787610619469
0.02180594925036713,0.9247787610619469
0.02180594925036713,0.9251191286589516
0.021959632526211536,0.9251191286589516
0.021959632526211536,0.9254594962559565
0.022096239882517674,0.9254594962559565
0.022096239882517674,0.9257998638529612
0.022249923158362078,0.9257998638529612
0.022249923158362078,0.9261402314499659
0.022676821146818755,0.9261402314499659
0.022676821146818755,0.9264805990469708
0.02283050442266316,0.9264805990469708
0.02283050442266316,0.9268209666439755
0.023018339537584098,0.9268209666439755
0.023018339537584098,0.9271613342409802
0.023052491376660635,0.9271613342409802
0.023052491376660635,0.927501701837985
0.023462313445579044,0.927501701837985
0.023462313445579044,0.9278420694349898
0.02361599672142345,0.9278420694349898
0.02361599672142345,0.9285228046289993
0.023718452238653053,0.9285228046289993
0.023718452238653053,0.9288631722260041
0.023872135514497454,0.9288631722260041
0.023872135514497454,0.9292035398230089
0.02390628735357399,0.9292035398230089
0.02390628735357399,0.9295439074200136
0.024008742870803592,0.9295439074200136
0.024008742870803592,0.9298842750170184
0.024042894709880126,0.9298842750170184
0.024042894709880126,0.9302246426140232
0.024230729824801067,0.9302246426140232
0.024230729824801067,0.9305650102110279
0.0242648816638776,0.9305650102110279
0.0242648816638776,0.9309053778080327
0.024281957583415868,0.9309053778080327
0.024281957583415868,0.9312457454050375
0.024299033502954134,0.9312457454050375
0.024299033502954134,0.9315861130020422
0.024845462928178682,0.9315861130020422
0.024845462928178682,0.9319264805990469
0.024879614767255216,0.9319264805990469
0.024879614767255216,0.9322668481960518
0.024913766606331753,0.9322668481960518
0.024913766606331753,0.9329475833900612
0.024964994364946553,0.9329475833900612
0.024964994364946553,0.9332879509870661
0.025118677640790957,0.9332879509870661
0.025118677640790957,0.9336283185840708
0.025135753560329224,0.9336283185840708
0.025135753560329224,0.9339686861810755
0.025169905399405758,0.9339686861810755
0.025169905399405758,0.9343090537780804
0.02528943683617363,0.9343090537780804
0.02528943683617363,0.9346494213750851
0.025596803387862438,0.9346494213750851
0.025596803387862438,0.9349897889720898
0.025716334824630305,0.9349897889720898
0.025716334824630305,0.9353301565690946
0.025801714422321643,0.9353301565690946
0.025801714422321643,0.9356705241660994
0.026553054882005395,0.9356705241660994
0.026553054882005395,0.9360108917631041
0.026689662238311533,0.9360108917631041
0.026689662238311533,0.9363512593601089
0.026740889996926333,0.9363512593601089
0.026740889996926333,0.9366916269571137
0.026860421433694204,0.9366916269571137
0.026860421433694204,0.9370319945541185
0.02687749735323247,0.9370319945541185
0.02687749735323247,0.9373723621511232
0.02692872511184727,0.9373723621511232
0.02692872511184727,0.937712729748128
0.02706533246815341,0.937712729748128
0.02706533246815341,0.9380530973451328
0.027287319422150885,0.9380530973451328
0.027287319422150885,0.9383934649421375
0.02797035620368157,0.9383934649421375
0.02797035620368157,0.9390742001361471
0.02838017827259998,0.9390742001361471
0.02838017827259998,0.9394145677331518
0.02849970970936785,0.9394145677331518
0.02849970970936785,0.9397549353301565
0.028670468904750522,0.9397549353301565
0.028670468904750522,0.9400953029271614
0.0290461391345924,0.9400953029271614
0.0290461391345924,0.9404356705241661
0.029182746490898536,0.9404356705241661
0.029182746490898536,0.9407760381211708
0.02952426488166388,0.9407760381211708
0.02952426488166388,0.9411164057181757
0.02993408695058229,0.9411164057181757
0.02993408695058229,0.9414567733151804
0.030002390628735356,0.9414567733151804
0.030002390628735356,0.9417971409121851
0.030173149824118027,0.9417971409121851
0.030173149824118027,0.94213750850919
0.030258529421809365,0.94213750850919
0.030258529421809365,0.9424778761061947
0.03070250332980431,0.9424778761061947
0.03070250332980431,0.9428182437031994
0.03094156620334005,0.9428182437031994
0.03094156620334005,0.9431586113002042
0.03135138827225846,0.9431586113002042
0.03135138827225846,0.943498978897209
0.03147091970902633,0.943498978897209
0.03147091970902633,0.9438393464942137
0.03179536218025341,0.9438393464942137
0.03179536218025341,0.9441797140912185
0.031829514019329944,0.9441797140912185
0.031829514019329944,0.9445200816882233
0.031914893617021274,0.9445200816882233
0.031914893617021274,0.944860449285228
0.031931969536559544,0.944860449285228
0.031931969536559544,0.9452008168822328
0.03198319729517435,0.9452008168822328
0.03198319729517435,0.9455411844792376
0.032171032410095286,0.9455411844792376
0.032171032410095286,0.9458815520762424
0.03225641200778662,0.9458815520762424
0.03225641200778662,0.9462219196732471
0.03227348792732489,0.9462219196732471
0.03227348792732489,0.9465622872702518
0.03239301936409276,0.9465622872702518
0.03239301936409276,0.9469026548672567
0.03241009528363102,0.9469026548672567
0.03241009528363102,0.9472430224642614
0.03249547488132236,0.9472430224642614
0.03249547488132236,0.9475833900612661
0.03254670263993716,0.9475833900612661
0.03254670263993716,0.947923757658271
0.03259793039855196,0.947923757658271
0.03259793039855196,0.9482641252552757
0.032751613674396364,0.9482641252552757
0.032751613674396364,0.9486044928522804
0.0327857655134729,0.9486044928522804
0.0327857655134729,0.9489448604492853
0.03314435982377651,0.9489448604492853
0.03314435982377651,0.94928522804629
0.033195587582391314,0.94928522804629
0.033195587582391314,0.9496255956432947
0.03321266350192958,0.9496255956432947
0.03321266350192958,0.9499659632402995
0.03326389126054438,0.9499659632402995
0.03326389126054438,0.9503063308373043
0.03338342269731225,0.9503063308373043
0.03338342269731225,0.950646698434309
0.03350295413408012,0.950646698434309
0.03350295413408012,0.9509870660313138
0.03367371332946279,0.9509870660313138
0.03367371332946279,0.9513274336283186
0.03420306683514907,0.9513274336283186
0.03420306683514907,0.9516678012253234
0.03471534442129709,0.9516678012253234
0.03471534442129709,0.9520081688223281
0.03514224240975376,0.9520081688223281
0.03514224240975376,0.9523485364193329
0.035261773846521634,0.9523485364193329
0.035261773846521634,0.9526889040163377
0.03529592568559817,0.9526889040163377
0.03529592568559817,0.9533696392103471
0.03546668488098084,0.9533696392103471
0.03546668488098084,0.953710006807352
0.03555206447867218,0.953710006807352
0.03555206447867218,0.9540503744043567
0.03563744407636351,0.9540503744043567
0.03563744407636351,0.9543907420013614
0.035671595915440044,0.9543907420013614
0.035671595915440044,0.9547311095983663
0.03585943103036098,0.9547311095983663
0.03585943103036098,0.955071477195371
0.03596188654759059,0.955071477195371
0.03596188654759059,0.9554118447923757
0.03608141798435846,0.9554118447923757
0.03608141798435846,0.9557522123893806
0.03618387350158806,0.9557522123893806
0.03618387350158806,0.9560925799863853
0.036337556777432466,0.9560925799863853
0.036337556777432466,0.95643294758339
0.03714012499573102,0.95643294758339
0.03714012499573102,0.9567733151803949
0.037464567466958094,0.9567733151803949
0.037464567466958094,0.9571136827773996
0.03763532666234077,0.9571136827773996
0.03763532666234077,0.9574540503744043
0.03784023769679997,0.9574540503744043
0.03784023769679997,0.9577944179714091
0.03790854137495304,0.9577944179714091
0.03790854137495304,0.9581347855684139
0.038010996892182645,0.9581347855684139
0.038010996892182645,0.9584751531654186
0.03835251528294799,0.9584751531654186
0.03835251528294799,0.9588155207624234
0.0389160206277108,0.9588155207624234
0.0389160206277108,0.9591558883594282
0.03994057580000683,0.9591558883594282
0.03994057580000683,0.959496255956433
0.04036747378846351,0.959496255956433
0.04036747378846351,0.9598366235534377
0.04069191625969058,0.9598366235534377
0.04069191625969058,0.9601769911504425
0.04142618079983607,0.9601769911504425
0.04142618079983607,0.9605173587474473
0.041443256719374336,0.9605173587474473
0.041443256719374336,0.960857726344452
0.04157986407568048,0.960857726344452
0.04157986407568048,0.9611980939414567
0.04251903965028517,0.9611980939414567
0.04251903965028517,0.9615384615384616
0.04321915235135412,0.9615384615384616
0.04321915235135412,0.9618788291354663
0.04393634097196134,0.9618788291354663
0.04393634097196134,0.962219196732471
0.044072948328267476,0.962219196732471
0.044072948328267476,0.9625595643294759
0.04429493528226495,0.9625595643294759
0.04429493528226495,0.9628999319264806
0.04455107407533896,0.9628999319264806
0.04455107407533896,0.9632402995234853
0.04502919982241044,0.9632402995234853
0.04502919982241044,0.9635806671204902
0.045097503500563504,0.9635806671204902
0.045097503500563504,0.9642614023144996
0.04513165533964004,0.9642614023144996
0.04513165533964004,0.9646017699115044
0.04530241453502271,0.9646017699115044
0.045336566374099246,0.9646017699115044
0.045626857006249785,0.9646017699115044
0.045626857006249785,0.9652825051055139
0.046087906833783,0.9652825051055139
0.046087906833783,0.9656228727025187
0.04632696970731874,0.9656228727025187
0.04632696970731874,0.9659632402995235
0.04796625798299239,0.9659632402995235
0.04796625798299239,0.9663036078965282
0.04933233154605376,0.9663036078965282
0.04933233154605376,0.966643975493533
0.04934940746559202,0.966643975493533
0.04934940746559202,0.9669843430905378
0.050339810798811516,0.9669843430905378
0.050339810798811516,0.9673247106875426
0.05049349407465592,0.9673247106875426
0.05049349407465592,0.9676650782845473
0.050544721833270724,0.9676650782845473
0.050544721833270724,0.9680054458815521
0.051705884361872886,0.9680054458815521
0.051705884361872886,0.9683458134785569
0.051893719476793825,0.9683458134785569
0.051893719476793825,0.9686861810755616
0.052525528499709706,0.9686861810755616
0.052525528499709706,0.9690265486725663
0.0534134763156996,0.9690265486725663
0.0534134763156996,0.9693669162695712
0.05348177999385267,0.9693669162695712
0.05348177999385267,0.9697072838665759
0.05370376694785014,0.9697072838665759
0.05370376694785014,0.9700476514635806
0.053806222465079746,0.9700476514635806
0.053806222465079746,0.9703880190605855
0.05414774085584509,0.9703880190605855
0.05414774085584509,0.9707283866575902
0.05496738499368191,0.9707283866575902
0.05496738499368191,0.9710687542545949
0.05500153683275844,0.9710687542545949
0.05500153683275844,0.9714091218515998
0.05501861275229671,0.9714091218515998
0.05501861275229671,0.9717494894486045
0.05529182746490899,0.9717494894486045
0.05529182746490899,0.9720898570456092
0.05556504217752126,0.9720898570456092
0.05556504217752126,0.972430224642614
0.05558211809705953,0.972430224642614
0.05558211809705953,0.9727705922396188
0.05626515487859021,0.9727705922396188
0.05626515487859021,0.9731109598366235
0.05635053447628155,0.9731109598366235
0.05635053447628155,0.9734513274336283
0.05645298999351115,0.9734513274336283
0.05645298999351115,0.9737916950306331
0.05647006591304942,0.9737916950306331
0.05647006591304942,0.9741320626276379
0.057016495338273965,0.9741320626276379
0.057016495338273965,0.9744724302246426
0.05722140637273317,0.9744724302246426
0.05722140637273317,0.9748127978216474
0.057443393326730645,0.9748127978216474
0.057443393326730645,0.9751531654186522
0.05846794849902667,0.9751531654186522
0.05846794849902667,0.9754935330156569
0.058689935453024145,0.9754935330156569
0.058689935453024145,0.9758339006126616
0.05889484648748335,0.9758339006126616
0.05889484648748335,0.9761742682096665
0.060056009016085515,0.9761742682096665
0.060056009016085515,0.9765146358066712
0.06019261637239166,0.9765146358066712
0.06019261637239166,0.9768550034036759
0.060670742119463134,0.9768550034036759
0.060670742119463134,0.9771953710006808
0.06080734947576927,0.9771953710006808
0.06080734947576927,0.9775357385976855
0.06096103275161367,0.9775357385976855
0.06096103275161367,0.9778761061946902
0.06260032102728733,0.9778761061946902
0.06260032102728733,0.9782164737916951
0.06295891533759093,0.9782164737916951
0.06295891533759093,0.9785568413886998
0.06304429493528227,0.9785568413886998
0.06304429493528227,0.9788972089857045
0.06350534476281548,0.9788972089857045
0.06350534476281548,0.9792375765827094
0.06434206482019057,0.9792375765827094
0.06434206482019057,0.9795779441797141
0.06493972200402992,0.9795779441797141
0.06493972200402992,0.9799183117767188
0.07132611591134183,0.9799183117767188
0.07132611591134183,0.9802586793737236
0.07188962125610464,0.9802586793737236
0.07188962125610464,0.9805990469707284
0.07255558211809705,0.9805990469707284
0.07255558211809705,0.9809394145677331
0.0729483282674772,0.9809394145677331
0.0729483282674772,0.9812797821647379
0.07296540418701547,0.9812797821647379
0.07296540418701547,0.9816201497617427
0.07460469246268911,0.9816201497617427
0.07460469246268911,0.9819605173587475
0.07470714797991872,0.9819605173587475
0.07470714797991872,0.9823008849557522
0.07725145999112053,0.9823008849557522
0.07725145999112053,0.982641252552757
0.07774666165773027,0.982641252552757
0.07774666165773027,0.9829816201497618
0.07892490010587071,0.9829816201497618
0.07892490010587071,0.9833219877467665
0.07899320378402377,0.9833219877467665
0.07899320378402377,0.9836623553437712
0.07988115160001366,0.9836623553437712
0.07988115160001366,0.9840027229407761
0.08003483487585807,0.9840027229407761
0.08003483487585807,0.9843430905377808
0.08058126430108262,0.9843430905377808
0.08058126430108262,0.9846834581347855
0.08138383251938117,0.9846834581347855
0.08138383251938117,0.9850238257317904
0.08148628803661077,0.9850238257317904
0.08148628803661077,0.9857045609257998
0.08314265223182268,0.9857045609257998
0.08314265223182268,0.9860449285228047
0.08503807930057034,0.9860449285228047
0.08503807930057034,0.9863852961198094
0.08737748027731293,0.9863852961198094
0.08737748027731293,0.9867256637168141
0.08857279464499163,0.9867256637168141
0.08857279464499163,0.9870660313138189
0.09159523240326492,0.9870660313138189
0.09159523240326492,0.9874063989108237
0.09359311498924217,0.9874063989108237
0.09359311498924217,0.9877467665078284
0.09449813872477032,0.9877467665078284
0.09449813872477032,0.9880871341048332
0.09593251596598477,0.9880871341048332
0.09593251596598477,0.988427501701838
0.09685461562105119,0.988427501701838
0.09685461562105119,0.9887678692988427
0.09907448516102592,0.9887678692988427
0.09907448516102592,0.9891082368958475
0.09910863700010246,0.9891082368958475
0.09910863700010246,0.9894486044928523
0.09956968682763567,0.9894486044928523
0.09956968682763567,0.989788972089857
0.1011065195860797,0.989788972089857
0.1011065195860797,0.9901293396868618
0.10180663228714866,0.9901293396868618
0.10180663228714866,0.9904697072838666
0.10213107475837574,0.9904697072838666
0.10213107475837574,0.9908100748808714
0.10561456234418223,0.9908100748808714
0.10561456234418223,0.9911504424778761
0.11264984119394829,0.9911504424778761
0.11264984119394829,0.9914908100748808
0.11314504286055804,0.9914908100748808
0.11314504286055804,0.9918311776718857
0.11319627061917284,0.9918311776718857
0.11319627061917284,0.9921715452688904
0.11558689935453025,0.9921715452688904
0.11558689935453025,0.9925119128658951
0.11901915918172194,0.9925119128658951
0.11901915918172194,0.9928522804629
0.11958266452648475,0.9928522804629
0.11958266452648475,0.9931926480599047
0.13312386872033058,0.9931926480599047
0.13312386872033058,0.9935330156569094
0.1345240941224685,0.9935330156569094
0.1345240941224685,0.9938733832539143
0.13974932550117825,0.9938733832539143
0.13974932550117825,0.994213750850919
0.14675045251186777,0.994213750850919
0.14675045251186777,0.9945541184479237
0.15018271233905947,0.9945541184479237
0.15018271233905947,0.9948944860449285
0.15590314538437894,0.9948944860449285
0.15590314538437894,0.9952348536419333
0.15662033400498618,0.9952348536419333
0.15662033400498618,0.995575221238938
0.15720091526928726,0.995575221238938
0.15720091526928726,0.9959155888359428
0.15902803865988183,0.9959155888359428
0.15902803865988183,0.9962559564329476
0.16006966975171613,0.9962559564329476
0.16006966975171613,0.9965963240299524
0.16095761756770602,0.9965963240299524
0.16095761756770602,0.9969366916269571
0.16712202452102046,0.9969366916269571
0.16712202452102046,0.9972770592239619
0.1805095454390219,0.9972770592239619
0.1805607731976367,0.9972770592239619
0.18228544107100167,0.9972770592239619
0.18228544107100167,0.9976174268209667
0.18660564871418325,0.9976174268209667
0.18660564871418325,0.9979577944179714
0.19355554796625798,0.9979577944179714
0.19358969980533453,0.9979577944179714
0.1958266452648475,0.9979577944179714
0.1958266452648475,0.9982981620149761
0.2052867046890475,0.9982981620149761
0.2052867046890475,0.998638529611981
0.2067552337693385,0.998638529611981
0.2067552337693385,0.9989788972089857
0.22439465865236843,0.9989788972089857
0.22439465865236843,0.9993192648059904
0.22871486629555002,0.9993192648059904
0.22874901813462656,0.9993192648059904
0.2425975888801612,0.9993192648059904
0.24263174071923774,0.9993192648059904
0.24276834807554387,0.9993192648059904
0.24276834807554387,0.9996596324029953
0.24278542399508213,0.9996596324029953
0.24281957583415867,0.9996596324029953
0.2494108807759298,0.9996596324029953
0.2494450326150063,0.9996596324029953
0.24947918445408285,0.9996596324029953
0.2495133362931594,0.9996596324029953
0.2514770670400601,0.9996596324029953
0.25151121887913663,0.9996596324029953
0.2616201632457908,0.9996596324029953
0.2616543150848673,0.9996596324029953
0.2716949557733684,0.9996596324029953
0.27172910761244495,0.9996596324029953
0.28004508042758103,0.9996596324029953
0.28007923226665754,0.9996596324029953
0.28074519312865,0.9996596324029953
0.2807793449677265,0.9996596324029953
0.2818209760595608,0.9996596324029953
0.2818551278986373,0.9996596324029953
0.3038147604248489,0.9996596324029953
0.3038489122639254,0.9996596324029953
0.31052559680338787,0.9996596324029953
0.31052559680338787,1.0
0.3115672278952222,1.0
0.3116013797342987,1.0
0.3169461425497763,1.0
0.31698029438885283,1.0
0.32177862777910593,1.0
0.32181277961818244,1.0
0.3228373347904785,1.0
0.322871486629555,1.0
0.3264403538130528,1.0
0.3264745056521294,1.0
0.3338513028926608,1.0
0.3338854547317373,1.0
0.33864963628291384,1.0
0.33868378812199035,1.0
0.33982787473105425,1.0
0.3398620265701308,1.0
0.38103206857689287,1.0
0.3810662204159694,1.0
0.3840715822547044,1.0
0.38410573409378096,1.0
0.38446432840408457,1.0
0.3844984802431611,1.0
0.39049212800109284,1.0
0.3905262798401694,1.0
0.3911239370240087,1.0
0.3911580888630853,1.0
0.39214849219630477,1.0
0.3921826440353813,1.0
0.3994911375977596,1.0
0.3995252894368362,1.0
0.4081315528841228,1.0
0.40816570472319935,1.0
0.4212287831699737,1.0
0.4212629350090502,1.0
0.42249240121580545,1.0
0.422526553054882,1.0
0.42310713431918306,1.0
0.42314128615825963,1.0
0.4332843823639903,1.0
0.4333185342030668,1.0
0.43388203954782967,1.0
0.4339161913869062,1.0
0.44177111437450906,1.0
0.4418052662135856,1.0
0.44706464943137186,1.0
0.44709880127044843,1.0
0.45782247874048015,1.0
0.4578566305795567,1.0
0.4649602131074758,1.0
0.4649943649465524,1.0
0.4650797445442437,1.0
0.46511389638332024,1.0
0.47284928793415526,1.0
0.4728834397732318,1.0
0.4750179297155152,1.0
0.4750520815545917,1.0
0.49007889074826677,1.0
0.49011304258734334,1.0
0.4901301185068816,1.0
0.4901642703459581,1.0
0.4917352549434787,1.0
0.49176940678255526,1.0
0.492520747242239,1.0
0.49255489908131556,1.0
0.5102455517229603,1.0
0.5102797035620368,1.0
0.5183053857450224,1.0
0.5183395375840989,1.0
0.5213619753423722,1.0
0.5213961271814487,1.0
0.5214132031009869,1.0
0.5214473549400636,1.0
0.5224206823537447,1.0
0.5224548341928212,1.0
0.5268945732727708,1.0
0.5269287251118473,1.0
0.5287387725829036,1.0
0.5287729244219801,1.0
0.5305488200539599,1.0
0.5305829718930365,1.0
0.5646323554523411,1.0
0.5646665072914177,1.0
0.5664936306820122,1.0
0.5665277825210887,1.0
0.570250332980431,1.0
0.5702844848195076,1.0
0.5735972132099314,1.0
0.5736313650490079,1.0
0.5935760390697039,1.0
0.5936101909087804,1.0
0.6117106656193436,1.0
0.6117448174584201,1.0
0.6119668044124176,1.0
0.6120009562514941,1.0
0.6124620060790273,1.0
0.6124961579181039,1.0
0.612701068952563,1.0
0.6127352207916397,1.0
0.6146306478603872,1.0
0.6146647996994639,1.0
0.6263788805027151,1.0
0.6264130323417916,1.0
0.6415764488917728,1.0
0.6416106007308493,1.0
0.6473310337761689,1.0
0.6473651856152454,1.0
0.6488507906150747,1.0
0.6488849424541512,1.0
0.6592500256138794,1.0
0.6592841774529559,1.0
0.6644411051535125,1.0
0.664475256992589,1.0
0.6652607492913494,1.0
0.6652949011304259,1.0
0.6677709094634746,1.0
0.6678050613025511,1.0
0.6800484956114887,1.0
0.6800826474505652,1.0
0.6879546463577063,1.0
0.6879887981967829,1.0
0.7001468529080291,1.0
0.7001810047471057,1.0
0.7081554591714764,1.0
0.7081896110105529,1.0
0.7098288992862266,1.0
0.7098630511253031,1.0
0.7243605068132919,1.0
0.7243946586523684,1.0
0.7261534783648099,1.0
0.7261876302038864,1.0
0.7395409992828114,1.0
0.7395751511218879,1.0
0.7505037396263788,1.0
0.7505378914654555,1.0
0.7590246234759742,1.0
0.7590587753150507,1.0
0.762525186981319,1.0
0.7625593388203955,1.0
0.7708240838769168,1.0
0.7708582357159933,1.0
0.7728048905433558,1.0
0.7728390423824323,1.0
0.775827328301629,1.0
0.7758614801407056,1.0
0.7806427376114203,1.0
0.780676889450497,1.0
0.7853898432430586,1.0
0.7854239950821351,1.0
0.7874389535876507,1.0
0.7874731054267272,1.0
0.798265086574912,1.0
0.7982992384139886,1.0
0.8065127557118951,1.0
0.8065469075509716,1.0
0.8225811959974044,1.0
0.822615347836481,1.0
0.8232130050203204,1.0
0.8232471568593969,1.0
0.8346709470304976,1.0
0.8347050988695741,1.0
0.8843960247259315,1.0
0.884430176565008,1.0
0.8849766059902325,1.0
0.8850107578293092,1.0
0.8885283972541922,1.0
0.8885625490932687,1.0
0.9063898090912196,1.0
0.9064239609302961,1.0
0.914791161504047,1.0
0.9148253133431236,1.0
0.9192138246644582,1.0
0.9192479765035347,1.0
0.9294764523069567,1.0
0.9295106041460333,1.0
1.0,1.0
