fpr,tpr
0.0,0.0
0.0,0.0003403675970047651
0.0,0.013955071477195371
1.7075919538267136e-05,0.013955071477195371
1.7075919538267136e-05,0.059904697072838665
3.415183907653427e-05,0.059904697072838665
3.415183907653427e-05,0.06671204901293397
5.1227758614801405e-05,0.06671204901293397
5.1227758614801405e-05,0.28761061946902655
6.830367815306854e-05,0.28761061946902655
6.830367815306854e-05,0.31994554118447927
8.537959769133568e-05,0.31994554118447927
8.537959769133568e-05,0.3342409802586794
0.00010245551722960281,0.3342409802586794
0.00010245551722960281,0.33934649421375085
0.00011953143676786995,0.33934649421375085
0.00011953143676786995,0.4254594962559564
0.0001366073563061371,0.4254594962559564
0.0001366073563061371,0.4472430224642614
0.00015368327584440423,0.4472430224642614
0.00015368327584440423,0.4993192648059905
0.00018783511492093848,0.4993192648059905
0.00018783511492093848,0.5030633083730429
0.00020491103445920562,0.5030633083730429
0.00020491103445920562,0.5125936010891763
0.00022198695399747276,0.5125936010891763
0.00022198695399747276,0.5234853641933288
0.0002390628735357399,0.5234853641933288
0.0002390628735357399,0.527569775357386
0.000256138793074007,0.527569775357386
0.000256138793074007,0.5302927161334241
0.0002732147126122742,0.5302927161334241
0.0002732147126122742,0.5309734513274337
0.0002902906321505413,0.5309734513274337
0.0002902906321505413,0.5394826412525527
0.00030736655168880846,0.5394826412525527
0.00030736655168880846,0.5452688904016337
0.00032444247122707557,0.5452688904016337
0.00032444247122707557,0.5483321987746766
0.00034151839076534274,0.5483321987746766
0.00034151839076534274,0.5503744043567053
0.00035859431030360985,0.5503744043567053
0.00035859431030360985,0.5554799183117767
0.00037567022984187696,0.5554799183117767
0.00037567022984187696,0.5568413886997958
0.00039274614938014413,0.5568413886997958
0.00039274614938014413,0.5585432266848196
0.00040982206891841124,0.5585432266848196
0.00040982206891841124,0.562287270251872
0.0004268979884566784,0.562287270251872
0.0004268979884566784,0.5653505786249149
0.0004439739079949455,0.5653505786249149
0.0004439739079949455,0.5656909462219196
0.0004610498275332127,0.5656909462219196
0.0004610498275332127,0.5673927842069435
0.0004781257470714798,0.5673927842069435
0.0004781257470714798,0.5677331518039482
0.0004952016666097469,0.5677331518039482
0.0004952016666097469,0.5687542545949625
0.000512277586148014,0.5687542545949625
0.000512277586148014,0.5721579305650102
0.0005464294252245484,0.5721579305650102
0.0005464294252245484,0.5772634445200817
0.0005635053447628155,0.5772634445200817
0.0005635053447628155,0.5779441797140912
0.0005805812643010826,0.5779441797140912
0.0005805812643010826,0.5816882232811437
0.000631809022915884,0.5816882232811437
0.000631809022915884,0.5833900612661674
0.0006488849424541511,0.5833900612661674
0.0006488849424541511,0.5864533696392104
0.0006659608619924183,0.5864533696392104
0.0006659608619924183,0.5878148400272294
0.0007001127010689526,0.5878148400272294
0.0007001127010689526,0.5891763104152484
0.0007171886206072197,0.5891763104152484
0.0007171886206072197,0.5905377808032676
0.0007342645401454868,0.5905377808032676
0.0007342645401454868,0.5915588835942818
0.0007854922987602883,0.5915588835942818
0.0007854922987602883,0.5939414567733152
0.0008025682182985554,0.5939414567733152
0.0008025682182985554,0.5953029271613343
0.0008196441378368225,0.5953029271613343
0.0008196441378368225,0.5963240299523486
0.0008367200573750896,0.5963240299523486
0.0008367200573750896,0.602791014295439
0.0008537959769133568,0.602791014295439
0.0008537959769133568,0.6034717494894486
0.000887947815989891,0.6034717494894486
0.000887947815989891,0.6065350578624915
0.0009050237355281582,0.6065350578624915
0.0009050237355281582,0.607215793056501
0.0009220996550664254,0.607215793056501
0.0009220996550664254,0.6082368958475153
0.0009391755746046925,0.6082368958475153
0.0009391755746046925,0.6089176310415249
0.0009562514941429596,0.6089176310415249
0.0009562514941429596,0.6126616746085772
0.0009904033332194938,0.6126616746085772
0.0009904033332194938,0.6133424098025868
0.001024555172296028,0.6133424098025868
0.001024555172296028,0.6140231449965963
0.0010416310918342953,0.6140231449965963
0.0010416310918342953,0.6164057181756297
0.0010587070113725625,0.6164057181756297
0.0010587070113725625,0.6272974812797821
0.0010757829309108295,0.6272974812797821
0.0010757829309108295,0.6296800544588155
0.0010928588504490967,0.6296800544588155
0.0010928588504490967,0.6324029952348537
0.0011099347699873637,0.6324029952348537
0.0011099347699873637,0.6330837304288631
0.001127010689525631,0.6330837304288631
0.001127010689525631,0.6351259360108917
0.0011440866090638982,0.6351259360108917
0.0011440866090638982,0.6398910823689585
0.0011782384481404324,0.6398910823689585
0.0011782384481404324,0.6409121851599727
0.0012123902872169666,0.6409121851599727
0.0012123902872169666,0.6456773315180395
0.0012294662067552338,0.6456773315180395
0.0012294662067552338,0.6470388019060586
0.0012806939653700353,0.6470388019060586
0.0012806939653700353,0.647719537100068
0.0012977698849083023,0.647719537100068
0.0012977698849083023,0.6507828454731109
0.0013148458044465695,0.6507828454731109
0.0013148458044465695,0.6518039482641252
0.0013319217239848365,0.6518039482641252
0.0013319217239848365,0.6552076242341729
0.0013489976435231037,0.6552076242341729
0.0013489976435231037,0.6555479918311776
0.001366073563061371,0.6555479918311776
0.001366073563061371,0.6562287270251872
0.001383149482599638,0.6562287270251872
0.001383149482599638,0.6582709326072158
0.0014002254021379052,0.6582709326072158
0.0014002254021379052,0.6592920353982301
0.0014343772412144394,0.6592920353982301
0.0014343772412144394,0.6623553437712729
0.0014514531607527066,0.6623553437712729
0.0014514531607527066,0.6633764465622872
0.0014685290802909736,0.6633764465622872
0.0014685290802909736,0.6643975493533015
0.0014856049998292408,0.6643975493533015
0.0014856049998292408,0.6660993873383254
0.0015026809193675078,0.6660993873383254
0.0015026809193675078,0.6667801225323349
0.0015368327584440423,0.6667801225323349
0.0015368327584440423,0.6674608577263444
0.0015539086779823093,0.6674608577263444
0.0015539086779823093,0.6678012253233492
0.0015880605170588435,0.6678012253233492
0.0015880605170588435,0.6691626957113683
0.0016051364365971107,0.6691626957113683
0.0016051364365971107,0.6712049012933968
0.0016563641952119122,0.6712049012933968
0.0016563641952119122,0.672566371681416
0.0016905160342884464,0.672566371681416
0.0016905160342884464,0.6749489448604493
0.0017417437929032479,0.6749489448604493
0.0017417437929032479,0.6756296800544588
0.001758819712441515,0.6756296800544588
0.001758819712441515,0.6763104152484684
0.0017929715515180493,0.6763104152484684
0.0017929715515180493,0.6790333560245064
0.0018100474710563163,0.6790333560245064
0.0018100474710563163,0.6793737236215113
0.0018271233905945835,0.6793737236215113
0.0018271233905945835,0.6848196051735874
0.0018441993101328507,0.6848196051735874
0.0018441993101328507,0.6865214431586113
0.0018612752296711178,0.6865214431586113
0.0018612752296711178,0.6872021783526209
0.001895427068747652,0.6872021783526209
0.001895427068747652,0.6878829135466303
0.0019125029882859192,0.6878829135466303
0.0019125029882859192,0.6889040163376446
0.0019295789078241864,0.6889040163376446
0.0019295789078241864,0.6895847515316542
0.002014958505515522,0.6895847515316542
0.002014958505515522,0.689925119128659
0.0020320344250537893,0.689925119128659
0.0020320344250537893,0.6902654867256637
0.002049110344592056,0.6902654867256637
0.002049110344592056,0.6916269571136828
0.0020661862641303233,0.6916269571136828
0.0020661862641303233,0.692648059904697
0.0021003381032068578,0.692648059904697
0.0021003381032068578,0.6940095302927162
0.0021344899422833918,0.6940095302927162
0.0021344899422833918,0.6957113682777399
0.002151565861821659,0.6957113682777399
0.002151565861821659,0.6974132062627638
0.002168641781359926,0.6974132062627638
0.002168641781359926,0.6977535738597685
0.0022027936204364607,0.6977535738597685
0.0022027936204364607,0.6980939414567733
0.0022198695399747274,0.6980939414567733
0.0022198695399747274,0.6991150442477876
0.0022369454595129947,0.6991150442477876
0.0022369454595129947,0.6997957794417972
0.002254021379051262,0.6997957794417972
0.002254021379051262,0.7001361470388019
0.002271097298589529,0.7001361470388019
0.002271097298589529,0.7004765146358066
0.0023394009767425976,0.7004765146358066
0.0023394009767425976,0.7011572498298162
0.0023564768962808648,0.7011572498298162
0.0023564768962808648,0.7018379850238258
0.002373552815819132,0.7018379850238258
0.002373552815819132,0.7021783526208305
0.0023906287353573988,0.7021783526208305
0.0023906287353573988,0.7031994554118448
0.002407704654895666,0.7031994554118448
0.002407704654895666,0.7035398230088495
0.0024247805744339332,0.7035398230088495
0.0024247805744339332,0.7042205582028591
0.0024418564939722004,0.7042205582028591
0.0024418564939722004,0.7045609257998638
0.0024589324135104677,0.7045609257998638
0.0024589324135104677,0.7055820285908782
0.002476008333048735,0.7055820285908782
0.002476008333048735,0.7059223961878829
0.0024930842525870017,0.7059223961878829
0.0024930842525870017,0.7072838665759019
0.002527236091663536,0.7072838665759019
0.002527236091663536,0.7076242341729068
0.0025443120112018033,0.7076242341729068
0.0025443120112018033,0.7086453369639211
0.002612615689354872,0.7086453369639211
0.002612615689354872,0.7096664397549354
0.0026467675284314062,0.7096664397549354
0.0026467675284314062,0.7120490129339687
0.002663843447969673,0.7120490129339687
0.002663843447969673,0.7123893805309734
0.0026809193675079402,0.7123893805309734
0.0026809193675079402,0.7134104833219878
0.0026979952870462075,0.7134104833219878
0.0026979952870462075,0.7147719537100068
0.0027150712065844747,0.7147719537100068
0.0027150712065844747,0.7157930565010211
0.002766298965199276,0.7157930565010211
0.002766298965199276,0.7168141592920354
0.002783374884737543,0.7168141592920354
0.002783374884737543,0.7181756296800544
0.0028004508042758103,0.7181756296800544
0.0028004508042758103,0.7185159972770592
0.002868754482428879,0.7185159972770592
0.002868754482428879,0.718856364874064
0.0029029063215054132,0.718856364874064
0.0029029063215054132,0.7195371000680735
0.0029712099996584817,0.7195371000680735
0.0029712099996584817,0.7205582028590878
0.0030053618387350157,0.7205582028590878
0.0030053618387350157,0.7212389380530974
0.003022437758273283,0.7212389380530974
0.003022437758273283,0.7215793056501021
0.00303951367781155,0.7215793056501021
0.00303951367781155,0.7219196732471069
0.0030565895973498174,0.7219196732471069
0.0030565895973498174,0.7239618788291354
0.0031078173559646186,0.7239618788291354
0.0031078173559646186,0.7256637168141593
0.0031590451145794203,0.7256637168141593
0.0031590451145794203,0.7263444520081688
0.003176121034117687,0.7263444520081688
0.003176121034117687,0.7297481279782164
0.0032102728731942215,0.7297481279782164
0.0032102728731942215,0.730428863172226
0.0032273487927324887,0.730428863172226
0.0032273487927324887,0.7307692307692307
0.0032615006318090227,0.7307692307692307
0.0032615006318090227,0.731790333560245
0.0033127283904238244,0.731790333560245
0.0033127283904238244,0.7328114363512593
0.0033298043099620916,0.7328114363512593
0.0033298043099620916,0.7341729067392784
0.0033468802295003584,0.7341729067392784
0.0033468802295003584,0.7345132743362832
0.003381032068576893,0.7345132743362832
0.003381032068576893,0.7351940095302927
0.00339810798811516,0.7351940095302927
0.00339810798811516,0.7355343771272975
0.0034151839076534273,0.7355343771272975
0.0034151839076534273,0.7358747447243023
0.0034322598271916945,0.7358747447243023
0.0034322598271916945,0.737576582709326
0.0034493357467299613,0.737576582709326
0.0034493357467299613,0.7379169503063309
0.0034834875858064957,0.7379169503063309
0.0034834875858064957,0.7402995234853642
0.003500563505344763,0.7402995234853642
0.003500563505344763,0.7413206262763785
0.00351763942488303,0.7413206262763785
0.00351763942488303,0.7426820966643976
0.003534715344421297,0.7426820966643976
0.003534715344421297,0.7447243022464262
0.0035688671834978314,0.7447243022464262
0.0035688671834978314,0.7457454050374405
0.0035859431030360986,0.7457454050374405
0.0035859431030360986,0.7464261402314499
0.003603019022574366,0.7464261402314499
0.003603019022574366,0.7467665078284548
0.0036371708616509,0.7467665078284548
0.0036371708616509,0.7471068754254595
0.003654246781189167,0.7471068754254595
0.003654246781189167,0.7494894486044928
0.0036883986202657015,0.7494894486044928
0.0036883986202657015,0.7505105513955072
0.0037225504593422355,0.7505105513955072
0.0037225504593422355,0.7525527569775358
0.0037396263788805027,0.7525527569775358
0.0037396263788805027,0.7532334921715452
0.00375670229841877,0.7532334921715452
0.00375670229841877,0.7542545949625595
0.003773778217957037,0.7542545949625595
0.003773778217957037,0.7549353301565691
0.003807930057033571,0.7549353301565691
0.003807930057033571,0.7556160653505786
0.0038250059765718384,0.7556160653505786
0.0038250059765718384,0.7559564329475834
0.0038420818961101056,0.7559564329475834
0.0038420818961101056,0.7562968005445881
0.003859157815648373,0.7562968005445881
0.003859157815648373,0.7566371681415929
0.003927461493801441,0.7566371681415929
0.003927461493801441,0.757998638529612
0.003961613332877975,0.757998638529612
0.003961613332877975,0.7583390061266168
0.0040128410914927765,0.7583390061266168
0.0040128410914927765,0.7590197413206263
0.004029917011031044,0.7590197413206263
0.004029917011031044,0.7593601089176311
0.004081144769645845,0.7593601089176311
0.004081144769645845,0.7600408441116405
0.00411529660872238,0.7600408441116405
0.00411529660872238,0.7603812117086454
0.004132372528260647,0.7603812117086454
0.004132372528260647,0.762423417290674
0.004149448447798914,0.762423417290674
0.004149448447798914,0.7627637848876787
0.004217752125951982,0.7627637848876787
0.004217752125951982,0.7631041524846834
0.004251903965028517,0.7631041524846834
0.004251903965028517,0.7641252552756977
0.0042689798845667835,0.7641252552756977
0.0042689798845667835,0.7644656228727025
0.004303131723643318,0.7644656228727025
0.004303131723643318,0.7648059904697073
0.004320207643181586,0.7648059904697073
0.004320207643181586,0.7654867256637168
0.004337283562719852,0.7654867256637168
0.004337283562719852,0.7661674608577264
0.004371435401796387,0.7661674608577264
0.004371435401796387,0.7665078284547311
0.004405587240872921,0.7665078284547311
0.004405587240872921,0.7685500340367597
0.004422663160411188,0.7685500340367597
0.004422663160411188,0.769571136827774
0.004439739079949455,0.769571136827774
0.004439739079949455,0.7699115044247787
0.0044568149994877225,0.7699115044247787
0.0044568149994877225,0.7702518720217836
0.004473890919025989,0.7702518720217836
0.004473890919025989,0.770932607215793
0.004508042758102524,0.770932607215793
0.004508042758102524,0.7716133424098026
0.004576346436255593,0.7716133424098026
0.004576346436255593,0.7719537100068073
0.004610498275332126,0.7719537100068073
0.004610498275332126,0.7733151803948264
0.004627574194870394,0.7733151803948264
0.004627574194870394,0.7736555479918312
0.004644650114408661,0.7736555479918312
0.004644650114408661,0.7743362831858407
0.004678801953485195,0.7743362831858407
0.004678801953485195,0.775357385976855
0.0047129537925617295,0.775357385976855
0.0047129537925617295,0.7760381211708646
0.0047812574707147976,0.7760381211708646
0.0047812574707147976,0.776718856364874
0.004798333390253065,0.776718856364874
0.004798333390253065,0.7773995915588836
0.0048495611488678664,0.7773995915588836
0.0048495611488678664,0.7777399591558883
0.004883712987944401,0.7777399591558883
0.004883712987944401,0.7784206943498979
0.004934940746559202,0.7784206943498979
0.004934940746559202,0.7787610619469026
0.00495201666609747,0.7787610619469026
0.00495201666609747,0.7794417971409122
0.0049690925856357366,0.7794417971409122
0.0049690925856357366,0.779782164737917
0.004986168505174003,0.779782164737917
0.004986168505174003,0.7808032675289313
0.005003244424712271,0.7808032675289313
0.005003244424712271,0.7814840027229408
0.0050373962637888054,0.7814840027229408
0.0050373962637888054,0.7821647379169503
0.005054472183327072,0.7821647379169503
0.005054472183327072,0.782505105513955
0.005071548102865339,0.782505105513955
0.005071548102865339,0.7828454731109599
0.005088624022403607,0.7828454731109599
0.005088624022403607,0.7831858407079646
0.005122775861480141,0.7831858407079646
0.005122775861480141,0.7838665759019742
0.005139851781018408,0.7838665759019742
0.005139851781018408,0.7842069434989789
0.005191079539633209,0.7842069434989789
0.005191079539633209,0.7845473110959836
0.005208155459171477,0.7845473110959836
0.005208155459171477,0.7855684138869979
0.005225231378709744,0.7855684138869979
0.005225231378709744,0.7859087814840027
0.00524230729824801,0.7859087814840027
0.00524230729824801,0.7865895166780122
0.0052935350568628125,0.7865895166780122
0.0052935350568628125,0.7889720898570456
0.005327686895939346,0.7889720898570456
0.005327686895939346,0.7899931926480599
0.005344762815477614,0.7899931926480599
0.005344762815477614,0.7903335602450646
0.0053618387350158805,0.7903335602450646
0.0053618387350158805,0.7910142954390742
0.005378914654554148,0.7910142954390742
0.005378914654554148,0.7923757658270932
0.005395990574092415,0.7923757658270932
0.005395990574092415,0.7930565010211028
0.005430142413168949,0.7930565010211028
0.005430142413168949,0.7933968686181075
0.005498446091322017,0.7933968686181075
0.005498446091322017,0.7937372362151123
0.005583825689013353,0.7937372362151123
0.005583825689013353,0.7940776038121171
0.005652129367166422,0.7940776038121171
0.005652129367166422,0.7944179714091218
0.005669205286704689,0.7944179714091218
0.005669205286704689,0.7947583390061266
0.005720433045319491,0.7947583390061266
0.005720433045319491,0.7978216473791695
0.005737508964857758,0.7978216473791695
0.005737508964857758,0.7981620149761742
0.005788736723472559,0.7981620149761742
0.005788736723472559,0.7988427501701838
0.0058058126430108265,0.7988427501701838
0.0058058126430108265,0.7991831177671885
0.005822888562549093,0.7991831177671885
0.005822888562549093,0.7995234853641934
0.005857040401625628,0.7995234853641934
0.005857040401625628,0.8005445881552076
0.005942419999316963,0.8005445881552076
0.005942419999316963,0.8008849557522124
0.006044875516546566,0.8008849557522124
0.006044875516546566,0.8015656909462219
0.006113179194699635,0.8015656909462219
0.006113179194699635,0.8019060585432267
0.006266862470544038,0.8019060585432267
0.006266862470544038,0.8022464261402315
0.006283938390082306,0.8022464261402315
0.006283938390082306,0.802927161334241
0.0063180902291588405,0.802927161334241
0.0063180902291588405,0.8032675289312458
0.006403469826850176,0.8032675289312458
0.006403469826850176,0.8036078965282505
0.006488849424541512,0.8036078965282505
0.006488849424541512,0.8042886317222601
0.006505925344079779,0.8042886317222601
0.006505925344079779,0.8046289993192648
0.006540077183156313,0.8046289993192648
0.006540077183156313,0.8049693669162695
0.006659608619924183,0.8049693669162695
0.006659608619924183,0.8053097345132744
0.0067791400566920524,0.8053097345132744
0.0067791400566920524,0.8056501021102791
0.00679621597623032,0.8056501021102791
0.00679621597623032,0.8059904697072838
0.006813291895768587,0.8059904697072838
0.006813291895768587,0.8070115724982981
0.006881595573921656,0.8070115724982981
0.006881595573921656,0.808713410483322
0.006932823332536457,0.808713410483322
0.006932823332536457,0.8093941456773315
0.006949899252074725,0.8093941456773315
0.006949899252074725,0.8107556160653506
0.006984051091151258,0.8107556160653506
0.006984051091151258,0.8121170864533697
0.00703527884976606,0.8121170864533697
0.00703527884976606,0.813138189244384
0.007069430688842594,0.813138189244384
0.007069430688842594,0.8141592920353983
0.0070865066083808615,0.8141592920353983
0.0070865066083808615,0.8148400272294077
0.007137734366995663,0.8148400272294077
0.007137734366995663,0.8151803948264126
0.0072231139646869984,0.8151803948264126
0.0072231139646869984,0.8155207624234173
0.007240189884225265,0.8155207624234173
0.007240189884225265,0.815861130020422
0.007291417642840067,0.815861130020422
0.007291417642840067,0.8165418652144316
0.007308493562378334,0.8165418652144316
0.007308493562378334,0.8168822328114363
0.00739387316006967,0.8168822328114363
0.00739387316006967,0.8175629680054459
0.0074792527577610055,0.8175629680054459
0.0074792527577610055,0.8179033356024507
0.007496328677299272,0.8179033356024507
0.007496328677299272,0.8182437031994554
0.00751340459683754,0.8182437031994554
0.00751340459683754,0.8185840707964602
0.007547556435914074,0.8185840707964602
0.007547556435914074,0.8196051735874744
0.007564632355452341,0.8196051735874744
0.007564632355452341,0.8199455411844793
0.007684163792220211,0.8199455411844793
0.007684163792220211,0.820285908781484
0.007718315631296746,0.820285908781484
0.007718315631296746,0.8206262763784887
0.007786619309449814,0.8206262763784887
0.007786619309449814,0.8209666439754936
0.00787199890714115,0.8209666439754936
0.00787199890714115,0.8213070115724983
0.007974454424370753,0.8213070115724983
0.007974454424370753,0.8219877467665079
0.00799153034390902,0.8219877467665079
0.00799153034390902,0.8223281143635126
0.008076909941600355,0.8223281143635126
0.008076909941600355,0.8233492171545269
0.008145213619753424,0.8233492171545269
0.008145213619753424,0.8240299523485364
0.008179365458829958,0.8240299523485364
0.008179365458829958,0.824710687542546
0.008196441378368224,0.824710687542546
0.008196441378368224,0.8257317903335603
0.008247669136983026,0.8257317903335603
0.008247669136983026,0.826072157930565
0.008333048734674362,0.826072157930565
0.008333048734674362,0.8264125255275698
0.008367200573750896,0.8264125255275698
0.008367200573750896,0.8267528931245746
0.008384276493289164,0.8267528931245746
0.008384276493289164,0.8270932607215793
0.008401352412827431,0.8270932607215793
0.008401352412827431,0.8281143635125936
0.008418428332365698,0.8281143635125936
0.008418428332365698,0.8287950987066032
0.0084696560909805,0.8287950987066032
0.0084696560909805,0.8294758339006126
0.0085208838495953,0.8294758339006126
0.0085208838495953,0.8298162014976175
0.008537959769133567,0.8298162014976175
0.008537959769133567,0.8304969366916269
0.008572111608210102,0.8304969366916269
0.008572111608210102,0.8308373042886317
0.008606263447286636,0.8308373042886317
0.008606263447286636,0.8311776718856365
0.008640415286363171,0.8311776718856365
0.008640415286363171,0.8315180394826412
0.008708718964516238,0.8315180394826412
0.008708718964516238,0.831858407079646
0.00875994672313104,0.831858407079646
0.00875994672313104,0.8321987746766508
0.008913629998975445,0.8321987746766508
0.008913629998975445,0.8325391422736556
0.008947781838051979,0.8325391422736556
0.008947781838051979,0.8328795098706603
0.009050237355281581,0.8328795098706603
0.009050237355281581,0.8332198774676651
0.00906731327481985,0.8332198774676651
0.00906731327481985,0.8335602450646699
0.00911854103343465,0.8335602450646699
0.00911854103343465,0.8342409802586793
0.009135616952972917,0.8342409802586793
0.009135616952972917,0.8345813478556842
0.009152692872511185,0.8345813478556842
0.009152692872511185,0.8352620830496936
0.009186844711587719,0.8352620830496936
0.009186844711587719,0.8356024506466985
0.009220996550664252,0.8356024506466985
0.009220996550664252,0.8359428182437032
0.009272224309279055,0.8359428182437032
0.009272224309279055,0.8362831858407079
0.009425907585123459,0.8362831858407079
0.009425907585123459,0.8366235534377128
0.009442983504661726,0.8366235534377128
0.009442983504661726,0.8373042886317222
0.009494211263276528,0.8373042886317222
0.009494211263276528,0.8379850238257318
0.009511287182814795,0.8379850238257318
0.009511287182814795,0.8383253914227365
0.009562514941429595,0.8383253914227365
0.009562514941429595,0.8386657590197413
0.009613742700044397,0.8386657590197413
0.009613742700044397,0.8393464942137508
0.00964789453912093,0.8393464942137508
0.00964789453912093,0.8396868618107556
0.009682046378197466,0.8396868618107556
0.009682046378197466,0.8403675970047652
0.009767425975888802,0.8403675970047652
0.009767425975888802,0.8410483321987747
0.00983572965404187,0.8410483321987747
0.00983572965404187,0.8413886997957795
0.009852805573580137,0.8413886997957795
0.009852805573580137,0.8420694349897889
0.009886957412656671,0.8420694349897889
0.009886957412656671,0.8424098025867938
0.00990403333219494,0.8424098025867938
0.00990403333219494,0.8427501701837985
0.009921109251733206,0.8427501701837985
0.009921109251733206,0.8430905377808032
0.010023564768962809,0.8430905377808032
0.010023564768962809,0.8437712729748128
0.010040640688501076,0.8437712729748128
0.010040640688501076,0.8441116405718175
0.010074792527577611,0.8441116405718175
0.010074792527577611,0.8444520081688224
0.010091868447115878,0.8444520081688224
0.010091868447115878,0.8454731109598366
0.010143096205730678,0.8454731109598366
0.010143096205730678,0.8458134785568414
0.010160172125268947,0.8458134785568414
0.010160172125268947,0.8461538461538461
0.010177248044807213,0.8461538461538461
0.010177248044807213,0.8464942137508509
0.01019432396434548,0.8464942137508509
0.01019432396434548,0.8475153165418652
0.01031385540111335,0.8475153165418652
0.01031385540111335,0.84785568413887
0.010365083159728151,0.84785568413887
0.010365083159728151,0.8495575221238938
0.010399234998804685,0.8495575221238938
0.010399234998804685,0.8505786249149081
0.010450462757419487,0.8505786249149081
0.010450462757419487,0.8509189925119128
0.01048461459649602,0.8509189925119128
0.01048461459649602,0.8515997277059224
0.010535842355110823,0.8515997277059224
0.010535842355110823,0.8519400953029271
0.01055291827464909,0.8519400953029271
0.01055291827464909,0.852280462899932
0.01067244971141696,0.852280462899932
0.01067244971141696,0.8526208304969367
0.010723677470031761,0.8526208304969367
0.010723677470031761,0.8539823008849557
0.010826132987261363,0.8539823008849557
0.010826132987261363,0.8546630360789653
0.010843208906799632,0.8546630360789653
0.010843208906799632,0.85500340367597
0.010928588504490968,0.85500340367597
0.010928588504490968,0.8553437712729748
0.010962740343567501,0.8553437712729748
0.010962740343567501,0.8556841388699796
0.011048119941258837,0.8556841388699796
0.011048119941258837,0.8560245064669844
0.011116423619411906,0.8560245064669844
0.011116423619411906,0.8567052416609938
0.011253030975718042,0.8567052416609938
0.011253030975718042,0.8570456092579987
0.011406714251562446,0.8570456092579987
0.011406714251562446,0.8573859768550034
0.011475017929715515,0.8573859768550034
0.011475017929715515,0.8577263444520081
0.01167992896417472,0.8577263444520081
0.01167992896417472,0.858066712049013
0.011697004883712989,0.858066712049013
0.011697004883712989,0.8590878148400273
0.011782384481404324,0.8590878148400273
0.011782384481404324,0.859428182437032
0.011799460400942591,0.859428182437032
0.011799460400942591,0.8597685500340367
0.011901915918172194,0.8597685500340367
0.011901915918172194,0.8601089176310415
0.011936067757248727,0.8601089176310415
0.011936067757248727,0.8604492852280463
0.012089751033093132,0.8604492852280463
0.012089751033093132,0.860789652825051
0.012106826952631398,0.860789652825051
0.012106826952631398,0.8614703880190606
0.012260510228475803,0.8614703880190606
0.012260510228475803,0.8618107556160653
0.012328813906628872,0.8618107556160653
0.012328813906628872,0.8621511232130701
0.012448345343396741,0.8621511232130701
0.012448345343396741,0.8624914908100749
0.01246542126293501,0.8624914908100749
0.01246542126293501,0.8628318584070797
0.012482497182473276,0.8628318584070797
0.012482497182473276,0.8641933287950987
0.012533724941088077,0.8641933287950987
0.012533724941088077,0.8645336963921034
0.012687408216932481,0.8645336963921034
0.012687408216932481,0.8648740639891083
0.01275571189508555,0.8648740639891083
0.01275571189508555,0.865214431586113
0.012806939653700352,0.865214431586113
0.012806939653700352,0.8658951667801226
0.012892319251391688,0.8658951667801226
0.012892319251391688,0.8662355343771273
0.012926471090468222,0.8662355343771273
0.012926471090468222,0.866575901974132
0.01299477476862129,0.866575901974132
0.01299477476862129,0.8675970047651463
0.013028926607697824,0.8675970047651463
0.013028926607697824,0.8682777399591559
0.013285065400771831,0.8682777399591559
0.013285065400771831,0.8686181075561606
0.013336293159386633,0.8686181075561606
0.013336293159386633,0.8689584751531654
0.013404596837539702,0.8689584751531654
0.013404596837539702,0.869639210347175
0.013421672757077969,0.869639210347175
0.013421672757077969,0.8699795779441797
0.01347290051569277,0.8699795779441797
0.01347290051569277,0.8703199455411845
0.013558280113384105,0.8703199455411845
0.013558280113384105,0.8706603131381893
0.013660735630613709,0.8706603131381893
0.013660735630613709,0.871000680735194
0.013763191147843312,0.871000680735194
0.013763191147843312,0.8713410483321987
0.013797342986919845,0.8713410483321987
0.013797342986919845,0.8716814159292036
0.014019329940917319,0.8716814159292036
0.014019329940917319,0.872362151123213
0.014087633619070387,0.872362151123213
0.014087633619070387,0.8727025187202179
0.014173013216761723,0.8727025187202179
0.014173013216761723,0.8730428863172226
0.01419008913629999,0.8730428863172226
0.01419008913629999,0.8737236215112322
0.014207165055838257,0.8737236215112322
0.014207165055838257,0.8740639891082369
0.014326696492606128,0.8740639891082369
0.014326696492606128,0.8744043567052416
0.014497455687988799,0.8744043567052416
0.014497455687988799,0.8747447243022465
0.0145486834466036,0.8747447243022465
0.0145486834466036,0.8750850918992512
0.014651138963833202,0.8750850918992512
0.014651138963833202,0.8754254594962559
0.014702366722448004,0.8754254594962559
0.014702366722448004,0.8757658270932607
0.01471944264198627,0.8757658270932607
0.01471944264198627,0.8761061946902655
0.014736518561524537,0.8761061946902655
0.014736518561524537,0.8764465622872702
0.014770670400601073,0.8764465622872702
0.014770670400601073,0.876786929884275
0.014873125917830675,0.876786929884275
0.014873125917830675,0.8771272974812798
0.015009733274136813,0.8771272974812798
0.015009733274136813,0.8774676650782846
0.015146340630442949,0.8774676650782846
0.015146340630442949,0.8778080326752893
0.015197568389057751,0.8778080326752893
0.015197568389057751,0.8784887678692989
0.015214644308596018,0.8784887678692989
0.015214644308596018,0.8788291354663036
0.015231720228134285,0.8788291354663036
0.015231720228134285,0.8795098706603132
0.015334175745363887,0.8795098706603132
0.015334175745363887,0.8798502382573179
0.015368327584440422,0.8798502382573179
0.015368327584440422,0.8801906058543226
0.015436631262593491,0.8801906058543226
0.015436631262593491,0.8808713410483322
0.015470783101670025,0.8808713410483322
0.015470783101670025,0.8822328114363512
0.015590314538437894,0.8822328114363512
0.015590314538437894,0.8829135466303608
0.015880605170588435,0.8829135466303608
0.015880605170588435,0.8832539142273655
0.01593183292920324,0.8832539142273655
0.01593183292920324,0.8835942818243703
0.015965984768279772,0.8835942818243703
0.015965984768279772,0.8839346494213751
0.016119668044124177,0.8839346494213751
0.016119668044124177,0.8846153846153846
0.01620504764181551,0.8846153846153846
0.01620504764181551,0.8849557522123894
0.016222123561353777,0.8849557522123894
0.016222123561353777,0.8852961198093942
0.016358730917659915,0.8852961198093942
0.016358730917659915,0.8856364874063989
0.016375806837198182,0.8856364874063989
0.016375806837198182,0.8866575901974132
0.016478262354427786,0.8866575901974132
0.016478262354427786,0.8869979577944179
0.01663194563027219,0.8869979577944179
0.01663194563027219,0.8873383253914228
0.017007615860114067,0.8873383253914228
0.017007615860114067,0.8876786929884275
0.0170417676991906,0.8876786929884275
0.0170417676991906,0.8880190605854322
0.017144223216420205,0.8880190605854322
0.017144223216420205,0.8897208985704561
0.01716129913595847,0.8897208985704561
0.01716129913595847,0.8900612661674608
0.017212526894573272,0.8900612661674608
0.017212526894573272,0.8904016337644656
0.017332058331341143,0.8904016337644656
0.017332058331341143,0.8907420013614704
0.01734913425087941,0.8907420013614704
0.01734913425087941,0.8910823689584751
0.017366210170417676,0.8910823689584751
0.017366210170417676,0.8917631041524847
0.017536969365800348,0.8917631041524847
0.017536969365800348,0.8921034717494895
0.01760527304395342,0.8921034717494895
0.01760527304395342,0.892784206943499
0.01777603223933609,0.892784206943499
0.01777603223933609,0.8931245745405038
0.017895563676103957,0.8931245745405038
0.017895563676103957,0.8934649421375085
0.018083398791024895,0.8934649421375085
0.018083398791024895,0.8938053097345132
0.018100474710563162,0.8938053097345132
0.018100474710563162,0.8941456773315181
0.018254157986407567,0.8941456773315181
0.018254157986407567,0.8944860449285228
0.018373689423175438,0.8944860449285228
0.018373689423175438,0.8948264125255275
0.018561524538096376,0.8948264125255275
0.018561524538096376,0.8951667801225324
0.018681055974864247,0.8951667801225324
0.018681055974864247,0.8955071477195371
0.01883473925070865,0.8955071477195371
0.01883473925070865,0.8958475153165418
0.018868891089785185,0.8958475153165418
0.018868891089785185,0.8961878829135467
0.019039650285167856,0.8961878829135467
0.019039650285167856,0.8968686181075561
0.019159181721935727,0.8968686181075561
0.019159181721935727,0.897208985704561
0.01924456131962706,0.897208985704561
0.01924456131962706,0.8975493533015657
0.019432396434548,0.8975493533015657
0.019432396434548,0.8978897208985704
0.019466548273624536,0.8978897208985704
0.019466548273624536,0.8982300884955752
0.01950070011270107,0.8982300884955752
0.01950070011270107,0.89857045609258
0.019534851951777604,0.89857045609258
0.019534851951777604,0.8989108236895847
0.01967145930808374,0.8989108236895847
0.01967145930808374,0.8992511912865895
0.01972268706669854,0.8992511912865895
0.01972268706669854,0.9002722940776038
0.019842218503466413,0.9002722940776038
0.019842218503466413,0.9006126616746086
0.019995901779310817,0.9006126616746086
0.019995901779310817,0.9009530292716134
0.02003005361838735,0.9009530292716134
0.02003005361838735,0.9012933968686181
0.02026911649192309,0.9012933968686181
0.02026911649192309,0.9016337644656228
0.020303268330999623,0.9016337644656228
0.020303268330999623,0.9019741320626277
0.02043987568730576,0.9019741320626277
0.02043987568730576,0.9026548672566371
0.020491103445920564,0.9026548672566371
0.020491103445920564,0.902995234853642
0.020832621836685907,0.902995234853642
0.020832621836685907,0.9033356024506467
0.020849697756224174,0.9033356024506467
0.020849697756224174,0.9036759700476514
0.020935077353915508,0.9036759700476514
0.020935077353915508,0.9040163376446563
0.02100338103206858,0.9040163376446563
0.02100338103206858,0.904356705241661
0.021771797411290598,0.904356705241661
0.021771797411290598,0.9046970728386657
0.021788873330828865,0.9046970728386657
0.021788873330828865,0.9050374404356705
0.021840101089443665,0.9050374404356705
0.021840101089443665,0.9053778080326753
0.021857177008981935,0.9053778080326753
0.021857177008981935,0.90571817562968
0.021908404767596736,0.90571817562968
0.021908404767596736,0.9060585432266848
0.022266999077900345,0.9060585432266848
0.022266999077900345,0.9063989108236896
0.022284074997438612,0.9063989108236896
0.022284074997438612,0.9067392784206944
0.022676821146818755,0.9067392784206944
0.022676821146818755,0.9070796460176991
0.022745124824971825,0.9070796460176991
0.022745124824971825,0.9074200136147039
0.022762200744510092,0.9074200136147039
0.022762200744510092,0.9081007488087134
0.02277927666404836,0.9081007488087134
0.02277927666404836,0.9084411164057182
0.022881732181277963,0.9084411164057182
0.022881732181277963,0.908781484002723
0.02289880810081623,0.908781484002723
0.02289880810081623,0.9098025867937373
0.023052491376660635,0.9098025867937373
0.023052491376660635,0.910142954390742
0.023103719135275435,0.910142954390742
0.023103719135275435,0.9104833219877467
0.023240326491581573,0.9104833219877467
0.023240326491581573,0.9108236895847516
0.023394009767425977,0.9108236895847516
0.023394009767425977,0.9111640571817563
0.02366722448003825,0.9111640571817563
0.02366722448003825,0.911504424778761
0.023991666951265325,0.911504424778761
0.023991666951265325,0.9121851599727706
0.024281957583415868,0.9121851599727706
0.024281957583415868,0.9125255275697753
0.02438441310064547,0.9125255275697753
0.02438441310064547,0.9128658951667801
0.024469792698336806,0.9128658951667801
0.024469792698336806,0.9132062627637849
0.02450394453741334,0.9132062627637849
0.02450394453741334,0.9138869979577944
0.02455517229602814,0.9138869979577944
0.02455517229602814,0.9142273655547992
0.02457224821556641,0.9142273655547992
0.02457224821556641,0.914567733151804
0.02462347597418121,0.914567733151804
0.02462347597418121,0.9149081007488087
0.024845462928178682,0.9149081007488087
0.024845462928178682,0.9152484683458135
0.02498207028448482,0.9152484683458135
0.02498207028448482,0.9155888359428183
0.02503329804309962,0.9155888359428183
0.02503329804309962,0.915929203539823
0.0255626515487859,0.915929203539823
0.0255626515487859,0.9162695711368277
0.025613879307400705,0.9162695711368277
0.025613879307400705,0.9166099387338326
0.026074929134933915,0.9166099387338326
0.026074929134933915,0.9169503063308373
0.02609200505447218,0.9169503063308373
0.02609200505447218,0.9176310415248469
0.026194460571701786,0.9176310415248469
0.026194460571701786,0.9179714091218516
0.02622861241077832,0.9179714091218516
0.02622861241077832,0.9183117767188563
0.026501827123390595,0.9183117767188563
0.026501827123390595,0.9189925119128659
0.026621358560158466,0.9189925119128659
0.026621358560158466,0.9193328795098706
0.026655510399235,0.9193328795098706
0.026655510399235,0.9196732471068755
0.027201939824459547,0.9196732471068755
0.027201939824459547,0.9203539823008849
0.027338547180765685,0.9203539823008849
0.027338547180765685,0.9206943498978897
0.027628837812916227,0.9206943498978897
0.027628837812916227,0.9210347174948945
0.028243570916293842,0.9210347174948945
0.028243570916293842,0.9213750850918992
0.028363102353061713,0.9213750850918992
0.028363102353061713,0.921715452688904
0.028533861548444384,0.921715452688904
0.028533861548444384,0.9220558202859088
0.028585089307059185,0.9220558202859088
0.028585089307059185,0.9223961878829136
0.02860216522659745,0.9223961878829136
0.02860216522659745,0.9227365554799183
0.028670468904750522,0.9227365554799183
0.028670468904750522,0.9234172906739279
0.02873877258290359,0.9234172906739279
0.02873877258290359,0.9237576582709326
0.029660872237970013,0.9237576582709326
0.029660872237970013,0.9240980258679373
0.02986578327242922,0.9240980258679373
0.02986578327242922,0.9247787610619469
0.030019466548273626,0.9247787610619469
0.030019466548273626,0.9251191286589516
0.03036098493903897,0.9251191286589516
0.03036098493903897,0.9254594962559565
0.030548820053959907,0.9254594962559565
0.030548820053959907,0.9261402314499659
0.03089033844472525,0.9261402314499659
0.03089033844472525,0.9264805990469708
0.03106109764010792,0.9264805990469708
0.03106109764010792,0.9268209666439755
0.031505071548102864,0.9268209666439755
0.031505071548102864,0.9271613342409802
0.0315392233871794,0.9271613342409802
0.0315392233871794,0.927501701837985
0.03157337522625593,0.927501701837985
0.03157337522625593,0.9278420694349898
0.0315904511457942,0.9278420694349898
0.0315904511457942,0.9281824370319945
0.031829514019329944,0.9281824370319945
0.031829514019329944,0.9285228046289993
0.03259793039855196,0.9285228046289993
0.03259793039855196,0.9288631722260041
0.03316143574331478,0.9288631722260041
0.03316143574331478,0.9295439074200136
0.03352003005361839,0.9295439074200136
0.03352003005361839,0.9298842750170184
0.033724941088077595,0.9298842750170184
0.033724941088077595,0.9302246426140232
0.03375909292715413,0.9302246426140232
0.03375909292715413,0.9305650102110279
0.033998155800689864,0.9305650102110279
0.033998155800689864,0.9309053778080327
0.03427137051330214,0.9309053778080327
0.03427137051330214,0.9312457454050375
0.034664116662682286,0.9312457454050375
0.034664116662682286,0.9315861130020422
0.035073938731600696,0.9315861130020422
0.035073938731600696,0.9319264805990469
0.03534715344421297,0.9319264805990469
0.03534715344421297,0.9322668481960518
0.03587650694989925,0.9322668481960518
0.03587650694989925,0.9326072157930565
0.03597896246712885,0.9326072157930565
0.03597896246712885,0.9329475833900612
0.03614972166251153,0.9329475833900612
0.03614972166251153,0.9336283185840708
0.03659369557050647,0.9336283185840708
0.03659369557050647,0.9339686861810755
0.03780608585772344,0.9339686861810755
0.03780608585772344,0.9343090537780804
0.03917215942078481,0.9343090537780804
0.03917215942078481,0.9346494213750851
0.03929169085755268,0.9346494213750851
0.03929169085755268,0.9349897889720898
0.03951367781155015,0.9349897889720898
0.03951367781155015,0.9353301565690946
0.039547829650626684,0.9353301565690946
0.039547829650626684,0.9356705241660994
0.03971858884600936,0.9356705241660994
0.03971858884600936,0.9360108917631041
0.03994057580000683,0.9360108917631041
0.03994057580000683,0.9363512593601089
0.0399576517195451,0.9363512593601089
0.0399576517195451,0.9366916269571137
0.0401113349953895,0.9366916269571137
0.0401113349953895,0.9370319945541185
0.04036747378846351,0.9370319945541185
0.04036747378846351,0.9373723621511232
0.04041870154707831,0.9373723621511232
0.04041870154707831,0.937712729748128
0.04110173832860899,0.937712729748128
0.04110173832860899,0.9380530973451328
0.04180185102967795,0.9380530973451328
0.04180185102967795,0.9383934649421375
0.04183600286875448,0.9383934649421375
0.04183600286875448,0.9387338325391422
0.04192138246644582,0.9387338325391422
0.04192138246644582,0.9390742001361471
0.042075065742290224,0.9390742001361471
0.042075065742290224,0.9394145677331518
0.04224582493767289,0.9394145677331518
0.04224582493767289,0.9397549353301565
0.0423482804549025,0.9397549353301565
0.0423482804549025,0.9400953029271614
0.04267272292612957,0.9400953029271614
0.04267272292612957,0.9404356705241661
0.04284348212151225,0.9404356705241661
0.04284348212151225,0.9407760381211708
0.04294593763874185,0.9407760381211708
0.04294593763874185,0.9411164057181757
0.04320207643181585,0.9411164057181757
0.04320207643181585,0.9414567733151804
0.043646050339810796,0.9414567733151804
0.043646050339810796,0.9417971409121851
0.043833885454731734,0.9417971409121851
0.043833885454731734,0.94213750850919
0.04398756873057614,0.94213750850919
0.04398756873057614,0.9424778761061947
0.04431201120180322,0.9424778761061947
0.04431201120180322,0.9428182437031994
0.044397390799494556,0.9428182437031994
0.044397390799494556,0.9431586113002042
0.045114579420101775,0.9431586113002042
0.045114579420101775,0.943498978897209
0.045234110856869646,0.943498978897209
0.045234110856869646,0.9441797140912185
0.04557562924763499,0.9441797140912185
0.04557562924763499,0.9445200816882233
0.04590007171886206,0.9445200816882233
0.04590007171886206,0.944860449285228
0.046344045626857004,0.944860449285228
0.046344045626857004,0.9452008168822328
0.04769304327038011,0.9452008168822328
0.04769304327038011,0.9455411844792376
0.04808578941976025,0.9455411844792376
0.04808578941976025,0.9458815520762424
0.04810286533929852,0.9458815520762424
0.04810286533929852,0.9462219196732471
0.04834192821283426,0.9462219196732471
0.04834192821283426,0.9465622872702518
0.048666370684061336,0.9465622872702518
0.048666370684061336,0.9469026548672567
0.04893958539667361,0.9469026548672567
0.04893958539667361,0.9472430224642614
0.048973737235750145,0.9472430224642614
0.048973737235750145,0.9475833900612661
0.04902496499436495,0.9475833900612661
0.04902496499436495,0.947923757658271
0.04911034459205628,0.947923757658271
0.04911034459205628,0.9482641252552757
0.04945186298282162,0.9482641252552757
0.04945186298282162,0.9486044928522804
0.049793381373586965,0.9486044928522804
0.049793381373586965,0.9489448604492853
0.050647177350500325,0.9489448604492853
0.050647177350500325,0.94928522804629
0.050954543902189134,0.94928522804629
0.050954543902189134,0.9496255956432947
0.051074075338957005,0.9496255956432947
0.051074075338957005,0.9499659632402995
0.051176530856186606,0.9499659632402995
0.051176530856186606,0.9503063308373043
0.051910795396332095,0.9503063308373043
0.051910795396332095,0.9513274336283186
0.052525528499709706,0.9513274336283186
0.052525528499709706,0.9516678012253234
0.05348177999385267,0.9516678012253234
0.05348177999385267,0.9520081688223281
0.05363546326969707,0.9520081688223281
0.05363546326969707,0.9523485364193329
0.05384037430415628,0.9523485364193329
0.05384037430415628,0.9526889040163377
0.054830777637375774,0.9526889040163377
0.054830777637375774,0.9530292716133424
0.054950309074143645,0.9530292716133424
0.054950309074143645,0.9533696392103471
0.055787029131518735,0.9533696392103471
0.055787029131518735,0.953710006807352
0.05604316792459274,0.953710006807352
0.05604316792459274,0.9540503744043567
0.05609439568320754,0.9540503744043567
0.05609439568320754,0.9543907420013614
0.056299306717666746,0.9543907420013614
0.056299306717666746,0.9547311095983663
0.05635053447628155,0.9547311095983663
0.05635053447628155,0.955071477195371
0.05652129367166422,0.955071477195371
0.05652129367166422,0.9557522123893806
0.057033571257812235,0.9557522123893806
0.057033571257812235,0.9560925799863853
0.05788736723472559,0.9560925799863853
0.05788736723472559,0.95643294758339
0.058382568901335335,0.95643294758339
0.058382568901335335,0.9567733151803949
0.05887777056794508,0.9567733151803949
0.05887777056794508,0.9571136827773996
0.059116833441480825,0.9571136827773996
0.059116833441480825,0.9574540503744043
0.05915098528055736,0.9574540503744043
0.05915098528055736,0.9577944179714091
0.0594412759127079,0.9577944179714091
0.0594412759127079,0.9581347855684139
0.05968033878624364,0.9581347855684139
0.05968033878624364,0.9584751531654186
0.05979987022301151,0.9584751531654186
0.05979987022301151,0.9588155207624234
0.06043167924592739,0.9588155207624234
0.06043167924592739,0.9591558883594282
0.06049998292408046,0.9591558883594282
0.06049998292408046,0.959496255956433
0.06275400430313173,0.959496255956433
0.06275400430313173,0.9598366235534377
0.06386393907311909,0.9598366235534377
0.06386393907311909,0.9601769911504425
0.06391516683173389,0.9601769911504425
0.06391516683173389,0.9605173587474473
0.06541784775110139,0.9605173587474473
0.06541784775110139,0.960857726344452
0.0657252143027902,0.960857726344452
0.0657252143027902,0.9611980939414567
0.06579351798094327,0.9611980939414567
0.06579351798094327,0.9615384615384616
0.06601550493494075,0.9615384615384616
0.06601550493494075,0.9618788291354663
0.06627164372801475,0.9618788291354663
0.06627164372801475,0.962219196732471
0.06784262832553534,0.962219196732471
0.06784262832553534,0.9625595643294759
0.06828660223353028,0.9625595643294759
0.06828660223353028,0.9628999319264806
0.07019910522181619,0.9628999319264806
0.07019910522181619,0.9632402995234853
0.0704040162562754,0.9632402995234853
0.0704040162562754,0.9635806671204902
0.07134319183088009,0.9635806671204902
0.07134319183088009,0.9639210347174949
0.07146272326764797,0.9639210347174949
0.07146272326764797,0.9642614023144996
0.07236774700317612,0.9642614023144996
0.07236774700317612,0.9646017699115044
0.07257265803763532,0.9646017699115044
0.07257265803763532,0.9649421375085092
0.0728458727502476,0.9649421375085092
0.0728458727502476,0.9652825051055139
0.0729483282674772,0.9652825051055139
0.0729483282674772,0.9656228727025187
0.07332399849731908,0.9656228727025187
0.07332399849731908,0.9659632402995235
0.07433147775007684,0.9659632402995235
0.07433147775007684,0.9663036078965282
0.07644889177282196,0.9663036078965282
0.07644889177282196,0.966643975493533
0.07682456200266384,0.966643975493533
0.07682456200266384,0.9669843430905378
0.0784638502783375,0.9669843430905378
0.0784638502783375,0.9673247106875426
0.07955670912878658,0.9673247106875426
0.07955670912878658,0.9676650782845473
0.08023974591031727,0.9676650782845473
0.08023974591031727,0.9680054458815521
0.08046173286431474,0.9680054458815521
0.08046173286431474,0.9683458134785569
0.0823059321744476,0.9683458134785569
0.0823059321744476,0.9686861810755616
0.08290358935828694,0.9686861810755616
0.08290358935828694,0.9690265486725663
0.08408182780642738,0.9690265486725663
0.08408182780642738,0.9693669162695712
0.08420135924319525,0.9693669162695712
0.08420135924319525,0.9697072838665759
0.08464533315119019,0.9697072838665759
0.08464533315119019,0.9700476514635806
0.08717256924285373,0.9700476514635806
0.08717256924285373,0.9703880190605855
0.0887435538403743,0.9703880190605855
0.0887435538403743,0.9707283866575902
0.09041699395512448,0.9707283866575902
0.09041699395512448,0.9710687542545949
0.09133909361019091,0.9710687542545949
0.09133909361019091,0.9714091218515998
0.09203920631125986,0.9714091218515998
0.09203920631125986,0.9717494894486045
0.09364434274785698,0.9717494894486045
0.09364434274785698,0.9720898570456092
0.09376387418462484,0.9720898570456092
0.09376387418462484,0.972430224642614
0.09465182200061473,0.972430224642614
0.09465182200061473,0.9727705922396188
0.094668897920153,0.9727705922396188
0.094668897920153,0.9731109598366235
0.09600081964413784,0.9731109598366235
0.09600081964413784,0.9734513274336283
0.09844267613811004,0.9734513274336283
0.09844267613811004,0.9737916950306331
0.0984597520576483,0.9737916950306331
0.0984597520576483,0.9741320626276379
0.10040640688501076,0.9741320626276379
0.10040640688501076,0.9744724302246426
0.1021993784365288,0.9744724302246426
0.1021993784365288,0.9748127978216474
0.1031385540111335,0.9748127978216474
0.1031385540111335,0.9751531654186522
0.10365083159728151,0.9751531654186522
0.10365083159728151,0.9754935330156569
0.10484614596496021,0.9754935330156569
0.10484614596496021,0.9758339006126616
0.11090809740104504,0.9758339006126616
0.11090809740104504,0.9761742682096665
0.11200095625149414,0.9761742682096665
0.11200095625149414,0.9765146358066712
0.11201803217103241,0.9765146358066712
0.11201803217103241,0.9768550034036759
0.11601379734298692,0.9768550034036759
0.11601379734298692,0.9771953710006808
0.11623578429698439,0.9771953710006808
0.11623578429698439,0.9775357385976855
0.11881424814726273,0.9775357385976855
0.11881424814726273,0.9778761061946902
0.12014616987124757,0.9778761061946902
0.12014616987124757,0.9782164737916951
0.12070967521601038,0.9782164737916951
0.12070967521601038,0.9785568413886998
0.12330521498582699,0.9785568413886998
0.12330521498582699,0.9788972089857045
0.1234076705030566,0.9788972089857045
0.12344182234213312,0.9788972089857045
0.12542262900857212,0.9788972089857045
0.12542262900857212,0.9792375765827094
0.1271472968819371,0.9792375765827094
0.1271472968819371,0.9795779441797141
0.12820600389330966,0.9795779441797141
0.12820600389330966,0.9799183117767188
0.1378026706738158,0.9799183117767188
0.1378026706738158,0.9802586793737236
0.1389809091219562,0.9802586793737236
0.1389809091219562,0.9805990469707284
0.13952733854718077,0.9805990469707284
0.13952733854718077,0.9809394145677331
0.14039821044363238,0.9809394145677331
0.14039821044363238,0.9812797821647379
0.1420545746388443,0.9812797821647379
0.1420545746388443,0.9816201497617427
0.14265223182268366,0.9816201497617427
0.14265223182268366,0.9819605173587475
0.14313035756975512,0.9819605173587475
0.14313035756975512,0.9823008849557522
0.1439329257880537,0.9823008849557522
0.1439329257880537,0.982641252552757
0.14490625320173492,0.982641252552757
0.14490625320173492,0.9829816201497618
0.1455892899832656,0.9829816201497618
0.1455892899832656,0.9833219877467665
0.1466309210750999,0.9833219877467665
0.1466309210750999,0.9836623553437712
0.15076329360336055,0.9836623553437712
0.15079744544243706,0.9836623553437712
0.15559577883269013,0.9836623553437712
0.15559577883269013,0.9840027229407761
0.15887435538403744,0.9840027229407761
0.15887435538403744,0.9843430905377808
0.15890850722311398,0.9843430905377808
0.15890850722311398,0.9846834581347855
0.16000136607356305,0.9846834581347855
0.16000136607356305,0.9850238257317904
0.16027458078617535,0.9850238257317904
0.16027458078617535,0.9853641933287951
0.16061609917694067,0.9853641933287951
0.16061609917694067,0.9857045609257998
0.16100884532632082,0.9857045609257998
0.16100884532632082,0.9860449285228047
0.16244322256753527,0.9860449285228047
0.16244322256753527,0.9863852961198094
0.16278474095830062,0.9863852961198094
0.16278474095830062,0.9867256637168141
0.16524367337181106,0.9867256637168141
0.16524367337181106,0.9870660313138189
0.1656364195211912,0.9870660313138189
0.1656364195211912,0.9874063989108237
0.1686588572794645,0.9874063989108237
0.1686588572794645,0.9877467665078284
0.1732352037157201,0.9877467665078284
0.1732352037157201,0.9880871341048332
0.17384993681909772,0.9880871341048332
0.17384993681909772,0.988427501701838
0.1770260578532154,0.988427501701838
0.1770260578532154,0.9887678692988427
0.1805095454390219,0.9887678692988427
0.1805095454390219,0.9891082368958475
0.18223421331238687,0.9891082368958475
0.18223421331238687,0.9894486044928523
0.18547863802465764,0.9894486044928523
0.18547863802465764,0.989788972089857
0.18944025135753562,0.989788972089857
0.18947440319661213,0.989788972089857
0.1927188279088829,0.989788972089857
0.1927188279088829,0.9901293396868618
0.19403367371332947,0.9901293396868618
0.19403367371332947,0.9904697072838666
0.19685120043714355,0.9904697072838666
0.19685120043714355,0.9908100748808714
0.20021515658618216,0.9908100748808714
0.20021515658618216,0.9911504424778761
0.20026638434479696,0.9911504424778761
0.20026638434479696,0.9914908100748808
0.20105187664355725,0.9914908100748808
0.2010860284826338,0.9914908100748808
0.21232198353881357,0.9914908100748808
0.21232198353881357,0.9918311776718857
0.2174447594002937,0.9918311776718857
0.2174447594002937,0.9921715452688904
0.21773505003244426,0.9921715452688904
0.21773505003244426,0.9925119128658951
0.22031351388272258,0.9925119128658951
0.22031351388272258,0.9928522804629
0.23344489600765,0.9928522804629
0.23344489600765,0.9931926480599047
0.2371845223865305,0.9931926480599047
0.2371845223865305,0.9935330156569094
0.2379700146852908,0.9935330156569094
0.2379700146852908,0.9938733832539143
0.23819200163928828,0.9938733832539143
0.23819200163928828,0.994213750850919
0.24632013933950342,0.994213750850919
0.24632013933950342,0.9945541184479237
0.25323588675250164,0.9945541184479237
0.25323588675250164,0.9948944860449285
0.25402137905126193,0.9948944860449285
0.25402137905126193,0.9952348536419333
0.2598954953724258,0.9952348536419333
0.2598954953724258,0.995575221238938
0.2620470612342475,0.995575221238938
0.262081213073324,0.995575221238938
0.2625422629008572,0.995575221238938
0.26257641473993376,0.995575221238938
0.2727707387042792,0.995575221238938
0.2727707387042792,0.9959155888359428
0.27893514565759364,0.9959155888359428
0.27893514565759364,0.9962559564329476
0.28176974830094603,0.9962559564329476
0.28180390014002255,0.9962559564329476
0.2870803592773471,0.9962559564329476
0.2870803592773471,0.9965963240299524
0.2895563676103958,0.9965963240299524
0.2895563676103958,0.9969366916269571
0.2917933130699088,0.9969366916269571
0.2917933130699088,0.9972770592239619
0.296472115023394,0.9972770592239619
0.296472115023394,0.9976174268209667
0.31455551381441893,0.9976174268209667
0.31458966565349544,0.9976174268209667
0.3218981592158738,0.9976174268209667
0.3219323110549503,0.9976174268209667
0.3424063385813326,0.9976174268209667
0.34244049042040914,0.9976174268209667
0.35377890099381853,0.9976174268209667
0.35381305283289505,0.9976174268209667
0.3545473173730405,0.9976174268209667
0.3545814692121171,0.9976174268209667
0.35786004576346436,0.9976174268209667
0.35786004576346436,0.9979577944179714
0.3749871930603463,0.9979577944179714
0.37502134489942285,0.9979577944179714
0.3799392097264438,0.9979577944179714
0.3799392097264438,0.9982981620149761
0.40124995731020113,0.9982981620149761
0.4012841091492777,0.9982981620149761
0.40358935828694376,0.9982981620149761
0.40358935828694376,0.998638529611981
0.41798435845770293,0.998638529611981
0.4180185102967795,0.998638529611981
0.42490010587070115,0.998638529611981
0.42493425770977766,0.998638529611981
0.44964311328165024,0.998638529611981
0.44964311328165024,0.9989788972089857
0.4604521703493733,0.9989788972089857
0.46048632218844987,0.9989788972089857
0.4639356579351798,0.9989788972089857
0.46396980977425634,0.9989788972089857
0.4694341040265018,0.9989788972089857
0.4694682558655784,0.9989788972089857
0.47670844574980364,0.9989788972089857
0.47674259758888016,0.9989788972089857
0.49093268672518015,0.9989788972089857
0.49093268672518015,0.9993192648059904
0.4937502134489942,0.9993192648059904
0.49378436528807074,0.9993192648059904
0.4983436358047881,0.9993192648059904
0.49837778764386464,0.9993192648059904
0.50128069396537,0.9993192648059904
0.5013148458044465,0.9993192648059904
0.5017417437929033,0.9993192648059904
0.5017758956319798,0.9993192648059904
0.5025784638502784,0.9993192648059904
0.5026126156893549,0.9993192648059904
0.503705474539804,0.9993192648059904
0.5037396263788805,0.9993192648059904
0.5235989208018852,0.9993192648059904
0.5236330726409617,0.9993192648059904
0.5254089682729415,0.9993192648059904
0.525443120112018,0.9993192648059904
0.5303439090195007,0.9993192648059904
0.5303780608585772,0.9993192648059904
0.532410095283631,0.9993192648059904
0.5324442471227075,0.9993192648059904
0.5381305283289505,0.9993192648059904
0.5381646801680271,0.9993192648059904
0.5385061985587923,0.9993192648059904
0.538540350397869,0.9993192648059904
0.5406236125815375,0.9993192648059904
0.5406577644206141,0.9993192648059904
0.5554284348212152,0.9993192648059904
0.5554625866602917,0.9993192648059904
0.5593046685564017,0.9993192648059904
0.5593388203954783,0.9993192648059904
0.562514941429596,0.9993192648059904
0.5625490932686725,0.9993192648059904
0.5653495440729484,0.9993192648059904
0.5653666199924866,0.9996596324029953
0.5756121717154469,0.9996596324029953
0.5756463235545234,0.9996596324029953
0.5839452204501212,0.9996596324029953
0.5839793722891977,0.9996596324029953
0.585396673610874,0.9996596324029953
0.5854308254499505,0.9996596324029953
0.588402035449609,0.9996596324029953
0.5884361872886855,0.9996596324029953
0.593968785219084,0.9996596324029953
0.5940029370581605,0.9996596324029953
0.5995355349885592,0.9996596324029953
0.5995696868276357,0.9996596324029953
0.6028141115399064,0.9996596324029953
0.602848263378983,0.9996596324029953
0.6096786311942898,0.9996596324029953
0.6097127830333664,0.9996596324029953
0.6130938151019433,0.9996596324029953
0.6131621187800963,0.9996596324029953
0.6217513063078447,0.9996596324029953
0.6217854581469212,0.9996596324029953
0.6336873740650935,0.9996596324029953
0.63372152590417,0.9996596324029953
0.6413032341791606,0.9996596324029953
0.6413373860182371,0.9996596324029953
0.6414910692940815,0.9996596324029953
0.641525221133158,0.9996596324029953
0.6463406304429493,0.9996596324029953
0.6463747822820259,0.9996596324029953
0.6559543731429938,0.9996596324029953
0.6559885249820703,0.9996596324029953
0.6600355179126396,0.9996596324029953
0.6600696697517161,0.9996596324029953
0.6870154707831017,0.9996596324029953
0.6870496226221782,0.9996596324029953
0.6934189406099518,0.9996596324029953
0.6934530924490284,0.9996596324029953
0.6967828967589905,0.9996596324029953
0.696817048598067,0.9996596324029953
0.7048939585396674,0.9996596324029953
0.7049281103787439,0.9996596324029953
0.7214746764113248,0.9996596324029953
0.7215088282504013,0.9996596324029953
0.728390423824323,0.9996596324029953
0.7284245756633995,0.9996596324029953
0.7433660052593832,0.9996596324029953
0.7434001570984597,0.9996596324029953
0.7642669307742221,0.9996596324029953
0.7643010826132988,0.9996596324029953
0.7709265393941463,0.9996596324029953
0.7709606912332229,0.9996596324029953
0.7812403947952598,0.9996596324029953
0.7812745466343363,0.9996596324029953
0.791229807725146,0.9996596324029953
0.7912639595642226,0.9996596324029953
0.8241692565144633,0.9996596324029953
0.8242034083535399,0.9996596324029953
0.8261159113418257,0.9996596324029953
0.8261500631809023,0.9996596324029953
0.85297633277552,0.9996596324029953
0.8530104846145965,0.9996596324029953
0.9019159181721935,0.9996596324029953
0.9019500700112701,0.9996596324029953
0.9397049281103788,0.9996596324029953
0.9397049281103788,1.0
1.0,1.0
