fpr,tpr
0.0,0.0
1.6518004625041296e-05,0.0
1.6518004625041296e-05,0.001388888888888889
3.303600925008259e-05,0.001388888888888889
3.303600925008259e-05,0.00625
4.955401387512388e-05,0.00625
4.955401387512388e-05,0.027083333333333334
4.955401387512388e-05,0.02847222222222222
4.955401387512388e-05,0.05625
6.607201850016519e-05,0.05625
6.607201850016519e-05,0.05694444444444444
8.259002312520647e-05,0.05694444444444444
8.259002312520647e-05,0.06111111111111111
9.910802775024777e-05,0.06111111111111111
9.910802775024777e-05,0.06736111111111111
0.00011562603237528906,0.06736111111111111
0.00011562603237528906,0.1125
0.00013214403700033037,0.1125
0.00013214403700033037,0.11388888888888889
0.00013214403700033037,0.11527777777777778
0.00013214403700033037,0.11875
0.00014866204162537167,0.11875
0.00014866204162537167,0.1361111111111111
0.00016518004625041294,0.1361111111111111
0.00016518004625041294,0.1527777777777778
0.00018169805087545423,0.1527777777777778
0.00018169805087545423,0.1597222222222222
0.00019821605550049553,0.1597222222222222
0.00019821605550049553,0.16458333333333333
0.00021473406012553683,0.16458333333333333
0.00021473406012553683,0.17083333333333334
0.00023125206475057812,0.17083333333333334
0.00023125206475057812,0.18263888888888888
0.0002477700693756194,0.18263888888888888
0.0002477700693756194,0.19375
0.0002477700693756194,0.1951388888888889
0.0002477700693756194,0.20347222222222222
0.00026428807400066074,0.20347222222222222
0.00026428807400066074,0.20416666666666666
0.000280806078625702,0.20416666666666666
0.000280806078625702,0.2111111111111111
0.00029732408325074334,0.21180555555555555
0.00029732408325074334,0.2263888888888889
0.0003138420878757846,0.22708333333333333
0.0003138420878757846,0.23333333333333334
0.0003303600925008259,0.23333333333333334
0.0003303600925008259,0.24027777777777778
0.0003468780971258672,0.24027777777777778
0.0003468780971258672,0.24583333333333332
0.00036339610175090847,0.24583333333333332
0.00036339610175090847,0.25
0.00036339610175090847,0.2513888888888889
0.0003799141063759498,0.2513888888888889
0.0003799141063759498,0.2625
0.00039643211100099106,0.2625
0.00039643211100099106,0.26666666666666666
0.0004129501156260324,0.26666666666666666
0.0004129501156260324,0.2708333333333333
0.0004129501156260324,0.2722222222222222
0.00042946812025107365,0.2722222222222222
0.00042946812025107365,0.27847222222222223
0.000445986124876115,0.27847222222222223
0.000445986124876115,0.28402777777777777
0.00046250412950115625,0.28402777777777777
0.00046250412950115625,0.29444444444444445
0.00047902213412619757,0.29444444444444445
0.00047902213412619757,0.30277777777777776
0.0004955401387512388,0.30277777777777776
0.0004955401387512388,0.3104166666666667
0.0005285761480013215,0.3104166666666667
0.0005285761480013215,0.32083333333333336
0.0005450941526263627,0.32083333333333336
0.0005450941526263627,0.32569444444444445
0.000561612157251404,0.32569444444444445
0.000561612157251404,0.3333333333333333
0.0006111661711265279,0.3333333333333333
0.0006111661711265279,0.3423611111111111
0.0006276841757515692,0.3423611111111111
0.0006276841757515692,0.34305555555555556
0.0006442021803766105,0.34305555555555556
0.0006442021803766105,0.3576388888888889
0.0006937561942517344,0.3576388888888889
0.0006937561942517344,0.3597222222222222
0.0006937561942517344,0.3611111111111111
0.0006937561942517344,0.3645833333333333
0.0007102741988767757,0.3645833333333333
0.0007102741988767757,0.3659722222222222
0.0007267922035018169,0.3659722222222222
0.0007267922035018169,0.37083333333333335
0.0007433102081268583,0.37083333333333335
0.0007433102081268583,0.37430555555555556
0.0007598282127518996,0.37430555555555556
0.0007598282127518996,0.37916666666666665
0.0007928642220019821,0.37916666666666665
0.0007928642220019821,0.4
0.0008259002312520648,0.4
0.0008259002312520648,0.40347222222222223
0.0008424182358771061,0.40347222222222223
0.0008424182358771061,0.4041666666666667
0.0008589362405021473,0.4041666666666667
0.0008589362405021473,0.40555555555555556
0.0008754542451271886,0.40555555555555556
0.0008754542451271886,0.4083333333333333
0.00089197224975223,0.4083333333333333
0.00089197224975223,0.41388888888888886
0.0009084902543772713,0.41388888888888886
0.0009084902543772713,0.42083333333333334
0.0009084902543772713,0.4222222222222222
0.0009084902543772713,0.43194444444444446
0.0009250082590023125,0.43194444444444446
0.0009250082590023125,0.4326388888888889
0.0009580442682523951,0.4326388888888889
0.0009580442682523951,0.4361111111111111
0.0009745622728774364,0.4361111111111111
0.0009745622728774364,0.4409722222222222
0.0009910802775024777,0.4409722222222222
0.0009910802775024777,0.44166666666666665
0.001007598282127519,0.44166666666666665
0.001007598282127519,0.4423611111111111
0.0010241162867525603,0.4423611111111111
0.0010241162867525603,0.44513888888888886
0.0010406342913776017,0.44513888888888886
0.0010406342913776017,0.44583333333333336
0.001057152296002643,0.44583333333333336
0.001057152296002643,0.4486111111111111
0.001057152296002643,0.45
0.001057152296002643,0.45069444444444445
0.001073670300627684,0.45069444444444445
0.001073670300627684,0.45555555555555555
0.0010901883052527254,0.45555555555555555
0.0010901883052527254,0.46111111111111114
0.0011067063098777667,0.46111111111111114
0.0011067063098777667,0.46319444444444446
0.001123224314502808,0.46319444444444446
0.001123224314502808,0.4652777777777778
0.0011562603237528907,0.4652777777777778
0.0011562603237528907,0.46597222222222223
0.001172778328377932,0.46597222222222223
0.001172778328377932,0.4666666666666667
0.0011892963330029733,0.4666666666666667
0.0011892963330029733,0.4708333333333333
0.0012058143376280145,0.4708333333333333
0.0012058143376280145,0.475
0.0012553683515031384,0.475
0.0012553683515031384,0.47847222222222224
0.0012718863561281797,0.47847222222222224
0.0012718863561281797,0.4791666666666667
0.001288404360753221,0.4791666666666667
0.001288404360753221,0.4798611111111111
0.0013214403700033035,0.4798611111111111
0.0013214403700033035,0.4840277777777778
0.0013379583746283448,0.4840277777777778
0.0013379583746283448,0.4847222222222222
0.0013544763792533861,0.4847222222222222
0.0013544763792533861,0.4861111111111111
0.0013709943838784275,0.4861111111111111
0.0013709943838784275,0.4875
0.0013875123885034688,0.4875
0.0013875123885034688,0.4895833333333333
0.0014040303931285101,0.4895833333333333
0.0014040303931285101,0.49166666666666664
0.0014205483977535514,0.49166666666666664
0.0014205483977535514,0.49375
0.0014701024116286752,0.49375
0.0014701024116286752,0.4965277777777778
0.0014866204162537165,0.4965277777777778
0.0014866204162537165,0.49930555555555556
0.0014866204162537165,0.5006944444444444
0.0015031384208787578,0.5006944444444444
0.0015031384208787578,0.5034722222222222
0.0015196564255037992,0.5034722222222222
0.0015196564255037992,0.5041666666666667
0.0015526924347538818,0.5041666666666667
0.0015526924347538818,0.5069444444444444
0.001569210439378923,0.5069444444444444
0.001569210439378923,0.5111111111111111
0.0016352824578790882,0.5111111111111111
0.0016352824578790882,0.5118055555555555
0.0016352824578790882,0.5131944444444444
0.0016352824578790882,0.5159722222222223
0.0016518004625041295,0.5159722222222223
0.0016518004625041295,0.525
0.0017013544763792533,0.525
0.0017013544763792533,0.5270833333333333
0.0017178724810042946,0.5270833333333333
0.0017178724810042946,0.5277777777777778
0.0017509084902543773,0.5277777777777778
0.0017509084902543773,0.5319444444444444
0.0017674264948794186,0.5319444444444444
0.0017674264948794186,0.5354166666666667
0.0018169805087545426,0.5354166666666667
0.0018169805087545426,0.5375
0.0018334985133795837,0.5375
0.0018334985133795837,0.5388888888888889
0.001850016518004625,0.5388888888888889
0.001850016518004625,0.5416666666666666
0.0018830525272547076,0.5416666666666666
0.0018830525272547076,0.5423611111111111
0.001899570531879749,0.5423611111111111
0.001899570531879749,0.5430555555555555
0.0019160885365047903,0.5430555555555555
0.0019160885365047903,0.5444444444444444
0.0019326065411298316,0.5444444444444444
0.0019326065411298316,0.5493055555555556
0.0019491245457548727,0.5493055555555556
0.0019491245457548727,0.5520833333333334
0.001965642550379914,0.5520833333333334
0.001965642550379914,0.5583333333333333
0.0019986785596299967,0.5583333333333333
0.0019986785596299967,0.5597222222222222
0.002015196564255038,0.5597222222222222
0.002015196564255038,0.5611111111111111
0.0020317145688800793,0.5611111111111111
0.0020317145688800793,0.5618055555555556
0.0020482325735051207,0.5618055555555556
0.0020482325735051207,0.5652777777777778
0.002064750578130162,0.5652777777777778
0.002064750578130162,0.5659722222222222
0.0020812685827552033,0.5659722222222222
0.0020812685827552033,0.5673611111111111
0.0020977865873802446,0.5673611111111111
0.0020977865873802446,0.5680555555555555
0.0021308225966303273,0.5680555555555555
0.0021308225966303273,0.5694444444444444
0.002180376610505451,0.5694444444444444
0.002180376610505451,0.5701388888888889
0.002196894615130492,0.5701388888888889
0.002196894615130492,0.5743055555555555
0.0022299306243805748,0.5743055555555555
0.0022299306243805748,0.575
0.002246448629005616,0.575
0.002246448629005616,0.5756944444444444
0.002246448629005616,0.5770833333333333
0.002246448629005616,0.5805555555555556
0.0022794846382556988,0.5805555555555556
0.0022794846382556988,0.58125
0.0023125206475057814,0.58125
0.0023125206475057814,0.5833333333333334
0.0024281466798810702,0.5833333333333334
0.0024281466798810702,0.5847222222222223
0.0024446646845061116,0.5847222222222223
0.0024446646845061116,0.5881944444444445
0.002477700693756194,0.5881944444444445
0.002477700693756194,0.5888888888888889
0.0024942186983812355,0.5888888888888889
0.0024942186983812355,0.5895833333333333
0.0025437727122563595,0.5895833333333333
0.0025437727122563595,0.5909722222222222
0.0025933267261314835,0.5909722222222222
0.0025933267261314835,0.5916666666666667
0.002609844730756525,0.5916666666666667
0.002609844730756525,0.5972222222222222
0.002626362735381566,0.5972222222222222
0.002626362735381566,0.6
0.0026759167492566896,0.6
0.0026759167492566896,0.6020833333333333
0.002692434753881731,0.6020833333333333
0.002692434753881731,0.6048611111111111
0.0027089527585067723,0.6048611111111111
0.0027089527585067723,0.6076388888888888
0.0027585067723818963,0.6076388888888888
0.0027585067723818963,0.6090277777777777
0.0028245787908820616,0.6090277777777777
0.0028245787908820616,0.6097222222222223
0.002857614800132144,0.6097222222222223
0.002857614800132144,0.6125
0.0029567228278823917,0.6125
0.0029567228278823917,0.61875
0.0030062768417575157,0.61875
0.0030062768417575157,0.6215277777777778
0.003022794846382557,0.6215277777777778
0.003022794846382557,0.625
0.0030393128510075983,0.625
0.0030393128510075983,0.6270833333333333
0.0030558308556326397,0.6270833333333333
0.0030558308556326397,0.6284722222222222
0.003072348860257681,0.6284722222222222
0.003072348860257681,0.6305555555555555
0.0030888668648827223,0.6305555555555555
0.0030888668648827223,0.6333333333333333
0.003138420878757846,0.6333333333333333
0.003138420878757846,0.6347222222222222
0.0031714568880079285,0.6347222222222222
0.0031714568880079285,0.6354166666666666
0.00318797489263297,0.6354166666666666
0.00318797489263297,0.6368055555555555
0.003204492897258011,0.6368055555555555
0.003204492897258011,0.6444444444444445
0.0032210109018830525,0.6444444444444445
0.0032210109018830525,0.6458333333333334
0.003254046911133135,0.6458333333333334
0.003254046911133135,0.65
0.0032705649157581764,0.65
0.0032705649157581764,0.6506944444444445
0.0033696729435084244,0.6506944444444445
0.0033696729435084244,0.6520833333333333
0.0033861909481334653,0.6520833333333333
0.0033861909481334653,0.6527777777777778
0.0034027089527585066,0.6527777777777778
0.0034027089527585066,0.6555555555555556
0.003419226957383548,0.6555555555555556
0.003419226957383548,0.65625
0.0034522629666336306,0.65625
0.0034522629666336306,0.6569444444444444
0.003468780971258672,0.6569444444444444
0.003468780971258672,0.6576388888888889
0.003485298975883713,0.6576388888888889
0.003485298975883713,0.6583333333333333
0.0035018169805087545,0.6583333333333333
0.0035018169805087545,0.6597222222222222
0.003518334985133796,0.6597222222222222
0.003518334985133796,0.6625
0.003534852989758837,0.6625
0.003534852989758837,0.6652777777777777
0.0035513709943838785,0.6652777777777777
0.0035513709943838785,0.6666666666666666
0.0036009250082590025,0.6666666666666666
0.0036009250082590025,0.6673611111111111
0.003617443012884044,0.6673611111111111
0.003617443012884044,0.6680555555555555
0.0036669970267591673,0.6680555555555555
0.0036669970267591673,0.6694444444444444
0.0037165510406342913,0.6694444444444444
0.0037165510406342913,0.6708333333333333
0.0037826230591344566,0.6708333333333333
0.0037826230591344566,0.6715277777777777
0.003865213082259663,0.6715277777777777
0.003865213082259663,0.6722222222222223
0.0038982490915097454,0.6722222222222223
0.0038982490915097454,0.6729166666666667
0.003931285100759828,0.6729166666666667
0.003931285100759828,0.6736111111111112
0.0039808391146349525,0.6736111111111112
0.0039808391146349525,0.6743055555555556
0.004013875123885034,0.6743055555555556
0.004013875123885034,0.675
0.004030393128510076,0.675
0.004030393128510076,0.6777777777777778
0.004063429137760159,0.6777777777777778
0.004063429137760159,0.6791666666666667
0.004096465147010241,0.6791666666666667
0.004096465147010241,0.68125
0.004129501156260324,0.68125
0.004129501156260324,0.6833333333333333
0.004228609184010572,0.6833333333333333
0.004228609184010572,0.6840277777777778
0.004245127188635613,0.6840277777777778
0.004245127188635613,0.6854166666666667
0.004294681202510736,0.6854166666666667
0.004294681202510736,0.6861111111111111
0.004311199207135778,0.6861111111111111
0.004311199207135778,0.6875
0.004344235216385861,0.6875
0.004344235216385861,0.6888888888888889
0.004393789230260984,0.6888888888888889
0.004393789230260984,0.6909722222222222
0.004410307234886026,0.6909722222222222
0.004410307234886026,0.6930555555555555
0.004426825239511067,0.6930555555555555
0.004426825239511067,0.6944444444444444
0.004492897258011232,0.6944444444444444
0.004525933267261315,0.6944444444444444
0.004575487281136438,0.6944444444444444
0.004575487281136438,0.6958333333333333
0.00459200528576148,0.6958333333333333
0.00459200528576148,0.6965277777777777
0.004625041295011563,0.6965277777777777
0.004625041295011563,0.6972222222222222
0.004641559299636604,0.6972222222222222
0.004641559299636604,0.6979166666666666
0.0046580773042616454,0.6979166666666666
0.0046580773042616454,0.6986111111111111
0.004740667327386852,0.6986111111111111
0.004740667327386852,0.7013888888888888
0.004773703336636934,0.7013888888888888
0.004773703336636934,0.7020833333333333
0.004806739345887017,0.7020833333333333
0.004806739345887017,0.7034722222222223
0.004823257350512058,0.7034722222222223
0.004823257350512058,0.7041666666666667
0.0048397753551371,0.7041666666666667
0.0048397753551371,0.7055555555555556
0.0048562933597621405,0.7055555555555556
0.0048562933597621405,0.70625
0.004922365378262306,0.70625
0.004922365378262306,0.7069444444444445
0.004955401387512388,0.7069444444444445
0.004955401387512388,0.7090277777777778
0.005004955401387513,0.7090277777777778
0.005004955401387513,0.7104166666666667
0.005021473406012554,0.7104166666666667
0.005021473406012554,0.7118055555555556
0.005071027419887677,0.7118055555555556
0.005071027419887677,0.7131944444444445
0.005087545424512719,0.7131944444444445
0.005087545424512719,0.7138888888888889
0.005120581433762802,0.7138888888888889
0.005120581433762802,0.7152777777777778
0.0051370994383878425,0.7152777777777778
0.0051370994383878425,0.7159722222222222
0.005170135447637925,0.7159722222222222
0.005170135447637925,0.7173611111111111
0.00521968946151305,0.7173611111111111
0.00521968946151305,0.7180555555555556
0.005252725470763132,0.7180555555555556
0.005252725470763132,0.7194444444444444
0.005269243475388173,0.7194444444444444
0.005269243475388173,0.7201388888888889
0.005335315493888338,0.7201388888888889
0.005335315493888338,0.7208333333333333
0.005417905517013545,0.7208333333333333
0.005417905517013545,0.7215277777777778
0.005450941526263627,0.7215277777777778
0.005450941526263627,0.7222222222222222
0.005533531549388833,0.7222222222222222
0.005533531549388833,0.7229166666666667
0.005550049554013875,0.7229166666666667
0.005550049554013875,0.725
0.005566567558638916,0.725
0.005566567558638916,0.7256944444444444
0.005764783614139412,0.7256944444444444
0.005764783614139412,0.7270833333333333
0.0058143376280145355,0.7270833333333333
0.0058143376280145355,0.7284722222222222
0.005830855632639577,0.7284722222222222
0.00586389164188966,0.7284722222222222
0.005913445655764783,0.7284722222222222
0.005913445655764783,0.7291666666666666
0.0059960356788899905,0.7291666666666666
0.0059960356788899905,0.7305555555555555
0.006177733729765445,0.7305555555555555
0.006177733729765445,0.73125
0.006210769739015527,0.73125
0.006210769739015527,0.7326388888888888
0.006227287743640568,0.7326388888888888
0.006227287743640568,0.7333333333333333
0.00624380574826561,0.7333333333333333
0.00624380574826561,0.7340277777777777
0.006260323752890651,0.7340277777777777
0.006260323752890651,0.7347222222222223
0.006276841757515692,0.7347222222222223
0.006276841757515692,0.7354166666666667
0.006309877766765774,0.7354166666666667
0.006309877766765774,0.7361111111111112
0.006475057813016188,0.7361111111111112
0.006475057813016188,0.7388888888888889
0.006524611826891311,0.7388888888888889
0.006524611826891311,0.7416666666666667
0.0065741658407664355,0.7416666666666667
0.0065741658407664355,0.7423611111111111
0.006722827882391807,0.7423611111111111
0.006722827882391807,0.7430555555555556
0.006739345887016849,0.7430555555555556
0.0067723818962669305,0.7430555555555556
0.006788899900891972,0.7430555555555556
0.006788899900891972,0.7444444444444445
0.006838453914767096,0.7444444444444445
0.006838453914767096,0.7451388888888889
0.006970597951767426,0.7451388888888889
0.006970597951767426,0.7458333333333333
0.007020151965642551,0.7458333333333333
0.007036669970267592,0.7465277777777778
0.007069705979517674,0.7465277777777778
0.007069705979517674,0.7472222222222222
0.007119259993392798,0.7472222222222222
0.007119259993392798,0.75
0.007284440039643211,0.75
0.007284440039643211,0.7506944444444444
0.007300958044268252,0.7506944444444444
0.007300958044268252,0.7527777777777778
0.007317476048893294,0.7527777777777778
0.007317476048893294,0.7541666666666667
0.007466138090518665,0.7541666666666667
0.007466138090518665,0.7576388888888889
0.007499174099768748,0.7576388888888889
0.007499174099768748,0.7583333333333333
0.007598282127518996,0.7583333333333333
0.007598282127518996,0.7597222222222222
0.007614800132144037,0.7597222222222222
0.007614800132144037,0.7604166666666666
0.007664354146019161,0.7604166666666666
0.007697390155269244,0.7604166666666666
0.007697390155269244,0.7611111111111111
0.007746944169144367,0.7611111111111111
0.007746944169144367,0.7618055555555555
0.007829534192269574,0.7618055555555555
0.007829534192269574,0.7631944444444444
0.007862570201519656,0.7631944444444444
0.00789560621076974,0.7631944444444444
0.008027750247770069,0.7631944444444444
0.008027750247770069,0.7638888888888888
0.008077304261645194,0.7638888888888888
0.008077304261645194,0.7645833333333333
0.008143376280145359,0.7645833333333333
0.008143376280145359,0.7652777777777777
0.008159894284770399,0.7652777777777777
0.008159894284770399,0.7666666666666667
0.008358110340270895,0.7666666666666667
0.008358110340270895,0.7680555555555556
0.008374628344895937,0.7680555555555556
0.008374628344895937,0.7694444444444445
0.008440700363396102,0.7694444444444445
0.008440700363396102,0.7701388888888889
0.008457218368021144,0.7701388888888889
0.008457218368021144,0.7708333333333334
0.008556326395771391,0.7708333333333334
0.008589362405021473,0.7708333333333334
0.008738024446646845,0.7708333333333334
0.008738024446646845,0.7715277777777778
0.00880409646514701,0.7715277777777778
0.00880409646514701,0.7722222222222223
0.008870168483647176,0.7722222222222223
0.008870168483647176,0.7729166666666667
0.008952758506772383,0.7729166666666667
0.008952758506772383,0.7736111111111111
0.008985794516022464,0.7736111111111111
0.008985794516022464,0.7743055555555556
0.009002312520647506,0.7743055555555556
0.009002312520647506,0.7756944444444445
0.009101420548397753,0.7756944444444445
0.009101420548397753,0.7763888888888889
0.009134456557647837,0.7763888888888889
0.009134456557647837,0.7770833333333333
0.009200528576148002,0.7770833333333333
0.009200528576148002,0.7777777777777778
0.009332672613148331,0.7777777777777778
0.009332672613148331,0.7784722222222222
0.009349190617773373,0.7784722222222222
0.009349190617773373,0.7798611111111111
0.009365708622398414,0.7798611111111111
0.009365708622398414,0.7805555555555556
0.00956392467789891,0.7805555555555556
0.00956392467789891,0.78125
0.00958044268252395,0.78125
0.00958044268252395,0.7819444444444444
0.009712586719524281,0.7819444444444444
0.009712586719524281,0.7826388888888889
0.009778658738024446,0.7826388888888889
0.009778658738024446,0.7854166666666667
0.00981169474727453,0.7854166666666667
0.00981169474727453,0.7861111111111111
0.009844730756524612,0.7861111111111111
0.009844730756524612,0.7868055555555555
0.009861248761149653,0.7868055555555555
0.009861248761149653,0.7875
0.00994383878427486,0.7875
0.00994383878427486,0.7881944444444444
0.01007598282127519,0.7881944444444444
0.01007598282127519,0.7888888888888889
0.010241162867525603,0.7888888888888889
0.010241162867525603,0.7909722222222222
0.010389824909150974,0.7909722222222222
0.010389824909150974,0.7916666666666666
0.010571522960026428,0.7916666666666666
0.010571522960026428,0.79375
0.010621076973901553,0.79375
0.010621076973901553,0.7944444444444444
0.010654112983151635,0.7944444444444444
0.010654112983151635,0.7951388888888888
0.010753221010901884,0.7951388888888888
0.010753221010901884,0.7958333333333333
0.01083581103402709,0.7958333333333333
0.01083581103402709,0.7986111111111112
0.010901883052527254,0.7986111111111112
0.010901883052527254,0.7993055555555556
0.011133135117277832,0.7993055555555556
0.011133135117277832,0.8
0.011166171126527916,0.8
0.011166171126527916,0.8006944444444445
0.011199207135777997,0.8006944444444445
0.011199207135777997,0.8013888888888889
0.011248761149653123,0.8013888888888889
0.011248761149653123,0.8020833333333334
0.011298315163528246,0.8020833333333334
0.011298315163528246,0.8034722222222223
0.011397423191278493,0.8034722222222223
0.011397423191278493,0.8041666666666667
0.011678229269904196,0.8041666666666667
0.011678229269904196,0.8048611111111111
0.011760819293029402,0.8048611111111111
0.011760819293029402,0.8055555555555556
0.011777337297654443,0.8055555555555556
0.011777337297654443,0.80625
0.011909481334654774,0.80625
0.011909481334654774,0.8069444444444445
0.012091179385530228,0.8069444444444445
0.012091179385530228,0.8076388888888889
0.012173769408655435,0.8076388888888889
0.012173769408655435,0.8090277777777778
0.01225635943178064,0.8090277777777778
0.01225635943178064,0.8097222222222222
0.012718863561281797,0.8097222222222222
0.012718863561281797,0.8104166666666667
0.012817971589032045,0.8104166666666667
0.012817971589032045,0.8118055555555556
0.012900561612157252,0.8118055555555556
0.012900561612157252,0.8125
0.013098777667657747,0.8125
0.013098777667657747,0.8138888888888889
0.013214403700033036,0.8138888888888889
0.013214403700033036,0.8145833333333333
0.013280475718533202,0.8145833333333333
0.013280475718533202,0.8152777777777778
0.013412619755533532,0.8152777777777778
0.013412619755533532,0.8159722222222222
0.01351172778328378,0.8159722222222222
0.01351172778328378,0.8166666666666667
0.013842087875784606,0.8166666666666667
0.013842087875784606,0.8173611111111111
0.013858605880409646,0.8173611111111111
0.013858605880409646,0.8180555555555555
0.013908159894284771,0.8180555555555555
0.013908159894284771,0.81875
0.013990749917409976,0.81875
0.013990749917409976,0.8194444444444444
0.01402378592666006,0.8194444444444444
0.01402378592666006,0.8201388888888889
0.014238519986785596,0.8201388888888889
0.014238519986785596,0.8215277777777777
0.014618434093161546,0.8215277777777777
0.014618434093161546,0.8222222222222222
0.014750578130161876,0.8222222222222222
0.014750578130161876,0.8229166666666666
0.014882722167162207,0.8229166666666666
0.014882722167162207,0.8236111111111111
0.014915758176412289,0.8236111111111111
0.014915758176412289,0.8243055555555555
0.015097456227287743,0.8243055555555555
0.015097456227287743,0.825
0.015213082259663033,0.825
0.015213082259663033,0.8256944444444444
0.01531219028741328,0.8256944444444444
0.015345226296663362,0.8256944444444444
0.015361744301288404,0.8256944444444444
0.015361744301288404,0.8263888888888888
0.015642550379914105,0.8263888888888888
0.015642550379914105,0.8270833333333333
0.01567558638916419,0.8270833333333333
0.015708622398414272,0.8270833333333333
0.015741658407664356,0.8270833333333333
0.015741658407664356,0.8277777777777777
0.015857284440039643,0.8277777777777777
0.015857284440039643,0.8284722222222223
0.015873802444664683,0.8284722222222223
0.015873802444664683,0.8291666666666667
0.016038982490915097,0.8291666666666667
0.016038982490915097,0.8298611111111112
0.016187644532540468,0.8298611111111112
0.016187644532540468,0.83125
0.016319788569540798,0.83125
0.016319788569540798,0.8319444444444445
0.016617112652791543,0.8319444444444445
0.016617112652791543,0.8326388888888889
0.01669970267591675,0.8326388888888889
0.01669970267591675,0.8333333333333334
0.016732738685166833,0.8333333333333334
0.016732738685166833,0.8340277777777778
0.01686488272216716,0.8340277777777778
0.01686488272216716,0.8347222222222223
0.01709613478691774,0.8347222222222223
0.01709613478691774,0.8354166666666667
0.017178724810042945,0.8354166666666667
0.017178724810042945,0.8361111111111111
0.017244796828543112,0.8361111111111111
0.017244796828543112,0.8368055555555556
0.01745953088866865,0.8368055555555556
0.01749256689791873,0.8368055555555556
0.017542120911793857,0.8368055555555556
0.017575156921043937,0.8368055555555556
0.01759167492566898,0.8368055555555556
0.01759167492566898,0.8375
0.017806408985794515,0.8375
0.017806408985794515,0.8381944444444445
0.018054179055170136,0.8381944444444445
0.018054179055170136,0.8388888888888889
0.018301949124545754,0.8388888888888889
0.018301949124545754,0.8395833333333333
0.01838453914767096,0.8395833333333333
0.01838453914767096,0.8402777777777778
0.018401057152296004,0.8402777777777778
0.018434093161546084,0.8402777777777778
0.018913115295672283,0.8402777777777778
0.018913115295672283,0.8409722222222222
0.018962669309547407,0.8409722222222222
0.018962669309547407,0.8423611111111111
0.019028741328047574,0.8423611111111111
0.019028741328047574,0.8430555555555556
0.019590353485298976,0.8430555555555556
0.019590353485298976,0.8444444444444444
0.01962338949454906,0.8444444444444444
0.01962338949454906,0.8451388888888889
0.020003303600925008,0.8451388888888889
0.020003303600925008,0.8458333333333333
0.02003633961017509,0.8458333333333333
0.0208787578460522,0.8458333333333333
0.02091179385530228,0.8458333333333333
0.021060455896927652,0.8458333333333333
0.021060455896927652,0.8465277777777778
0.021093491906177732,0.8465277777777778
0.021093491906177732,0.8472222222222222
0.021110009910802776,0.8472222222222222
0.021110009910802776,0.8479166666666667
0.021225635943178063,0.8479166666666667
0.021225635943178063,0.8493055555555555
0.021638586058804095,0.8493055555555555
0.021638586058804095,0.85
0.02165510406342914,0.85
0.02165510406342914,0.8506944444444444
0.02167162206805418,0.8506944444444444
0.02167162206805418,0.8513888888888889
0.021968946151304923,0.8513888888888889
0.021968946151304923,0.8520833333333333
0.02254707631318137,0.8520833333333333
0.02254707631318137,0.8527777777777777
0.022778328377931947,0.8527777777777777
0.022778328377931947,0.8534722222222222
0.022860918401057154,0.8534722222222222
0.022860918401057154,0.8541666666666666
0.02297654443343244,0.8541666666666666
0.02297654443343244,0.8548611111111111
0.02330690452593327,0.8548611111111111
0.02333994053518335,0.8548611111111111
0.023406012553683516,0.8548611111111111
0.023406012553683516,0.8555555555555555
0.023637264618434094,0.8555555555555555
0.023637264618434094,0.85625
0.02395110670630988,0.85625
0.02395110670630988,0.8569444444444444
0.024033696729435085,0.8569444444444444
0.024033696729435085,0.8576388888888888
0.02436405682193591,0.8576388888888888
0.024397092831185994,0.8576388888888888
0.024578790882061448,0.8576388888888888
0.024578790882061448,0.8583333333333333
0.024777006937561942,0.8583333333333333
0.024777006937561942,0.8597222222222223
0.02497522299306244,0.8597222222222223
0.02497522299306244,0.8604166666666667
0.025041295011562603,0.8604166666666667
0.025041295011562603,0.8611111111111112
0.025289065080938224,0.8611111111111112
0.025289065080938224,0.8618055555555556
0.025454245127188635,0.8618055555555556
0.025454245127188635,0.8625
0.025817641228939543,0.8625
0.025817641228939543,0.8631944444444445
0.026197555335315495,0.8631944444444445
0.026197555335315495,0.8638888888888889
0.026280145358440702,0.8638888888888889
0.026280145358440702,0.8645833333333334
0.02639577139081599,0.8645833333333334
0.02639577139081599,0.8652777777777778
0.026627023455566567,0.8652777777777778
0.02666005946481665,0.8652777777777778
0.026957383548067395,0.8652777777777778
0.026990419557317475,0.8652777777777778
0.026990419557317475,0.8659722222222223
0.027122563594317806,0.8659722222222223
0.027122563594317806,0.8666666666666667
0.02717211760819293,0.8666666666666667
0.02717211760819293,0.8673611111111111
0.027188635612817973,0.8673611111111111
0.027188635612817973,0.8680555555555556
0.02778328377931946,0.8680555555555556
0.02778328377931946,0.86875
0.028130161876445327,0.86875
0.028130161876445327,0.8694444444444445
0.028262305913445657,0.8694444444444445
0.028262305913445657,0.8701388888888889
0.028394449950445984,0.8701388888888889
0.028394449950445984,0.8708333333333333
0.029005616121572514,0.8708333333333333
0.029005616121572514,0.8715277777777778
0.029154278163197885,0.8715277777777778
0.029154278163197885,0.8722222222222222
0.029418566237198546,0.8722222222222222
0.029418566237198546,0.8729166666666667
0.029484638255698713,0.8729166666666667
0.029517674264948793,0.8729166666666667
0.0298810703666997,0.8729166666666667
0.0298810703666997,0.8736111111111111
0.02998017839444995,0.8736111111111111
0.02998017839444995,0.8743055555555556
0.030574826560951437,0.8743055555555556
0.030574826560951437,0.875
0.03060786257020152,0.875
0.03060786257020152,0.8756944444444444
0.030657416584076645,0.8756944444444444
0.030657416584076645,0.8763888888888889
0.0314007267922035,0.8763888888888889
0.0314007267922035,0.8770833333333333
0.031417244796828545,0.8770833333333333
0.031450280806078625,0.8770833333333333
0.03148331681532871,0.8770833333333333
0.03148331681532871,0.8777777777777778
0.03149983481995375,0.8777777777777778
0.031532870829203835,0.8777777777777778
0.031863230921704656,0.8777777777777778
0.031863230921704656,0.8784722222222222
0.03202841096795507,0.8784722222222222
0.03202841096795507,0.8791666666666667
0.03209448298645524,0.8791666666666667
0.03209448298645524,0.8798611111111111
0.03221010901883053,0.8798611111111111
0.03221010901883053,0.8805555555555555
0.032309217046580775,0.8805555555555555
0.032309217046580775,0.88125
0.03255698711595639,0.88125
0.03255698711595639,0.8819444444444444
0.03275520317145689,0.8819444444444444
0.03275520317145689,0.8826388888888889
0.033118599273207795,0.8826388888888889
0.033118599273207795,0.8833333333333333
0.033828873472084575,0.8833333333333333
0.033861909481334655,0.8833333333333333
0.033894945490584735,0.8833333333333333
0.033894945490584735,0.8840277777777777
0.034258341592335644,0.8840277777777777
0.034258341592335644,0.8847222222222222
0.03488602576808721,0.8847222222222222
0.03488602576808721,0.8854166666666666
0.035150313842087874,0.8854166666666666
0.035150313842087874,0.8861111111111111
0.03546415592996366,0.8861111111111111
0.035497191939213746,0.8861111111111111
0.03587710604558969,0.8861111111111111
0.03587710604558969,0.8868055555555555
0.03610835811034027,0.8868055555555555
0.03610835811034027,0.8875
0.036488272216716224,0.8875
0.036488272216716224,0.8881944444444444
0.036554344235216384,0.8881944444444444
0.036554344235216384,0.8888888888888888
0.03673604228609184,0.8888888888888888
0.03673604228609184,0.8895833333333333
0.03686818632309217,0.8895833333333333
0.03686818632309217,0.8902777777777777
0.03805748265609515,0.8902777777777777
0.03805748265609515,0.8909722222222223
0.038305252725470765,0.8909722222222223
0.038305252725470765,0.8916666666666667
0.038371324743970925,0.8916666666666667
0.038371324743970925,0.8923611111111112
0.03847043277172118,0.8923611111111112
0.03847043277172118,0.8930555555555556
0.0385199867855963,0.8930555555555556
0.0385199867855963,0.89375
0.038569540799471426,0.89375
0.038569540799471426,0.8944444444444445
0.03901552692434754,0.8944444444444445
0.039048562933597625,0.8944444444444445
0.03961017509084903,0.8944444444444445
0.03961017509084903,0.8951388888888889
0.04005616121572514,0.8951388888888889
0.04005616121572514,0.8965277777777778
0.040485629335976214,0.8965277777777778
0.040485629335976214,0.8972222222222223
0.04050214734060126,0.8972222222222223
0.04050214734060126,0.8979166666666667
0.040667327386851665,0.8979166666666667
0.040667327386851665,0.8986111111111111
0.04070036339610175,0.8986111111111111
0.04070036339610175,0.8993055555555556
0.040799471423852,0.8993055555555556
0.040799471423852,0.9
0.04103072348860258,0.9
0.04103072348860258,0.9006944444444445
0.04162537165510406,0.9006944444444445
0.04162537165510406,0.9013888888888889
0.04236868186323092,0.9013888888888889
0.04236868186323092,0.9020833333333333
0.043194582094482986,0.9020833333333333
0.043194582094482986,0.9027777777777778
0.043227618103733066,0.9027777777777778
0.043227618103733066,0.9034722222222222
0.04331020812685828,0.9034722222222222
0.04334324413610836,0.9034722222222222
0.04350842418235877,0.9034722222222222
0.04350842418235877,0.9041666666666667
0.043673604228609185,0.9041666666666667
0.043706640237859265,0.9041666666666667
0.04398744631648497,0.9041666666666667
0.04402048232573505,0.9041666666666667
0.04426825239511067,0.9041666666666667
0.04426825239511067,0.9048611111111111
0.04446646845061117,0.9048611111111111
0.04446646845061117,0.9055555555555556
0.04458209448298645,0.9055555555555556
0.04458209448298645,0.90625
0.04540799471423852,0.90625
0.04540799471423852,0.9069444444444444
0.04547406673273868,0.9069444444444444
0.04547406673273868,0.9076388888888889
0.04550710274198877,0.9076388888888889
0.04550710274198877,0.9083333333333333
0.04628344895936571,0.9083333333333333
0.04631648496861579,0.9083333333333333
0.04694416914436736,0.9083333333333333
0.04694416914436736,0.9097222222222222
0.0471589032044929,0.9097222222222222
0.0471589032044929,0.9104166666666667
0.04720845721836802,0.9104166666666667
0.04720845721836802,0.9111111111111111
0.047637925338619096,0.9111111111111111
0.047637925338619096,0.9118055555555555
0.04808391146349521,0.9118055555555555
0.04808391146349521,0.9125
0.04887677568549719,0.9125
0.04887677568549719,0.9131944444444444
0.049339279814998346,0.9131944444444444
0.049339279814998346,0.9138888888888889
0.050082590023125206,0.9138888888888889
0.050082590023125206,0.9145833333333333
0.0502808060786257,0.9145833333333333
0.0502808060786257,0.9152777777777777
0.051850016518004624,0.9152777777777777
0.051850016518004624,0.9159722222222222
0.052510736703006274,0.9159722222222222
0.05254377271225636,0.9159722222222222
0.05292368681863231,0.9159722222222222
0.05292368681863231,0.9166666666666666
0.0533201189296333,0.9166666666666666
0.0533201189296333,0.9173611111111111
0.05365047902213413,0.9173611111111111
0.05365047902213413,0.9180555555555555
0.05376610505450941,0.9180555555555555
0.0537991410637595,0.9180555555555555
0.054377271225635945,0.9180555555555555
0.054377271225635945,0.91875
0.05442682523951107,0.91875
0.05442682523951107,0.9194444444444444
0.054922365378262304,0.9194444444444444
0.05495540138751239,0.9194444444444444
0.055335315493888336,0.9194444444444444
0.055335315493888336,0.9201388888888888
0.057069705979517674,0.9201388888888888
0.057069705979517674,0.9208333333333333
0.05731747604889329,0.9208333333333333
0.05735051205814338,0.9208333333333333
0.05746613809051866,0.9208333333333333
0.05749917409976875,0.9208333333333333
0.05820944829864552,0.9208333333333333
0.05820944829864552,0.9215277777777777
0.05860588040964652,0.9215277777777777
0.0586389164188966,0.9215277777777777
0.059927320779649816,0.9215277777777777
0.059927320779649816,0.9222222222222223
0.060290716881400724,0.9222222222222223
0.060290716881400724,0.9229166666666667
0.06205814337628014,0.9229166666666667
0.06209117938553023,0.9229166666666667
0.06379253386190949,0.9229166666666667
0.06379253386190949,0.9236111111111112
0.06455236207466138,0.9236111111111112
0.06458539808391146,0.9236111111111112
0.06468450611166171,0.9236111111111112
0.0647175421209118,0.9236111111111112
0.0659233564585398,0.9236111111111112
0.06595639246778989,0.9236111111111112
0.06622068054179055,0.9236111111111112
0.06622068054179055,0.9243055555555556
0.06636934258341592,0.9243055555555556
0.06640237859266601,0.9243055555555556
0.06643541460191608,0.9243055555555556
0.06643541460191608,0.925
0.06693095474066733,0.925
0.06694747274529236,0.9256944444444445
0.06838453914767097,0.9256944444444445
0.06838453914767097,0.9270833333333334
0.06952428146679882,0.9270833333333334
0.06955731747604889,0.9270833333333334
0.07000330360092501,0.9270833333333334
0.07000330360092501,0.9277777777777778
0.07001982160555005,0.9277777777777778
0.07001982160555005,0.9284722222222223
0.07099438387842749,0.9284722222222223
0.07099438387842749,0.9291666666666667
0.07173769408655434,0.9291666666666667
0.07173769408655434,0.9298611111111111
0.0722001982160555,0.9298611111111111
0.07223323422530559,0.9298611111111111
0.07254707631318137,0.9298611111111111
0.07254707631318137,0.9305555555555556
0.0730756524611827,0.9305555555555556
0.07310868847043277,0.9305555555555556
0.07479352494218698,0.9305555555555556
0.07479352494218698,0.93125
0.07510736703006277,0.93125
0.07514040303931285,0.93125
0.07525602907168814,0.93125
0.07528906508093822,0.93125
0.07538817310868846,0.93125
0.07538817310868846,0.9319444444444445
0.07641228939544104,0.9319444444444445
0.07641228939544104,0.9326388888888889
0.07748595969606871,0.9326388888888889
0.0775189957053188,0.9326388888888889
0.07794846382556987,0.9326388888888889
0.07794846382556987,0.9333333333333333
0.08247439709283119,0.9333333333333333
0.08250743310208127,0.9333333333333333
0.0833994053518335,0.9333333333333333
0.0833994053518335,0.9340277777777778
0.08511727783283779,0.9340277777777778
0.08511727783283779,0.9347222222222222
0.0856788899900892,0.9347222222222222
0.0856788899900892,0.9354166666666667
0.08769408655434424,0.9354166666666667
0.08769408655434424,0.9361111111111111
0.0880409646514701,0.9361111111111111
0.0880409646514701,0.9368055555555556
0.08914767096134787,0.9368055555555556
0.08914767096134787,0.9375
0.08937892302609844,0.9375
0.08937892302609844,0.9381944444444444
0.08989098116947472,0.9381944444444444
0.08989098116947472,0.9388888888888889
0.09045259332672613,0.9388888888888889
0.09045259332672613,0.9395833333333333
0.09070036339610175,0.9395833333333333
0.09070036339610175,0.9402777777777778
0.09230260984473075,0.9402777777777778
0.09230260984473075,0.9409722222222222
0.09233564585398084,0.9409722222222222
0.09236868186323093,0.9409722222222222
0.09255037991410638,0.9409722222222222
0.09255037991410638,0.9416666666666667
0.09289725801123225,0.9416666666666667
0.09289725801123225,0.9423611111111111
0.0929963660389825,0.9423611111111111
0.0929963660389825,0.9430555555555555
0.09400396432111001,0.9430555555555555
0.0940370003303601,0.9430555555555555
0.09444995044598613,0.9430555555555555
0.0944829864552362,0.9430555555555555
0.09463164849686158,0.9430555555555555
0.09463164849686158,0.94375
0.09482986455236207,0.94375
0.09486290056161216,0.94375
0.09542451271886356,0.94375
0.09545754872811364,0.94375
0.09649818301949124,0.94375
0.09653121902874133,0.94375
0.09917409976874794,0.94375
0.09917409976874794,0.9444444444444444
0.09963660389824909,0.9444444444444444
0.09963660389824909,0.9451388888888889
0.10090849025437727,0.9451388888888889
0.10090849025437727,0.9458333333333333
0.10153617443012884,0.9458333333333333
0.10156921043937893,0.9458333333333333
0.10277502477700694,0.9458333333333333
0.10280806078625702,0.9458333333333333
0.10285761480013214,0.9458333333333333
0.10285761480013214,0.9465277777777777
0.10302279484638256,0.9465277777777777
0.10302279484638256,0.9472222222222222
0.103600925008259,0.9472222222222222
0.103600925008259,0.9479166666666666
0.10363396101750909,0.9479166666666666
0.10366699702675916,0.9479166666666666
0.10422860918401057,0.9479166666666666
0.10426164519326066,0.9479166666666666
0.10462504129501156,0.9479166666666666
0.10465807730426165,0.9479166666666666
0.10523620746613808,0.9479166666666666
0.10523620746613808,0.9486111111111111
0.10626032375289066,0.9486111111111111
0.10629335976214073,0.9486111111111111
0.10688800792864223,0.9486111111111111
0.10688800792864223,0.9493055555555555
0.10824248430789561,0.9493055555555555
0.10824248430789561,0.95
0.10845721836802115,0.95
0.10849025437727122,0.95
0.11052196894615131,0.95
0.11055500495540138,0.95
0.1118764453254047,0.95
0.11190948133465477,0.95
0.11220680541790552,0.95
0.1122398414271556,0.95
0.11309877766765775,0.95
0.11311529567228279,0.9506944444444444
0.11344565576478362,0.9506944444444444
0.11344565576478362,0.9513888888888888
0.11347869177403369,0.9513888888888888
0.11347869177403369,0.9520833333333333
0.11359431780640898,0.9520833333333333
0.11359431780640898,0.9527777777777777
0.11389164188965972,0.9527777777777777
0.11392467789890981,0.9527777777777777
0.11433762801453584,0.9527777777777777
0.11437066402378593,0.9527777777777777
0.11453584407003634,0.9527777777777777
0.11453584407003634,0.9534722222222223
0.11547737033366369,0.9534722222222223
0.11547737033366369,0.9541666666666667
0.11633630657416584,0.9541666666666667
0.11636934258341593,0.9541666666666667
0.11704658077304261,0.9541666666666667
0.11704658077304261,0.9548611111111112
0.11717872481004295,0.9548611111111112
0.11717872481004295,0.9555555555555556
0.11759167492566898,0.9555555555555556
0.11762471093491907,0.9555555555555556
0.11825239511067064,0.9555555555555556
0.11825239511067064,0.95625
0.1190782953419227,0.95625
0.11911133135117277,0.95625
0.11937561942517344,0.95625
0.11940865543442353,0.95625
0.11988767756854972,0.95625
0.1199207135777998,0.95625
0.12096134786917741,0.95625
0.12099438387842748,0.95625
0.12129170796167824,0.95625
0.12129170796167824,0.9569444444444445
0.12132474397092831,0.9569444444444445
0.12132474397092831,0.9576388888888889
0.1229600264288074,0.9576388888888889
0.12299306243805748,0.9576388888888889
0.12314172447968286,0.9576388888888889
0.12317476048893293,0.9576388888888889
0.12388503468780972,0.9576388888888889
0.12391807069705979,0.9576388888888889
0.1266435414601916,0.9576388888888889
0.1266765774694417,0.9576388888888889
0.129996696399075,0.9576388888888889
0.13002973240832508,0.9576388888888889
0.13050875454245128,0.9576388888888889
0.13050875454245128,0.9583333333333334
0.13098777667657746,0.9583333333333334
0.13102081268582755,0.9583333333333334
0.13173108688470433,0.9583333333333334
0.13176412289395442,0.9583333333333334
0.13191278493557979,0.9583333333333334
0.13191278493557979,0.9597222222222223
0.13270564915758176,0.9597222222222223
0.13273868516683185,0.9597222222222223
0.13313511727783284,0.9597222222222223
0.13313511727783284,0.9604166666666667
0.13445655764783615,0.9604166666666667
0.13445655764783615,0.9611111111111111
0.1354806739345887,0.9611111111111111
0.1355137099438388,0.9611111111111111
0.1362074661380905,0.9611111111111111
0.1362405021473406,0.9611111111111111
0.1369177403369673,0.9611111111111111
0.13695077634621738,0.9611111111111111
0.13701684836471753,0.9611111111111111
0.13704988437396762,0.9611111111111111
0.13718202841096797,0.9611111111111111
0.13721506442021802,0.9611111111111111
0.13985794516022465,0.9611111111111111
0.13989098116947474,0.9611111111111111
0.1408820614469772,0.9611111111111111
0.1409150974562273,0.9611111111111111
0.14126197555335315,0.9611111111111111
0.14129501156260324,0.9611111111111111
0.14243475388173107,0.9611111111111111
0.14243475388173107,0.9618055555555556
0.14293029402048232,0.9618055555555556
0.1429633300297324,0.9618055555555556
0.14466468450611167,0.9618055555555556
0.14469772051536176,0.9618055555555556
0.14481334654773703,0.9618055555555556
0.14484638255698712,0.9618055555555556
0.14499504459861248,0.9618055555555556
0.14502808060786257,0.9618055555555556
0.14520977865873802,0.9618055555555556
0.14520977865873802,0.9625
0.14694416914436736,0.9625
0.14697720515361745,0.9625
0.14739015526924348,0.9625
0.14739015526924348,0.9631944444444445
0.14742319127849357,0.9631944444444445
0.14742319127849357,0.9638888888888889
0.14770399735711925,0.9638888888888889
0.14770399735711925,0.9645833333333333
0.14798480343574497,0.9645833333333333
0.14798480343574497,0.9652777777777778
0.1490749917409977,0.9652777777777778
0.1490749917409977,0.9659722222222222
0.1491245457548728,0.9659722222222222
0.1491575817641229,0.9659722222222222
0.14920713577799802,0.9659722222222222
0.1492401717872481,0.9659722222222222
0.15166831846712917,0.9659722222222222
0.15170135447637925,0.9659722222222222
0.1537991410637595,0.9659722222222222
0.15383217707300958,0.9659722222222222
0.1548397753551371,0.9659722222222222
0.1548397753551371,0.9666666666666667
0.15485629335976214,0.9666666666666667
0.15488932936901223,0.9666666666666667
0.15528576148001322,0.9666666666666667
0.1553187974892633,0.9666666666666667
0.1572844400396432,0.9666666666666667
0.1573174760488933,0.9666666666666667
0.15746613809051865,0.9666666666666667
0.15749917409976874,0.9666666666666667
0.15830855632639576,0.9666666666666667
0.15834159233564585,0.9666666666666667
0.15888668648827223,0.9666666666666667
0.1589197224975223,0.9666666666666667
0.16110009910802775,0.9666666666666667
0.16110009910802775,0.9673611111111111
0.1613148331681533,0.9673611111111111
0.1613148331681533,0.9680555555555556
0.16478361413941195,0.9680555555555556
0.16481665014866204,0.9680555555555556
0.1658407664354146,0.9680555555555556
0.16587380244466468,0.9680555555555556
0.16589032044928972,0.9680555555555556
0.16590683845391477,0.96875
0.16620416253716552,0.96875
0.16623719854641558,0.96875
0.16641889659729106,0.96875
0.16645193260654112,0.96875
0.16848364717542122,0.96875
0.16851668318467128,0.96875
0.16899570531879748,0.96875
0.16902874132804757,0.96875
0.16972249752229931,0.96875
0.1697555335315494,0.96875
0.16990419557317477,0.96875
0.16990419557317477,0.9694444444444444
0.17142385199867857,0.9694444444444444
0.17142385199867857,0.9701388888888889
0.17158903204492898,0.9701388888888889
0.17158903204492898,0.9708333333333333
0.17338949454905847,0.9708333333333333
0.17342253055830856,0.9708333333333333
0.17370333663693427,0.9708333333333333
0.17370333663693427,0.9715277777777778
0.17593326726131484,0.9715277777777778
0.17596630327056492,0.9715277777777778
0.1772712256359432,0.9715277777777778
0.17730426164519325,0.9715277777777778
0.177601585728444,0.9715277777777778
0.1776346217376941,0.9715277777777778
0.17804757185332012,0.9715277777777778
0.1780806078625702,0.9715277777777778
0.1792368681863231,0.9715277777777778
0.17926990419557318,0.9715277777777778
0.18343244136108358,0.9715277777777778
0.18343244136108358,0.9722222222222222
0.1870829203832177,0.9722222222222222
0.18711595639246778,0.9722222222222222
0.1882061446977205,0.9722222222222222
0.1882061446977205,0.9729166666666667
0.18941195903534852,0.9729166666666667
0.18941195903534852,0.9736111111111111
0.19041955731747606,0.9736111111111111
0.19045259332672612,0.9736111111111111
0.19321110009910802,0.9736111111111111
0.1932441361083581,0.9736111111111111
0.19377271225635942,0.9736111111111111
0.19382226627023455,0.9736111111111111
0.1952428146679881,0.9736111111111111
0.1952428146679881,0.9743055555555555
0.1953584407003634,0.9743055555555555
0.1953914767096135,0.9743055555555555
0.1960356788899901,0.9743055555555555
0.1960356788899901,0.975
0.198397753551371,0.975
0.19843078956062107,0.975
0.20077634621737694,0.975
0.20080938222662703,0.975
0.2011562603237529,0.975
0.20118929633300298,0.975
0.2012884043607532,0.975
0.2013214403700033,0.975
0.20181698050875455,0.975
0.20185001651800463,0.975
0.20350181698050876,0.975
0.20353485298975885,0.975
0.20374958704988438,0.975
0.20374958704988438,0.9756944444444444
0.20376610505450943,0.9756944444444444
0.2037991410637595,0.9756944444444444
0.20386521308225966,0.9756944444444444
0.20386521308225966,0.9763888888888889
0.20640898579451603,0.9763888888888889
0.20640898579451603,0.9770833333333333
0.2065576478361414,0.9770833333333333
0.2065576478361414,0.9777777777777777
0.20733399405351832,0.9777777777777777
0.2073670300627684,0.9777777777777777
0.2082424843078956,0.9777777777777777
0.2082755203171457,0.9777777777777777
0.208407664354146,0.9777777777777777
0.2084407003633961,0.9777777777777777
0.2085563263957714,0.9777777777777777
0.20858936240502146,0.9777777777777777
0.20878757846052196,0.9777777777777777
0.20878757846052196,0.9784722222222222
0.20901883052527254,0.9784722222222222
0.20906838453914767,0.9784722222222222
0.21024116286752562,0.9784722222222222
0.21027419887677568,0.9784722222222222
0.21078625702015197,0.9784722222222222
0.21078625702015197,0.9791666666666666
0.21124876114965313,0.9791666666666666
0.21126527915427817,0.9798611111111111
0.2153947803105385,0.9798611111111111
0.21542781631978858,0.9798611111111111
0.21551040634291377,0.9798611111111111
0.21554344235216386,0.9798611111111111
0.21987115956392467,0.9798611111111111
0.21987115956392467,0.9805555555555555
0.22266270234555666,0.9805555555555555
0.22269573835480674,0.9805555555555555
0.22279484638255698,0.9805555555555555
0.22282788239180706,0.9805555555555555
0.22538817310868847,0.9805555555555555
0.22542120911793856,0.9805555555555555
0.22542120911793856,0.98125
0.22573505120581433,0.98125
0.22576808721506442,0.98125
0.22614800132144036,0.98125
0.22614800132144036,0.9819444444444444
0.22654443343244135,0.9819444444444444
0.22657746944169144,0.9819444444444444
0.22694086554344234,0.9819444444444444
0.22694086554344234,0.9826388888888888
0.2277172117608193,0.9826388888888888
0.2277502477700694,0.9826388888888888
0.2282457879088206,0.9826388888888888
0.2282788239180707,0.9826388888888888
0.22994714238519987,0.9826388888888888
0.22998017839444995,0.9826388888888888
0.23031053848695077,0.9826388888888888
0.23034357449620085,0.9826388888888888
0.232804757185332,0.9826388888888888
0.2328377931945821,0.9826388888888888
0.23305252725470763,0.9826388888888888
0.2330855632639577,0.9826388888888888
0.23330029732408325,0.9826388888888888
0.23333333333333334,0.9826388888888888
0.23518334985133796,0.9826388888888888
0.23521638586058805,0.9826388888888888
0.23637264618434092,0.9826388888888888
0.236405682193591,0.9826388888888888
0.23946151304922367,0.9826388888888888
0.23946151304922367,0.9833333333333333
0.24038652130822596,0.9833333333333333
0.24041955731747605,0.9833333333333333
0.24155929963660389,0.9833333333333333
0.24159233564585397,0.9833333333333333
0.24217046580773044,0.9833333333333333
0.2422035018169805,0.9833333333333333
0.2429963660389825,0.9833333333333333
0.2429963660389825,0.9840277777777777
0.24377271225635944,0.9840277777777777
0.24380574826560952,0.9840277777777777
0.24661380905186653,0.9840277777777777
0.24664684506111662,0.9840277777777777
0.24666336306574166,0.9840277777777777
0.24669639907499175,0.9840277777777777
0.24719193921374297,0.9840277777777777
0.24719193921374297,0.9847222222222223
0.2526428807400066,0.9847222222222223
0.2526428807400066,0.9854166666666667
0.25333663693425834,0.9854166666666667
0.25336967294350843,0.9854166666666667
0.2535183349851338,0.9854166666666667
0.25355137099438385,0.9854166666666667
0.25358440700363394,0.9854166666666667
0.253617443012884,0.9854166666666667
0.25432771721176084,0.9854166666666667
0.25432771721176084,0.9861111111111112
0.2549554013875124,0.9861111111111112
0.25498843739676247,0.9861111111111112
0.25523620746613807,0.9861111111111112
0.25526924347538815,0.9861111111111112
0.25586389164188966,0.9861111111111112
0.25589692765113975,0.9861111111111112
0.2578130161876445,0.9861111111111112
0.2578460521968946,0.9861111111111112
0.25834159233564585,0.9861111111111112
0.25837462834489594,0.9861111111111112
0.25969606871489925,0.9861111111111112
0.25972910472414934,0.9861111111111112
0.260009910802775,0.9861111111111112
0.260009910802775,0.9868055555555556
0.2601090188305253,0.9868055555555556
0.26014205483977537,0.9868055555555556
0.2609514370664024,0.9868055555555556
0.2609844730756525,0.9868055555555556
0.26275189957053185,0.9868055555555556
0.26278493557978194,0.9868055555555556
0.26658407664354145,0.9868055555555556
0.26661711265279153,0.9868055555555556
0.2673108688470433,0.9868055555555556
0.2673108688470433,0.9875
0.26863230921704656,0.9875
0.26866534522629665,0.9875
0.26899570531879746,0.9875
0.26902874132804755,0.9875
0.27373637264618433,0.9875
0.2737694086554344,0.9875
0.2740502147340601,0.9875
0.2740502147340601,0.9881944444444445
0.2748265609514371,0.9881944444444445
0.2748595969606871,0.9881944444444445
0.2758837132474397,0.9881944444444445
0.2759167492566898,0.9881944444444445
0.276395771390816,0.9881944444444445
0.2764288074000661,0.9881944444444445
0.27804757185332013,0.9881944444444445
0.2780806078625702,0.9881944444444445
0.2818797489263297,0.9881944444444445
0.2819127849355798,0.9881944444444445
0.2831020812685828,0.9881944444444445
0.28313511727783286,0.9881944444444445
0.28490254377271224,0.9881944444444445
0.2849355797819623,0.9881944444444445
0.2850346878097126,0.9881944444444445
0.28506772381896267,0.9881944444444445
0.28513379583746284,0.9881944444444445
0.28516683184671293,0.9881944444444445
0.2887182028410968,0.9881944444444445
0.28875123885034687,0.9881944444444445
0.2889990089197225,0.9881944444444445
0.28903204492897255,0.9881944444444445
0.2918731417244797,0.9881944444444445
0.2919061777337298,0.9881944444444445
0.2929137760158573,0.9881944444444445
0.2929137760158573,0.9888888888888889
0.29360753221010905,0.9888888888888889
0.2936405682193591,0.9888888888888889
0.29403700033036007,0.9888888888888889
0.29407003633961015,0.9888888888888889
0.29669639907499173,0.9888888888888889
0.2967294350842418,0.9888888888888889
0.29677898909811695,0.9888888888888889
0.29681202510736704,0.9888888888888889
0.2982160555004955,0.9888888888888889
0.2982490915097456,0.9888888888888889
0.298397753551371,0.9888888888888889
0.298397753551371,0.9895833333333334
0.3007763462173769,0.9895833333333334
0.300809382226627,0.9895833333333334
0.30209778658738023,0.9895833333333334
0.3021308225966303,0.9895833333333334
0.3023455566567559,0.9895833333333334
0.302378592666006,0.9895833333333334
0.30239511067063096,0.9895833333333334
0.30239511067063096,0.9902777777777778
0.3057317476048893,0.9902777777777778
0.3057647836141394,0.9902777777777778
0.30597951767426496,0.9902777777777778
0.30601255368351504,0.9902777777777778
0.3066402378592666,0.9902777777777778
0.30667327386851667,0.9902777777777778
0.30822596630327054,0.9902777777777778
0.3082590023125206,0.9902777777777778
0.30837462834489593,0.9902777777777778
0.308407664354146,0.9902777777777778
0.30878757846052196,0.9902777777777778
0.30878757846052196,0.9909722222222223
0.3101255368351503,0.9909722222222223
0.3101585728444004,0.9909722222222223
0.3129666336306574,0.9909722222222223
0.3129996696399075,0.9909722222222223
0.31306574165840767,0.9909722222222223
0.31309877766765776,0.9909722222222223
0.3136603898249091,0.9909722222222223
0.3136934258341592,0.9909722222222223
0.3178889990089197,0.9909722222222223
0.3179220350181698,0.9909722222222223
0.31846712917079617,0.9909722222222223
0.31850016518004626,0.9909722222222223
0.32101090188305254,0.9909722222222223
0.3210439378923026,0.9909722222222223
0.3211430459200529,0.9909722222222223
0.3211760819293029,0.9909722222222223
0.3238024446646845,0.9909722222222223
0.3238354806739346,0.9909722222222223
0.3253716551040634,0.9909722222222223
0.3254046911133135,0.9909722222222223
0.3276346217376941,0.9909722222222223
0.3276676577469442,0.9909722222222223
0.3282292699041956,0.9909722222222223
0.32826230591344563,0.9909722222222223
0.3284770399735712,0.9909722222222223
0.3285100759828213,0.9909722222222223
0.3294020482325735,0.9909722222222223
0.3294350842418236,0.9909722222222223
0.32981499834819955,0.9909722222222223
0.32984803435744964,0.9909722222222223
0.33225966303270565,0.9909722222222223
0.33229269904195574,0.9909722222222223
0.33298645523620746,0.9909722222222223
0.33301949124545754,0.9909722222222223
0.33637264618434093,0.9909722222222223
0.33637264618434093,0.9916666666666667
0.33845391476709613,0.9916666666666667
0.3384869507763462,0.9916666666666667
0.3401222332342253,0.9916666666666667
0.3401552692434754,0.9916666666666667
0.34017178724810043,0.9916666666666667
0.3402048232573505,0.9916666666666667
0.3414106375949785,0.9916666666666667
0.3414436736042286,0.9916666666666667
0.3416914436736042,0.9916666666666667
0.3417244796828543,0.9916666666666667
0.3425668979187314,0.9916666666666667
0.3425668979187314,0.9923611111111111
0.34354146019160886,0.9923611111111111
0.34357449620085895,0.9923611111111111
0.3438718202841097,0.9923611111111111
0.34390485629335976,0.9923611111111111
0.34582094482986453,0.9923611111111111
0.3458539808391146,0.9923611111111111
0.34593657086223983,0.9923611111111111
0.3459696068714899,0.9923611111111111
0.34852989758837133,0.9923611111111111
0.3485629335976214,0.9923611111111111
0.3517343904856293,0.9923611111111111
0.3517674264948794,0.9923611111111111
0.3542781631978857,0.9923611111111111
0.3543111992071358,0.9923611111111111
0.3552362074661381,0.9923611111111111
0.3553022794846383,0.9923611111111111
0.35586389164188964,0.9923611111111111
0.3558969276511397,0.9923611111111111
0.35609514370664025,0.9923611111111111
0.35612817971589034,0.9923611111111111
0.3563594317806409,0.9923611111111111
0.356392467789891,0.9923611111111111
0.3570201519656426,0.9923611111111111
0.35705318797489266,0.9923611111111111
0.35809382226627023,0.9923611111111111
0.3581268582755203,0.9923611111111111
0.36110009910802776,0.9923611111111111
0.36113313511727785,0.9923611111111111
0.3619094813346548,0.9923611111111111
0.36194251734390487,0.9923611111111111
0.362784935579782,0.9923611111111111
0.36281797158903206,0.9923611111111111
0.3646184340931615,0.9923611111111111
0.3646514701024116,0.9923611111111111
0.36478361413941196,0.9923611111111111
0.36481665014866205,0.9923611111111111
0.3649818301949125,0.9923611111111111
0.3650148662041625,0.9923611111111111
0.3659233564585398,0.9923611111111111
0.3659563924677899,0.9923611111111111
0.36602246448629006,0.9923611111111111
0.36605550049554014,0.9923611111111111
0.3666831846712917,0.9923611111111111
0.36671622068054177,0.9923611111111111
0.36698050875454247,0.9923611111111111
0.36698050875454247,0.9930555555555556
0.36919392137429796,0.9930555555555556
0.36922695738354805,0.9930555555555556
0.3715229600264288,0.9930555555555556
0.3715559960356789,0.9930555555555556
0.3748761149653122,0.9930555555555556
0.3749091509745623,0.9930555555555556
0.37601585728444004,0.9930555555555556
0.3760488932936901,0.9930555555555556
0.37621407333994056,0.9930555555555556
0.37624710934919064,0.9930555555555556
0.3777172117608193,0.9930555555555556
0.3777502477700694,0.9930555555555556
0.377998017839445,0.9930555555555556
0.37803105384869506,0.9930555555555556
0.3785265939874463,0.9930555555555556
0.3785596299966964,0.9930555555555556
0.379616782292699,0.9930555555555556
0.3796498183019491,0.9930555555555556
0.380393128510076,0.9930555555555556
0.38042616451932604,0.9930555555555556
0.3804592005285761,0.9930555555555556
0.3804922365378262,0.9930555555555556
0.38141724479682854,0.9930555555555556
0.3814502808060786,0.9930555555555556
0.38146679881070367,0.9930555555555556
0.38149983481995375,0.9930555555555556
0.3817310868847043,0.9930555555555556
0.3817641228939544,0.9930555555555556
0.38318467129170797,0.9930555555555556
0.38321770730095805,0.9930555555555556
0.38338288734720843,0.9930555555555556
0.3834159233564585,0.9930555555555556
0.3836306574165841,0.9930555555555556
0.3836636934258342,0.9930555555555556
0.3851337958374628,0.9930555555555556
0.3851668318467129,0.9930555555555556
0.38795837462834487,0.9930555555555556
0.38799141063759496,0.9930555555555556
0.389990089197225,0.9930555555555556
0.3900231252064751,0.9930555555555556
0.390386521308226,0.9930555555555556
0.3904195573174761,0.9930555555555556
0.39580442682523953,0.9930555555555556
0.3958374628344896,0.9930555555555556
0.39613478691774034,0.9930555555555556
0.39616782292699043,0.9930555555555556
0.397208457218368,0.9930555555555556
0.3972414932276181,0.9930555555555556
0.39767096134786917,0.9930555555555556
0.39770399735711925,0.9930555555555556
0.3978031053848695,0.9930555555555556
0.3978031053848695,0.99375
0.4046250412950116,0.99375
0.4046580773042616,0.99375
0.40518665345226296,0.99375
0.40521968946151304,0.99375
0.4063263957713908,0.99375
0.4063594317806409,0.99375
0.4081929302940205,0.99375
0.40822596630327057,0.99375
0.4098777667657747,0.99375
0.4098777667657747,0.9944444444444445
0.41088536504790224,0.9944444444444445
0.41091840105715227,0.9944444444444445
0.41129831516352827,0.9944444444444445
0.41134786917740335,0.9944444444444445
0.41233894945490585,0.9944444444444445
0.41237198546415593,0.9944444444444445
0.4126858275520317,0.9944444444444445
0.4127188635612818,0.9944444444444445
0.41402378592666006,0.9944444444444445
0.41405682193591015,0.9944444444444445
0.4175090849025438,0.9944444444444445
0.4175421209117939,0.9944444444444445
0.42044928972580115,0.9944444444444445
0.42048232573505123,0.9944444444444445
0.4237198546415593,0.9944444444444445
0.4237528906508094,0.9944444444444445
0.4244466468450611,0.9944444444444445
0.4244796828543112,0.9944444444444445
0.4245622728774364,0.9944444444444445
0.4245953088866865,0.9944444444444445
0.42730426164519325,0.9944444444444445
0.42733729765444334,0.9944444444444445
0.42796498183019493,0.9944444444444445
0.427998017839445,0.9944444444444445
0.4294516022464486,0.9944444444444445
0.4294846382556987,0.9944444444444445
0.430789560621077,0.9944444444444445
0.43082259663032707,0.9944444444444445
0.43186323092170464,0.9944444444444445
0.43189626693095473,0.9944444444444445
0.4377271225635943,0.9944444444444445
0.4377601585728444,0.9944444444444445
0.4389329369012223,0.9944444444444445
0.4389990089197225,0.9944444444444445
0.43979187314172447,0.9944444444444445
0.43982490915097455,0.9944444444444445
0.4402874132804757,0.9944444444444445
0.4403204492897258,0.9944444444444445
0.4406508093822266,0.9944444444444445
0.4406838453914767,0.9944444444444445
0.4417079616782293,0.9944444444444445
0.4417409976874794,0.9944444444444445
0.4442682523951107,0.9944444444444445
0.44430128840436073,0.9944444444444445
0.44606871489924016,0.9944444444444445
0.44610175090849025,0.9944444444444445
0.44633300297324086,0.9944444444444445
0.44636603898249094,0.9944444444444445
0.44734060125536834,0.9944444444444445
0.4473571192599934,0.9951388888888889
0.4477535513709944,0.9951388888888889
0.44778658738024446,0.9951388888888889
0.4506937561942517,0.9951388888888889
0.4507267922035018,0.9951388888888889
0.4518169805087545,0.9951388888888889
0.4518500165180046,0.9951388888888889
0.4529071688140073,0.9951388888888889
0.45294020482325736,0.9951388888888889
0.4530558308556326,0.9951388888888889
0.4530888668648827,0.9951388888888889
0.4552527254707631,0.9951388888888889
0.4552857614800132,0.9951388888888889
0.4557317476048893,0.9951388888888889
0.45578130161876446,0.9951388888888889
0.4561942517343905,0.9951388888888889
0.4562272877436406,0.9951388888888889
0.46114965312190287,0.9951388888888889
0.46118268913115296,0.9951388888888889
0.46227287743640566,0.9951388888888889
0.46230591344565575,0.9951388888888889
0.46266930954740665,0.9951388888888889
0.46270234555665674,0.9951388888888889
0.469590353485299,0.9951388888888889
0.46962338949454907,0.9951388888888889
0.4722001982160555,0.9951388888888889
0.4722332342253056,0.9951388888888889
0.47231582424843077,0.9951388888888889
0.47234886025768086,0.9951388888888889
0.4742319127849356,0.9951388888888889
0.4742649487941857,0.9951388888888889
0.47446316484968615,0.9951388888888889
0.47446316484968615,0.9958333333333333
0.47563594317806407,0.9958333333333333
0.47566897918731416,0.9958333333333333
0.47735381565906837,0.9958333333333333
0.47738685166831846,0.9958333333333333
0.48217707300958046,0.9958333333333333
0.48221010901883055,0.9958333333333333
0.48377931945820946,0.9958333333333333
0.48381235546745954,0.9958333333333333
0.4838784274859597,0.9958333333333333
0.4839114634952098,0.9958333333333333
0.48392798149983485,0.9958333333333333
0.4839610175090849,0.9958333333333333
0.486389164188966,0.9958333333333333
0.4864222001982161,0.9958333333333333
0.48681863230921707,0.9958333333333333
0.48685166831846716,0.9958333333333333
0.4879088206144698,0.9958333333333333
0.4879583746283449,0.9958333333333333
0.4887182028410968,0.9958333333333333
0.4887512388503469,0.9958333333333333
0.4893128510075983,0.9958333333333333
0.4893458870168484,0.9958333333333333
0.49132804757185333,0.9958333333333333
0.4913610835811034,0.9958333333333333
0.49304592005285763,0.9958333333333333
0.4930789560621077,0.9958333333333333
0.49687809712586717,0.9958333333333333
0.49691113313511726,0.9958333333333333
0.49914106375949785,0.9958333333333333
0.49917409976874794,0.9958333333333333
0.49998348199537496,0.9958333333333333
0.500016518004625,0.9958333333333333
0.5005450941526264,0.9958333333333333
0.5005781301618765,0.9958333333333333
0.5020812685827553,0.9958333333333333
0.5021143045920052,0.9958333333333333
0.502791542781632,0.9958333333333333
0.502824578790882,0.9958333333333333
0.5055830855632639,0.9958333333333333
0.505616121572514,0.9958333333333333
0.506012553683515,0.9958333333333333
0.5060455896927651,0.9958333333333333
0.5082920383217707,0.9958333333333333
0.5083250743310208,0.9958333333333333
0.5094813346547737,0.9958333333333333
0.5095143706640238,0.9958333333333333
0.5127188635612818,0.9958333333333333
0.5127518995705319,0.9958333333333333
0.5137264618434093,0.9958333333333333
0.5137594978526594,0.9958333333333333
0.5151139742319127,0.9958333333333333
0.5151470102411628,0.9958333333333333
0.5166501486620416,0.9958333333333333
0.5166831846712917,0.9958333333333333
0.5197390155269244,0.9958333333333333
0.5197720515361745,0.9958333333333333
0.520383217707301,0.9958333333333333
0.5204162537165511,0.9958333333333333
0.5222827882391807,0.9958333333333333
0.5223158242484308,0.9958333333333333
0.5223653782623059,0.9958333333333333
0.522398414271556,0.9958333333333333
0.5237694086554344,0.9958333333333333
0.5238024446646845,0.9958333333333333
0.526412289395441,0.9958333333333333
0.5264453254046911,0.9958333333333333
0.5266105054509416,0.9958333333333333
0.5266435414601917,0.9958333333333333
0.5273207796498183,0.9958333333333333
0.5273538156590684,0.9958333333333333
0.5273868516683184,0.9958333333333333
0.5274198876775685,0.9958333333333333
0.5276841757515692,0.9958333333333333
0.5277172117608193,0.9958333333333333
0.5279484638255699,0.9958333333333333
0.5279814998348199,0.9958333333333333
0.5280475718533201,0.9958333333333333
0.5280806078625702,0.9958333333333333
0.5280971258671953,0.9958333333333333
0.5281301618764453,0.9958333333333333
0.5306739345887017,0.9958333333333333
0.5307069705979518,0.9958333333333333
0.53397753551371,0.9958333333333333
0.53401057152296,0.9958333333333333
0.5352163858605881,0.9958333333333333
0.5352494218698381,0.9958333333333333
0.5353485298975884,0.9958333333333333
0.5353815659068385,0.9958333333333333
0.5354641559299637,0.9958333333333333
0.5354971919392137,0.9958333333333333
0.5408820614469773,0.9958333333333333
0.5409150974562272,0.9958333333333333
0.5416088536504791,0.9958333333333333
0.5416418896597291,0.9958333333333333
0.5452593326726132,0.9958333333333333
0.5452923686818633,0.9958333333333333
0.5457879088206145,0.9958333333333333
0.5458539808391146,0.9958333333333333
0.5496861579121242,0.9958333333333333
0.5497191939213742,0.9958333333333333
0.5502312520647505,0.9958333333333333
0.5502312520647505,0.9965277777777778
0.5510075982821275,0.9965277777777778
0.5510406342913776,0.9965277777777778
0.5519326065411299,0.9965277777777778
0.5519656425503799,0.9965277777777778
0.554013875123885,0.9965277777777778
0.5540469111331351,0.9965277777777778
0.5544598612487611,0.9965277777777778
0.5544928972580112,0.9965277777777778
0.5550214734060126,0.9965277777777778
0.5550545094152627,0.9965277777777778
0.5550710274198877,0.9965277777777778
0.5551040634291378,0.9965277777777778
0.556788899900892,0.9965277777777778
0.5568219359101421,0.9965277777777778
0.5579451602246449,0.9965277777777778
0.557978196233895,0.9965277777777778
0.5606706309877767,0.9965277777777778
0.5607036669970268,0.9965277777777778
0.5638090518665345,0.9965277777777778
0.5638420878757846,0.9965277777777778
0.5655104063429138,0.9965277777777778
0.5655434423521638,0.9965277777777778
0.565609514370664,0.9965277777777778
0.5656425503799141,0.9965277777777778
0.5661050545094153,0.9965277777777778
0.5661380905186654,0.9965277777777778
0.5672447968285431,0.9965277777777778
0.5672778328377932,0.9965277777777778
0.5732903865213083,0.9965277777777778
0.5733234225305583,0.9965277777777778
0.5738354806739346,0.9965277777777778
0.5738685166831847,0.9965277777777778
0.574000660720185,0.9965277777777778
0.574033696729435,0.9965277777777778
0.5754046911133135,0.9965277777777778
0.5754377271225636,0.9965277777777778
0.5775355137099438,0.9965277777777778
0.5775685497191939,0.9965277777777778
0.5781797158903205,0.9965277777777778
0.5782127518995706,0.9965277777777778
0.5785100759828212,0.9965277777777778
0.5785431119920713,0.9965277777777778
0.5789725801123224,0.9965277777777778
0.5790056161215725,0.9965277777777778
0.5799801783944499,0.9965277777777778
0.5800132144037,0.9965277777777778
0.5800958044268253,0.9965277777777778
0.5801288404360754,0.9965277777777778
0.5813181367690783,0.9965277777777778
0.5813511727783284,0.9965277777777778
0.5856788899900892,0.9965277777777778
0.5857119259993393,0.9965277777777778
0.586785596299967,0.9965277777777778
0.586818632309217,0.9965277777777778
0.58797489263297,0.9965277777777778
0.5880079286422201,0.9965277777777778
0.5885365047902213,0.9965277777777778
0.5885695407994714,0.9965277777777778
0.5898909811694747,0.9965277777777778
0.5899240171787248,0.9965277777777778
0.591608853650479,0.9965277777777778
0.591608853650479,0.9972222222222222
0.5929302940204824,0.9972222222222222
0.5929633300297324,0.9972222222222222
0.5963164849686158,0.9972222222222222
0.5963495209778659,0.9972222222222222
0.5989428477039973,0.9972222222222222
0.5989758837132474,0.9972222222222222
0.5997191939213743,0.9972222222222222
0.5997522299306244,0.9972222222222222
0.6019491245457549,0.9972222222222222
0.601982160555005,0.9972222222222222
0.604806739345887,0.9972222222222222
0.6048397753551371,0.9972222222222222
0.6074165840766436,0.9972222222222222
0.6074496200858936,0.9972222222222222
0.6114634952097786,0.9972222222222222
0.6114965312190287,0.9972222222222222
0.6120416253716551,0.9972222222222222
0.6120746613809052,0.9972222222222222
0.6123554674595308,0.9972222222222222
0.6123885034687809,0.9972222222222222
0.6141724479682854,0.9972222222222222
0.6142054839775355,0.9972222222222222
0.614800132144037,0.9972222222222222
0.614833168153287,0.9972222222222222
0.6177073009580443,0.9972222222222222
0.6177403369672944,0.9972222222222222
0.6181698050875454,0.9972222222222222
0.6182028410967955,0.9972222222222222
0.6187479352494218,0.9972222222222222
0.6187809712586719,0.9972222222222222
0.6199207135777998,0.9972222222222222
0.6199537495870499,0.9972222222222222
0.6206144697720516,0.9972222222222222
0.6206475057813016,0.9972222222222222
0.633961017509085,0.9972222222222222
0.6339940535183349,0.9972222222222222
0.6348695077634622,0.9972222222222222
0.6349025437727123,0.9972222222222222
0.6349190617773373,0.9972222222222222
0.6349520977865873,0.9972222222222222
0.6353485298975884,0.9972222222222222
0.6353815659068385,0.9972222222222222
0.6370168483647175,0.9972222222222222
0.6370498843739676,0.9972222222222222
0.6377931945820945,0.9972222222222222
0.6378262305913446,0.9972222222222222
0.6380740006607202,0.9972222222222222
0.6381070366699703,0.9972222222222222
0.6383548067393459,0.9972222222222222
0.638387842748596,0.9972222222222222
0.6386686488272216,0.9972222222222222
0.6387016848364717,0.9972222222222222
0.6402213412619756,0.9972222222222222
0.6402543772712256,0.9972222222222222
0.6410307234886026,0.9972222222222222
0.6410637594978527,0.9972222222222222
0.6415923356458539,0.9972222222222222
0.641625371655104,0.9972222222222222
0.6419557317476049,0.9972222222222222
0.641988767756855,0.9972222222222222
0.6466468450611166,0.9972222222222222
0.6466798810703667,0.9972222222222222
0.6480343574496201,0.9972222222222222
0.6480673934588702,0.9972222222222222
0.6484307895606211,0.9972222222222222
0.6484638255698711,0.9972222222222222
0.6499174099768747,0.9972222222222222
0.6499504459861248,0.9972222222222222
0.6501321440370004,0.9972222222222222
0.6501651800462505,0.9972222222222222
0.651205814337628,0.9972222222222222
0.6512388503468781,0.9972222222222222
0.6545259332672613,0.9972222222222222
0.6545589692765114,0.9972222222222222
0.6546580773042616,0.9972222222222222
0.6546911133135117,0.9972222222222222
0.6552196894615131,0.9972222222222222
0.6552196894615131,0.9979166666666667
0.655566567558639,0.9979166666666667
0.655599603567889,0.9979166666666667
0.656392467789891,0.9979166666666667
0.6564255037991411,0.9979166666666667
0.6571522960026429,0.9979166666666667
0.657185332011893,0.9979166666666667
0.6582920383217707,0.9979166666666667
0.6583250743310208,0.9979166666666667
0.6635447637925339,0.9979166666666667
0.663577799801784,0.9979166666666667
0.6636603898249092,0.9979166666666667
0.6636934258341592,0.9979166666666667
0.6641394119590354,0.9979166666666667
0.6641724479682855,0.9979166666666667
0.6662206805417905,0.9979166666666667
0.6662537165510406,0.9979166666666667
0.6687479352494219,0.9979166666666667
0.668780971258672,0.9979166666666667
0.6719359101420549,0.9979166666666667
0.6719689461513049,0.9979166666666667
0.6728939544103072,0.9979166666666667
0.6729269904195573,0.9979166666666667
0.674793524942187,0.9979166666666667
0.6748265609514371,0.9979166666666667
0.675189957053188,0.9979166666666667
0.675222993062438,0.9979166666666667
0.6755698711595639,0.9979166666666667
0.675602907168814,0.9979166666666667
0.6757185332011892,0.9979166666666667
0.6757515692104393,0.9979166666666667
0.6765113974231913,0.9979166666666667
0.6765444334324413,0.9979166666666667
0.6773042616451933,0.9979166666666667
0.6773372976544434,0.9979166666666667
0.6782457879088206,0.9979166666666667
0.6782788239180707,0.9979166666666667
0.6800958044268253,0.9979166666666667
0.6800958044268253,0.9986111111111111
0.6811034027089528,0.9986111111111111
0.6811364387182028,0.9986111111111111
0.6823918070697059,0.9986111111111111
0.682424843078956,0.9986111111111111
0.6852329038652131,0.9986111111111111
0.6852659398744632,0.9986111111111111
0.6857614800132144,0.9986111111111111
0.6857945160224644,0.9986111111111111
0.6861579121242154,0.9986111111111111
0.6861909481334655,0.9986111111111111
0.6867525602907169,0.9986111111111111
0.6867855962999669,0.9986111111111111
0.6870829203832177,0.9986111111111111
0.6871159563924678,0.9986111111111111
0.6928146679881071,0.9986111111111111
0.6928477039973571,0.9986111111111111
0.6982325735051206,0.9986111111111111
0.6982656095143707,0.9986111111111111
0.6986785596299967,0.9986111111111111
0.6987115956392468,0.9986111111111111
0.699603567888999,0.9986111111111111
0.6996366038982491,0.9986111111111111
0.700412950115626,0.9986111111111111
0.7004459861248761,0.9986111111111111
0.7034852989758837,0.9986111111111111
0.7035513709943839,0.9986111111111111
0.7043607532210109,0.9986111111111111
0.704393789230261,0.9986111111111111
0.7059299636603898,0.9986111111111111
0.7059629996696399,0.9986111111111111
0.7064915758176412,0.9986111111111111
0.7065246118268913,0.9986111111111111
0.70999339279815,0.9986111111111111
0.7100264288074001,0.9986111111111111
0.711199207135778,0.9986111111111111
0.7112322431450281,0.9986111111111111
0.7124545754872811,0.9986111111111111
0.7124876114965312,0.9986111111111111
0.7129005616121572,0.9986111111111111
0.7129335976214073,0.9986111111111111
0.7133795837462834,0.9986111111111111
0.7134126197555335,0.9986111111111111
0.7144862900561613,0.9986111111111111
0.7145193260654114,0.9986111111111111
0.7150974562272877,0.9986111111111111
0.7151304922365378,0.9986111111111111
0.715592996366039,0.9986111111111111
0.7156260323752891,0.9986111111111111
0.7162371985464155,0.9986111111111111
0.7162702345556656,0.9986111111111111
0.7185827552031715,0.9986111111111111
0.7186157912124216,0.9986111111111111
0.7194251734390485,0.9986111111111111
0.7194582094482986,0.9986111111111111
0.7205483977535514,0.9986111111111111
0.7205814337628015,0.9986111111111111
0.7205979517674265,0.9986111111111111
0.7206309877766766,0.9986111111111111
0.7280806078625702,0.9986111111111111
0.7281136438718203,0.9986111111111111
0.7325900231252065,0.9986111111111111
0.7326230591344566,0.9986111111111111
0.7327386851668318,0.9986111111111111
0.7327717211760819,0.9986111111111111
0.734373967624711,0.9986111111111111
0.734407003633961,0.9986111111111111
0.7349851337958374,0.9986111111111111
0.7350181698050875,0.9986111111111111
0.7363561281797159,0.9986111111111111
0.7363891641889659,0.9986111111111111
0.7374628344895937,0.9986111111111111
0.7374958704988437,0.9986111111111111
0.7390485629335977,0.9986111111111111
0.7390815989428478,0.9986111111111111
0.7444334324413611,0.9986111111111111
0.7444664684506112,0.9986111111111111
0.7454575487281137,0.9986111111111111
0.7454905847373637,0.9986111111111111
0.7506276841757515,0.9986111111111111
0.7506607201850016,0.9986111111111111
0.7517509084902544,0.9986111111111111
0.7517839444995045,0.9986111111111111
0.7543442352163858,0.9986111111111111
0.7543772712256359,0.9986111111111111
0.7600925008259002,0.9986111111111111
0.7601255368351503,0.9986111111111111
0.7610175090849025,0.9986111111111111
0.7610175090849025,0.9993055555555556
0.7615130492236538,0.9993055555555556
0.7615460852329039,0.9993055555555556
0.762405021473406,0.9993055555555556
0.7624380574826561,0.9993055555555556
0.7626858275520317,0.9993055555555556
0.7627188635612818,0.9993055555555556
0.7674925668979188,0.9993055555555556
0.7675256029071689,0.9993055555555556
0.7687974892632969,0.9993055555555556
0.768830525272547,0.9993055555555556
0.769970267591675,0.9993055555555556
0.7700033036009251,0.9993055555555556
0.7702841096795507,0.9993055555555556
0.7703171456888008,0.9993055555555556
0.7714238519986786,0.9993055555555556
0.7714568880079287,0.9993055555555556
0.7722993062438057,0.9993055555555556
0.7723323422530558,0.9993055555555556
0.7737363726461843,0.9993055555555556
0.7737694086554344,0.9993055555555556
0.777205153617443,0.9993055555555556
0.7772381896266931,0.9993055555555556
0.7785926660059465,0.9993055555555556
0.7786257020151965,0.9993055555555556
0.7787082920383218,0.9993055555555556
0.7787413280475719,0.9993055555555556
0.7797654443343244,0.9993055555555556
0.7797984803435745,0.9993055555555556
0.780789560621077,0.9993055555555556
0.780822596630327,0.9993055555555556
0.7824909150974563,0.9993055555555556
0.7825239511067064,0.9993055555555556
0.7835480673934588,0.9993055555555556
0.7835811034027089,0.9993055555555556
0.7845887016848365,0.9993055555555556
0.7846217376940866,0.9993055555555556
0.7857284440039644,0.9993055555555556
0.7857614800132144,0.9993055555555556
0.786389164188966,0.9993055555555556
0.7864222001982161,0.9993055555555556
0.7889990089197225,0.9993055555555556
0.7890320449289726,0.9993055555555556
0.7893624050214734,0.9993055555555556
0.7893954410307235,0.9993055555555556
0.7894284770399735,0.9993055555555556
0.7894615130492236,0.9993055555555556
0.7903204492897258,0.9993055555555556
0.7903534852989759,0.9993055555555556
0.7908655434423522,0.9993055555555556
0.7908985794516022,0.9993055555555556
0.7914106375949785,0.9993055555555556
0.7914436736042286,0.9993055555555556
0.791625371655104,0.9993055555555556
0.7916584076643541,0.9993055555555556
0.7919392137429798,0.9993055555555556
0.7919722497522299,0.9993055555555556
0.7923356458539809,0.9993055555555556
0.792368681863231,0.9993055555555556
0.793591014205484,0.9993055555555556
0.793624050214734,0.9993055555555556
0.7952593326726132,0.9993055555555556
0.7952923686818633,0.9993055555555556
0.797208457218368,0.9993055555555556
0.7972414932276181,0.9993055555555556
0.7981004294681202,0.9993055555555556
0.7981334654773703,0.9993055555555556
0.7997026759167493,0.9993055555555556
0.7997357119259993,0.9993055555555556
0.8017013544763792,0.9993055555555556
0.8017343904856293,0.9993055555555556
0.8032540469111331,0.9993055555555556
0.8032870829203832,0.9993055555555556
0.8041295011562604,0.9993055555555556
0.8041625371655104,0.9993055555555556
0.8051370994383878,0.9993055555555556
0.8051701354476379,0.9993055555555556
0.8057152296002643,0.9993055555555556
0.8057482656095144,0.9993055555555556
0.8073339940535184,0.9993055555555556
0.8073670300627684,0.9993055555555556
0.8127353815659069,0.9993055555555556
0.8127684175751569,0.9993055555555556
0.8147175421209117,0.9993055555555556
0.8147505781301618,0.9993055555555556
0.8164519326065411,0.9993055555555556
0.8164519326065411,1.0
0.8187148992401718,1.0
0.8187479352494219,1.0
0.818780971258672,1.0
0.8188140072679221,1.0
0.8189461513049223,1.0
0.8189791873141724,1.0
0.8214073339940535,1.0
0.8214403700033036,1.0
0.8221341261975553,1.0
0.8221671622068054,1.0
0.8233399405351833,1.0
0.8233729765444334,1.0
0.8234390485629336,1.0
0.8234720845721837,1.0
0.8247935249421869,1.0
0.824826560951437,1.0
0.8259332672613149,1.0
0.8259663032705649,1.0
0.8266600594648167,1.0
0.8266930954740668,1.0
0.8301783944499505,1.0
0.8302114304592005,1.0
0.8302609844730756,1.0
0.8302940204823257,1.0
0.8313016187644533,1.0
0.8313346547737034,1.0
0.8314502808060786,1.0
0.8314833168153287,1.0
0.8319458209448298,1.0
0.8319788569540799,1.0
0.8341592335645854,1.0
0.8341922695738355,1.0
0.8346052196894616,1.0
0.8346382556987116,1.0
0.835199867855963,1.0
0.8352329038652131,1.0
0.8367195242814668,1.0
0.8367525602907169,1.0
0.8397588371324743,1.0
0.8397918731417244,1.0
0.8398909811694747,1.0
0.8399240171787248,1.0
0.8422860918401057,1.0
0.8423191278493558,1.0
0.8443508424182359,1.0
0.844383878427486,1.0
0.8486290056161215,1.0
0.8486620416253716,1.0
0.8487446316484969,1.0
0.848777667657747,1.0
0.8528741328047572,1.0
0.8529071688140073,1.0
0.8534357449620086,1.0
0.8534687809712587,1.0
0.8542451271886357,1.0
0.8542781631978857,1.0
0.8565741658407664,1.0
0.8566072018500165,1.0
0.8566237198546416,1.0
0.8566567558638917,1.0
0.8599108027750247,1.0
0.8599438387842748,1.0
0.8602246448629005,1.0
0.8602576808721506,1.0
0.8609349190617773,1.0
0.8609679550710274,1.0
0.8618434093161547,1.0
0.8618764453254046,1.0
0.8623224314502808,1.0
0.8623554674595308,1.0
0.8671456888007929,1.0
0.867178724810043,1.0
0.8672613148331682,1.0
0.8672943508424182,1.0
0.8696729435084242,1.0
0.8697059795176743,1.0
0.8708457218368021,1.0
0.8708787578460522,1.0
0.8747439709283119,1.0
0.874777006937562,1.0
0.8765113974231913,1.0
0.8765444334324414,1.0
0.8771390815989428,1.0
0.8771721176081929,1.0
0.878790882061447,1.0
0.878823918070697,1.0
0.8798149983481995,1.0
0.8798480343574496,1.0
0.8822596630327056,1.0
0.8822926990419557,1.0
0.8826891311529568,1.0
0.8827221671622068,1.0
0.887165510406343,1.0
0.887198546415593,1.0
0.8892302609844731,1.0
0.8892632969937232,1.0
0.8910637594978527,1.0
0.8910967955071027,1.0
0.8941526263627354,1.0
0.8941856623719855,1.0
0.8946646845061117,1.0
0.8946977205153618,1.0
0.8958044268252395,1.0
0.8958374628344896,1.0
0.8992566897918731,1.0
0.8992897258011232,1.0
0.9001651800462505,1.0
0.9001982160555005,1.0
0.9006442021803767,1.0
0.9006772381896266,1.0
0.9008919722497523,1.0
0.9009250082590023,1.0
0.9032540469111331,1.0
0.9032870829203832,1.0
0.9074165840766435,1.0
0.9074496200858936,1.0
0.9096299966963991,1.0
0.9096630327056492,1.0
0.9113148331681533,1.0
0.9113478691774034,1.0
0.9137099438387842,1.0
0.9137429798480343,1.0
0.9152791542781632,1.0
0.9153121902874133,1.0
0.9157581764122894,1.0
0.9157912124215395,1.0
0.9202180376610506,1.0
0.9202510736703007,1.0
0.9211760819293029,1.0
0.921209117938553,1.0
0.9245292368681863,1.0
0.9245622728774364,1.0
0.9245953088866865,1.0
0.9246283448959366,1.0
0.9266600594648167,1.0
0.9266930954740668,1.0
0.9274033696729435,1.0
0.9274364056821935,1.0
0.929996696399075,1.0
0.9300297324083251,1.0
0.9349190617773373,1.0
0.9349520977865874,1.0
0.9377931945820945,1.0
0.9378262305913445,1.0
0.9387016848364718,1.0
0.9387347208457218,1.0
0.9393293690122233,1.0
0.9393624050214734,1.0
0.9398909811694748,1.0
0.9399240171787248,1.0
0.9453088866864883,1.0
0.9453419226957384,1.0
0.9505285761480013,1.0
0.9505616121572514,1.0
0.9553022794846383,1.0
0.9553353154938884,1.0
0.9554674595308886,1.0
0.9555004955401387,1.0
0.9561446977205154,1.0
0.9561777337297654,1.0
0.9563263957713908,1.0
0.9563594317806409,1.0
0.9578295341922696,1.0
0.9578625702015197,1.0
0.9600925008259003,1.0
0.9601255368351503,1.0
0.9622398414271556,1.0
0.9622728774364057,1.0
0.9625867195242814,1.0
0.9626197555335315,1.0
0.9726792203501817,1.0
0.9727122563594318,1.0
0.9780640898579451,1.0
0.9780971258671952,1.0
0.9845721836802114,1.0
0.9846052196894615,1.0
0.9884869507763462,1.0
0.9885199867855963,1.0
0.993987446316485,1.0
0.994020482325735,1.0
0.9952593326726131,1.0
0.9952923686818632,1.0
0.9957383548067393,1.0
0.9957713908159894,1.0
0.9970102411628675,1.0
0.9970432771721176,1.0
0.9980343574496201,1.0
0.9980673934588702,1.0
0.9986620416253716,1.0
0.9986950776346217,1.0
1.0,1.0
