fpr,tpr
0.0,0.0
0.0,0.0011896046852122987
0.0,0.0021046852122986823
0.0,0.002562225475841874
0.0,0.0029282576866764276
0.0,0.003019765739385066
0.0,0.003294289897510981
0.0,0.003477306002928258
0.0,0.00393484626647145
0.0,0.004026354319180088
0.0,0.004209370424597365
0.0,0.004392386530014641
0.0,0.004575402635431918
0.0,0.004849926793557833
0.0,0.005307467057101025
0.0,0.005490483162518302
0.0,0.0066800878477306005
0.0,0.006863103953147877
0.0,0.008235724743777453
0.0,0.00841874084919473
0.0,0.011255490483162519
0.0,0.011438506588579795
0.0,0.013817715959004393
5.037732617303604e-06,0.013817715959004393
5.037732617303604e-06,0.015556368960468522
1.0075465234607208e-05,0.015556368960468522
1.0075465234607208e-05,0.025256222547584188
1.0075465234607208e-05,0.025439238653001465
1.0075465234607208e-05,0.02900805270863836
1.5113197851910811e-05,0.02900805270863836
1.5113197851910811e-05,0.032302342606149344
2.0150930469214415e-05,0.032302342606149344
2.0150930469214415e-05,0.03367496339677892
2.0150930469214415e-05,0.03385797950219619
2.0150930469214415e-05,0.038799414348462666
2.0150930469214415e-05,0.03898243045387994
2.0150930469214415e-05,0.04630307467057101
2.518866308651802e-05,0.04630307467057101
2.518866308651802e-05,0.05710102489019034
3.0226395703821623e-05,0.05710102489019034
3.0226395703821623e-05,0.05719253294289898
3.526412832112523e-05,0.05719253294289898
3.526412832112523e-05,0.06497071742313323
3.526412832112523e-05,0.06515373352855051
3.526412832112523e-05,0.06707540263543192
3.526412832112523e-05,0.06725841874084919
3.526412832112523e-05,0.07091874084919472
3.526412832112523e-05,0.07119326500732065
3.526412832112523e-05,0.07476207906295754
4.030186093842883e-05,0.07476207906295754
4.030186093842883e-05,0.07741581259150805
4.533959355573244e-05,0.07750732064421668
4.533959355573244e-05,0.08006954612005857
4.533959355573244e-05,0.08025256222547585
4.533959355573244e-05,0.08556002928257686
5.037732617303604e-05,0.08556002928257686
5.037732617303604e-05,0.08976939970717424
5.5415058790339646e-05,0.08976939970717424
5.5415058790339646e-05,0.09452781844802342
6.0452791407643246e-05,0.09452781844802342
6.0452791407643246e-05,0.10980966325036604
6.0452791407643246e-05,0.10999267935578332
6.0452791407643246e-05,0.11063323572474378
6.549052402494685e-05,0.11063323572474378
6.549052402494685e-05,0.11786237188872621
6.549052402494685e-05,0.11804538799414349
6.549052402494685e-05,0.12875183016105418
7.052825664225046e-05,0.12875183016105418
7.052825664225046e-05,0.1300329428989751
7.556598925955406e-05,0.1300329428989751
7.556598925955406e-05,0.1302159590043924
7.556598925955406e-05,0.13039897510980966
7.556598925955406e-05,0.1304904831625183
8.060372187685766e-05,0.1304904831625183
8.060372187685766e-05,0.13314421669106882
8.060372187685766e-05,0.1333272327964861
8.564145449416126e-05,0.1333272327964861
8.564145449416126e-05,0.1367130307467057
8.564145449416126e-05,0.13689604685212298
8.564145449416126e-05,0.13771961932650073
9.067918711146488e-05,0.13771961932650073
9.067918711146488e-05,0.15144582723279648
9.571691972876848e-05,0.15144582723279648
9.571691972876848e-05,0.15474011713030747
0.00010075465234607208,0.15474011713030747
0.00010075465234607208,0.15867496339677892
0.00010579238496337569,0.15867496339677892
0.00010579238496337569,0.16453147877013177
0.00011083011758067929,0.16453147877013177
0.00011083011758067929,0.18649341142020498
0.00011586785019798289,0.18649341142020498
0.00011586785019798289,0.18786603221083456
0.00012090558281528649,0.18786603221083456
0.00012090558281528649,0.19006222547584187
0.00012090558281528649,0.19024524158125916
0.00012090558281528649,0.2020497803806735
0.00012090558281528649,0.20223279648609077
0.00012090558281528649,0.20241581259150807
0.0001259433154325901,0.20241581259150807
0.0001259433154325901,0.20333089311859442
0.0001309810480498937,0.20333089311859442
0.0001309810480498937,0.20808931185944363
0.00013601878066719732,0.20808931185944363
0.00013601878066719732,0.21961932650073207
0.00014105651328450092,0.21961932650073207
0.00014105651328450092,0.2225475841874085
0.00014609424590180452,0.2225475841874085
0.00014609424590180452,0.2323389458272328
0.00015113197851910812,0.2323389458272328
0.00015113197851910812,0.2345351390922401
0.00015616971113641172,0.2345351390922401
0.00015616971113641172,0.23956808199121524
0.00016120744375371532,0.23956808199121524
0.00016120744375371532,0.2447840409956076
0.00016624517637101892,0.2447840409956076
0.00016624517637101892,0.24835285505124452
0.00017128290898832252,0.24835285505124452
0.00017128290898832252,0.2571376281112738
0.00017632064160562615,0.2571376281112738
0.00017632064160562615,0.258601756954612
0.00018135837422292975,0.258601756954612
0.00018135837422292975,0.28166178623718885
0.00018639610684023335,0.28166178623718885
0.00018639610684023335,0.2859626647144949
0.00019143383945753695,0.2859626647144949
0.00019143383945753695,0.287701317715959
0.00019647157207484055,0.287701317715959
0.00019647157207484055,0.2881588579795022
0.00020150930469214415,0.2881588579795022
0.00020150930469214415,0.2961200585651537
0.00020654703730944775,0.2961200585651537
0.00020654703730944775,0.2989568081991215
0.00021158476992675138,0.2989568081991215
0.00021158476992675138,0.29950585651537337
0.00021662250254405498,0.29950585651537337
0.00021662250254405498,0.3008784773060029
0.00022166023516135858,0.3008784773060029
0.00022166023516135858,0.3158857979502196
0.00022669796777866218,0.3158857979502196
0.00022669796777866218,0.3206442166910688
0.00023173570039596578,0.3206442166910688
0.00023173570039596578,0.33757320644216693
0.00023677343301326938,0.33757320644216693
0.00023677343301326938,0.3415080527086384
0.00024181116563057298,0.3415080527086384
0.00024181116563057298,0.3463579795021962
0.0002468488982478766,0.3463579795021962
0.0002468488982478766,0.3490117130307467
0.0002518866308651802,0.3490117130307467
0.0002518866308651802,0.34983528550512444
0.0002569243634824838,0.34983528550512444
0.0002569243634824838,0.3533125915080527
0.0002619620960997874,0.3533125915080527
0.0002619620960997874,0.35340409956076135
0.000266999828717091,0.35340409956076135
0.000266999828717091,0.3535871156661786
0.00027203756133439464,0.3535871156661786
0.00027203756133439464,0.3542276720351391
0.0002770752939516982,0.3542276720351391
0.0002770752939516982,0.35935212298682284
0.00028211302656900184,0.35935212298682284
0.00028211302656900184,0.36200585651537337
0.00028211302656900184,0.36218887262079064
0.00028211302656900184,0.36530014641288433
0.0002871507591863054,0.36530014641288433
0.0002871507591863054,0.3668557833089312
0.00029218849180360904,0.3668557833089312
0.00029218849180360904,0.3695095168374817
0.0002972262244209126,0.3695095168374817
0.0002972262244209126,0.37326134699853586
0.00030226395703821624,0.37326134699853586
0.00030226395703821624,0.37481698389458273
0.0003073016896555198,0.37481698389458273
0.0003073016896555198,0.3764641288433382
0.00031233942227282344,0.3764641288433382
0.00031233942227282344,0.38085651537335286
0.00031737715489012707,0.38085651537335286
0.00031737715489012707,0.38113103953147875
0.00032241488750743065,0.38113103953147875
0.00032241488750743065,0.38250366032210836
0.00032745262012473427,0.38250366032210836
0.00032745262012473427,0.3898243045387994
0.00033249035274203785,0.3898243045387994
0.00033249035274203785,0.39037335285505126
0.0003375280853593415,0.39037335285505126
0.0003375280853593415,0.39183748169838944
0.00034256581797664505,0.39183748169838944
0.00034256581797664505,0.3933931185944363
0.0003476035505939487,0.3933931185944363
0.0003476035505939487,0.39513177159590046
0.0003526412832112523,0.39513177159590046
0.0003526412832112523,0.39687042459736455
0.0003576790158285559,0.39687042459736455
0.0003576790158285559,0.3969619326500732
0.0003627167484458595,0.3969619326500732
0.0003627167484458595,0.40162884333821375
0.0003677544810631631,0.40162884333821375
0.0003677544810631631,0.40281844802342603
0.0003727922136804667,0.40281844802342603
0.0003727922136804667,0.4043740849194729
0.0003778299462977703,0.4043740849194729
0.0003778299462977703,0.40492313323572476
0.0003828676789150739,0.40492313323572476
0.0003828676789150739,0.4097730600292826
0.00038790541153237753,0.4097730600292826
0.00038790541153237753,0.4126098096632504
0.0003929431441496811,0.4126098096632504
0.0003929431441496811,0.4131588579795022
0.00039798087676698473,0.4131588579795022
0.00039798087676698473,0.4132503660322108
0.0004030186093842883,0.4132503660322108
0.0004030186093842883,0.41398243045387995
0.00040805634200159193,0.41398243045387995
0.00040805634200159193,0.4166361639824305
0.0004130940746188955,0.4166361639824305
0.0004130940746188955,0.4201134699853587
0.00041813180723619913,0.4201134699853587
0.00041813180723619913,0.4210285505124451
0.00042316953985350276,0.4210285505124451
0.00042316953985350276,0.42304172767203513
0.00043324500508810996,0.42304172767203513
0.00043324500508810996,0.4248718887262079
0.00043828273770541354,0.4248718887262079
0.00043828273770541354,0.42596998535871156
0.00044332047032271716,0.42596998535871156
0.00044332047032271716,0.42688506588579794
0.00044835820294002074,0.42688506588579794
0.00044835820294002074,0.42789165446559296
0.00045339593555732436,0.42789165446559296
0.00045339593555732436,0.4293557833089312
0.00045843366817462794,0.4293557833089312
0.00045843366817462794,0.43017935578330896
0.00046347140079193157,0.43017935578330896
0.00046347140079193157,0.431185944363104
0.0004685091334092352,0.431185944363104
0.0004685091334092352,0.43667642752562225
0.00047354686602653877,0.43667642752562225
0.00047354686602653877,0.43997071742313326
0.0004785845986438424,0.43997071742313326
0.0004785845986438424,0.44051976573938506
0.00048362233126114597,0.44051976573938506
0.00048362233126114597,0.44903001464128844
0.0004936977964957532,0.44903001464128844
0.0004936977964957532,0.450402635431918
0.0004987355291130568,0.450402635431918
0.0004987355291130568,0.4511346998535871
0.0005037732617303604,0.4511346998535871
0.0005037732617303604,0.45223279648609077
0.000508810994347664,0.45223279648609077
0.000508810994347664,0.4523243045387994
0.0005138487269649676,0.4523243045387994
0.0005138487269649676,0.4563506588579795
0.0005188864595822712,0.4563506588579795
0.0005188864595822712,0.4564421669106881
0.0005239241921995748,0.4564421669106881
0.0005239241921995748,0.45763177159590046
0.0005289619248168785,0.45763177159590046
0.0005289619248168785,0.4577232796486091
0.000533999657434182,0.4577232796486091
0.000533999657434182,0.45955344070278187
0.0005390373900514856,0.45955344070278187
0.0005390373900514856,0.46101756954612005
0.0005440751226687893,0.46101756954612005
0.0005440751226687893,0.4615666178623719
0.0005491128552860929,0.4615666178623719
0.0005491128552860929,0.4637628111273792
0.0005541505879033964,0.4637628111273792
0.0005541505879033964,0.46476939970717424
0.0005591883205207,0.46476939970717424
0.0005591883205207,0.4656844802342606
0.0005642260531380037,0.4656844802342606
0.0005642260531380037,0.4659590043923865
0.0005692637857553073,0.4659590043923865
0.0005692637857553073,0.4668740849194729
0.0005743015183726108,0.4668740849194729
0.0005743015183726108,0.46733162518301613
0.0005793392509899145,0.46733162518301613
0.0005793392509899145,0.46742313323572476
0.0005843769836072181,0.46742313323572476
0.0005843769836072181,0.46989385065885797
0.0005894147162245217,0.46989385065885797
0.0005894147162245217,0.4699853587115666
0.0005944524488418252,0.4699853587115666
0.0005944524488418252,0.4706259150805271
0.0005994901814591289,0.4706259150805271
0.0005994901814591289,0.4750183016105417
0.0006045279140764325,0.4750183016105417
0.0006045279140764325,0.47529282576866766
0.0006095656466937361,0.47529282576866766
0.0006095656466937361,0.47648243045387995
0.0006146033793110396,0.47648243045387995
0.0006146033793110396,0.4778550512445095
0.0006196411119283433,0.4778550512445095
0.0006196411119283433,0.4783125915080527
0.0006246788445456469,0.4783125915080527
0.0006246788445456469,0.4797767203513909
0.0006297165771629505,0.4797767203513909
0.0006297165771629505,0.4799597364568082
0.0006347543097802541,0.4799597364568082
0.0006347543097802541,0.48005124450951686
0.0006397920423975577,0.48005124450951686
0.0006397920423975577,0.48435212298682284
0.0006498675076321649,0.48435212298682284
0.0006498675076321649,0.48499267935578333
0.0006549052402494685,0.48499267935578333
0.0006549052402494685,0.4866398243045388
0.0006599429728667721,0.4866398243045388
0.0006599429728667721,0.4868228404099561
0.0006649807054840757,0.4868228404099561
0.0006649807054840757,0.48700585651537337
0.000675056170718683,0.48700585651537337
0.000675056170718683,0.48792093704245976
0.0006800939033359865,0.48792093704245976
0.0006800939033359865,0.48846998535871156
0.0006851316359532901,0.48846998535871156
0.0006851316359532901,0.4894765739385066
0.0006901693685705938,0.4894765739385066
0.0006901693685705938,0.48975109809663253
0.0006952071011878973,0.48975109809663253
0.0006952071011878973,0.4909407027818448
0.0007002448338052009,0.4909407027818448
0.0007002448338052009,0.4912152269399707
0.0007103202990398082,0.4912152269399707
0.0007103202990398082,0.49130673499267935
0.0007153580316571118,0.49130673499267935
0.0007153580316571118,0.4914897510980966
0.0007203957642744153,0.4914897510980966
0.0007203957642744153,0.49158125915080525
0.000725433496891719,0.49158125915080525
0.000725433496891719,0.4916727672035139
0.0007304712295090226,0.4916727672035139
0.0007304712295090226,0.49194729136163984
0.0007355089621263262,0.49194729136163984
0.0007355089621263262,0.4935944363103953
0.0007405466947436298,0.4935944363103953
0.0007405466947436298,0.49386896046852125
0.0007455844273609334,0.49386896046852125
0.0007455844273609334,0.4955161054172767
0.000750622159978237,0.4955161054172767
0.000750622159978237,0.49670571010248904
0.0007556598925955406,0.49670571010248904
0.0007556598925955406,0.4976207906295754
0.0007606976252128442,0.4976207906295754
0.0007606976252128442,0.4980783308931186
0.0007657353578301478,0.4980783308931186
0.0007657353578301478,0.49954245973645683
0.0007707730904474514,0.49954245973645683
0.0007707730904474514,0.49981698389458273
0.0007758108230647551,0.49981698389458273
0.0007758108230647551,0.5013726207906296
0.0007808485556820586,0.5013726207906296
0.0007808485556820586,0.5016471449487555
0.0007858862882993622,0.5016471449487555
0.0007858862882993622,0.5028367496339677
0.0007909240209166658,0.5028367496339677
0.0007909240209166658,0.5033857979502196
0.0007959617535339695,0.5033857979502196
0.0007959617535339695,0.504300878477306
0.000800999486151273,0.504300878477306
0.000800999486151273,0.5050329428989752
0.0008060372187685766,0.5050329428989752
0.0008060372187685766,0.5053074670571011
0.0008110749513858803,0.5053074670571011
0.0008110749513858803,0.5066800878477306
0.0008161126840031839,0.5066800878477306
0.0008161126840031839,0.5087847730600292
0.0008211504166204874,0.5087847730600292
0.0008211504166204874,0.5091508052708639
0.000826188149237791,0.5091508052708639
0.000826188149237791,0.5095168374816984
0.0008312258818550947,0.5095168374816984
0.0008312258818550947,0.509608345534407
0.0008362636144723983,0.509608345534407
0.0008362636144723983,0.5098828696925329
0.0008413013470897018,0.5098828696925329
0.0008413013470897018,0.5127196193265008
0.0008463390797070055,0.5127196193265008
0.0008463390797070055,0.513177159590044
0.0008513768123243091,0.513177159590044
0.0008513768123243091,0.5133601756954612
0.0008564145449416127,0.5133601756954612
0.0008564145449416127,0.5135431918008785
0.0008614522775589162,0.5135431918008785
0.0008614522775589162,0.5167459736456809
0.0008664900101762199,0.5167459736456809
0.0008664900101762199,0.5176610541727672
0.0008715277427935235,0.5176610541727672
0.0008715277427935235,0.5178440702781845
0.0008765654754108271,0.5178440702781845
0.0008765654754108271,0.5195827232796486
0.0008866409406454343,0.5195827232796486
0.0008866409406454343,0.5198572474377745
0.0008916786732627379,0.5198572474377745
0.0008916786732627379,0.5203147877013177
0.0008967164058800415,0.5203147877013177
0.0008967164058800415,0.5212298682284041
0.0009017541384973452,0.5212298682284041
0.0009017541384973452,0.5216874084919473
0.0009067918711146487,0.5216874084919473
0.0009067918711146487,0.5230600292825769
0.0009118296037319523,0.5230600292825769
0.0009118296037319523,0.5237005856515373
0.0009168673363492559,0.5237005856515373
0.0009168673363492559,0.524798682284041
0.0009219050689665596,0.524798682284041
0.0009219050689665596,0.5250732064421669
0.0009269428015838631,0.5250732064421669
0.0009269428015838631,0.5254392386530015
0.0009319805342011667,0.5254392386530015
0.0009319805342011667,0.5261713030746705
0.0009370182668184704,0.5261713030746705
0.0009370182668184704,0.5265373352855052
0.000942055999435774,0.5265373352855052
0.000942055999435774,0.5269948755490483
0.0009470937320530775,0.5269948755490483
0.0009470937320530775,0.5271778916544656
0.0009521314646703811,0.5271778916544656
0.0009521314646703811,0.5274524158125915
0.0009571691972876848,0.5274524158125915
0.0009571691972876848,0.527818448023426
0.0009622069299049884,0.527818448023426
0.0009622069299049884,0.5280014641288433
0.0009722823951395956,0.5280014641288433
0.0009722823951395956,0.5283674963396779
0.000977320127756899,0.5283674963396779
0.000977320127756899,0.5293740849194729
0.0009823578603742028,0.5293740849194729
0.0009823578603742028,0.531112737920937
0.0009873955929915064,0.531112737920937
0.0009873955929915064,0.5312042459736457
0.00099243332560881,0.5312042459736457
0.00099243332560881,0.5324853587115667
0.0009974710582261136,0.5324853587115667
0.0009974710582261136,0.5329428989751098
0.0010025087908434173,0.5329428989751098
0.0010025087908434173,0.5337664714494875
0.0010075465234607207,0.5337664714494875
0.0010075465234607207,0.5340409956076134
0.001017621988695328,0.5340409956076134
0.001017621988695328,0.5345900439238653
0.0010276974539299352,0.5345900439238653
0.0010276974539299352,0.5348645680819912
0.0010327351865472387,0.5348645680819912
0.0010327351865472387,0.5352306002928258
0.0010377729191645424,0.5352306002928258
0.0010377729191645424,0.5355966325036603
0.0010528861170164532,0.5355966325036603
0.0010528861170164532,0.5358711566617862
0.001057923849633757,0.5358711566617862
0.001057923849633757,0.536694729136164
0.0010629615822510604,0.536694729136164
0.0010629615822510604,0.5370607613469985
0.0010730370474856677,0.5370607613469985
0.0010730370474856677,0.5372437774524158
0.0010780747801029712,0.5372437774524158
0.0010780747801029712,0.5377928257686676
0.0010831125127202749,0.5377928257686676
0.0010831125127202749,0.5382503660322109
0.0010881502453375786,0.5382503660322109
0.0010881502453375786,0.5385248901903368
0.0010982257105721857,0.5385248901903368
0.0010982257105721857,0.5393484626647145
0.0011032634431894892,0.5393484626647145
0.0011032634431894892,0.5398975109809663
0.0011083011758067929,0.5398975109809663
0.0011083011758067929,0.5401720351390923
0.0011133389084240965,0.5401720351390923
0.0011133389084240965,0.5403550512445096
0.0011234143736587037,0.5403550512445096
0.0011234143736587037,0.5404465592972182
0.0011334898388933108,0.5404465592972182
0.0011334898388933108,0.5406295754026355
0.0011385275715106145,0.5406295754026355
0.0011385275715106145,0.5407210834553441
0.0011435653041279182,0.5407210834553441
0.0011435653041279182,0.5408125915080527
0.0011486030367452217,0.5408125915080527
0.0011486030367452217,0.5419106881405563
0.0011536407693625253,0.5419106881405563
0.0011536407693625253,0.5420021961932651
0.001158678501979829,0.5420021961932651
0.001158678501979829,0.542276720351391
0.0011687539672144362,0.542276720351391
0.0011687539672144362,0.5423682284040996
0.0011737916998317396,0.5423682284040996
0.0011737916998317396,0.5424597364568082
0.0011788294324490433,0.5424597364568082
0.0011788294324490433,0.5432833089311859
0.001183867165066347,0.5432833089311859
0.001183867165066347,0.5436493411420205
0.0011889048976836505,0.5436493411420205
0.0011889048976836505,0.5441068814055637
0.0011939426303009541,0.5441068814055637
0.0011939426303009541,0.5441983894582724
0.0011989803629182578,0.5441983894582724
0.0011989803629182578,0.5446559297218155
0.001209055828152865,0.5446559297218155
0.001209055828152865,0.5450219619326501
0.0012140935607701687,0.5450219619326501
0.0012140935607701687,0.5451134699853587
0.0012241690260047758,0.5451134699853587
0.0012241690260047758,0.5457540263543191
0.0012292067586220793,0.5457540263543191
0.0012292067586220793,0.5458455344070278
0.001234244491239383,0.5458455344070278
0.001234244491239383,0.5459370424597365
0.00124431995647399,0.5459370424597365
0.00124431995647399,0.5462115666178624
0.0012493576890912938,0.5462115666178624
0.0012493576890912938,0.5469436310395315
0.0012543954217085975,0.5469436310395315
0.0012543954217085975,0.5470351390922401
0.001259433154325901,0.5470351390922401
0.001259433154325901,0.5472181551976574
0.0012695086195605083,0.5472181551976574
0.0012695086195605083,0.5474011713030746
0.0012745463521778118,0.5474011713030746
0.0012745463521778118,0.5474926793557833
0.0012795840847951154,0.5475841874084919
0.0012795840847951154,0.5476756954612005
0.0012896595500297226,0.5476756954612005
0.0012896595500297226,0.5481332357247438
0.0012946972826470263,0.5481332357247438
0.0012946972826470263,0.5484992679355783
0.0012997350152643297,0.5484992679355783
0.0012997350152643297,0.5486822840409956
0.0013047727478816334,0.5486822840409956
0.0013047727478816334,0.5487737920937042
0.001309810480498937,0.5487737920937042
0.001309810480498937,0.5489568081991215
0.0013148482131162406,0.5489568081991215
0.0013148482131162406,0.5500549048316252
0.0013198859457335442,0.5500549048316252
0.0013198859457335442,0.550603953147877
0.0013299614109681514,0.550603953147877
0.0013299614109681514,0.5508784773060029
0.001334999143585455,0.5508784773060029
0.001334999143585455,0.5513360175695461
0.0013400368762027587,0.5513360175695461
0.0013400368762027587,0.551610541727672
0.0013450746088200622,0.551610541727672
0.0013450746088200622,0.5538067349926794
0.001350112341437366,0.5538067349926794
0.001350112341437366,0.5546303074670571
0.0013551500740546696,0.5546303074670571
0.0013551500740546696,0.5550878477306003
0.001360187806671973,0.5550878477306003
0.001360187806671973,0.5555453879941434
0.0013652255392892767,0.5555453879941434
0.0013652255392892767,0.5560029282576867
0.0013702632719065802,0.5560029282576867
0.0013702632719065802,0.5564604685212299
0.0013803387371411876,0.5564604685212299
0.0013803387371411876,0.556918008784773
0.001385376469758491,0.556918008784773
0.001385376469758491,0.5571010248901903
0.0013904142023757947,0.5571010248901903
0.0013904142023757947,0.5578330893118595
0.0013954519349930984,0.5578330893118595
0.0013954519349930984,0.558199121522694
0.0014004896676104018,0.558199121522694
0.0014004896676104018,0.5587481698389458
0.0014055274002277055,0.5587481698389458
0.0014055274002277055,0.5589311859443631
0.00142567833069692,0.5589311859443631
0.00142567833069692,0.5593887262079063
0.0014307160633142235,0.5593887262079063
0.0014307160633142235,0.5595717423133236
0.0014357537959315272,0.5595717423133236
0.0014357537959315272,0.5596632503660323
0.0014407915285488306,0.5596632503660323
0.0014407915285488306,0.5601207906295754
0.001450866993783438,0.5601207906295754
0.001450866993783438,0.5603953147877013
0.0014559047264007415,0.5603953147877013
0.0014559047264007415,0.5606698389458272
0.0014609424590180452,0.5606698389458272
0.0014609424590180452,0.5607613469985359
0.0014659801916353488,0.5607613469985359
0.0014659801916353488,0.5609443631039531
0.0014710179242526523,0.5609443631039531
0.0014710179242526523,0.5610358711566618
0.001476055656869956,0.5610358711566618
0.001476055656869956,0.5614934114202049
0.0014810933894872597,0.5614934114202049
0.0014810933894872597,0.5617679355783309
0.0014861311221045631,0.5617679355783309
0.0014861311221045631,0.5619509516837482
0.0014911688547218668,0.5619509516837482
0.0014911688547218668,0.5627745241581259
0.0014962065873391703,0.5627745241581259
0.0014962065873391703,0.5642386530014641
0.001501244319956474,0.5642386530014641
0.001501244319956474,0.56451317715959
0.0015062820525737776,0.56451317715959
0.0015062820525737776,0.5646046852122987
0.001511319785191081,0.5646046852122987
0.001511319785191081,0.5652452415812591
0.0015163575178083848,0.5652452415812591
0.0015163575178083848,0.5653367496339677
0.001526432983042992,0.5653367496339677
0.001526432983042992,0.5658857979502196
0.0015465839135122064,0.5658857979502196
0.0015465839135122064,0.5659773060029283
0.0015516216461295101,0.5659773060029283
0.0015516216461295101,0.5663433382137628
0.0015616971113641173,0.5663433382137628
0.0015616971113641173,0.5664348462664714
0.0015667348439814207,0.5664348462664714
0.0015667348439814207,0.5667093704245973
0.0015818480418333316,0.5667093704245973
0.0015818480418333316,0.5672584187408491
0.0015868857744506353,0.5672584187408491
0.0015868857744506353,0.5685395314787701
0.001591923507067939,0.5685395314787701
0.001591923507067939,0.5700036603221084
0.0015969612396852424,0.5700036603221084
0.0015969612396852424,0.5716508052708639
0.001601998972302546,0.5716508052708639
0.001601998972302546,0.5717423133235725
0.0016070367049198498,0.5717423133235725
0.0016070367049198498,0.5718338213762811
0.0016221499027717606,0.5718338213762811
0.0016221499027717606,0.5732979502196194
0.001627187635389064,0.5732979502196194
0.001627187635389064,0.5766837481698389
0.0016322253680063677,0.5766837481698389
0.0016322253680063677,0.5767752562225475
0.0016372631006236712,0.5767752562225475
0.0016372631006236712,0.5768667642752562
0.0016423008332409749,0.5768667642752562
0.0016423008332409749,0.5770497803806734
0.0016473385658582786,0.5770497803806734
0.0016473385658582786,0.5771412884333821
0.001652376298475582,0.5771412884333821
0.001652376298475582,0.577690336749634
0.0016674894963274929,0.577690336749634
0.0016674894963274929,0.5779648609077599
0.0016725272289447965,0.5779648609077599
0.0016725272289447965,0.579703513909224
0.0016775649615621002,0.579703513909224
0.0016775649615621002,0.5808931185944363
0.001692678159414011,0.5808931185944363
0.001692678159414011,0.5810761346998536
0.0016977158920313145,0.5810761346998536
0.0016977158920313145,0.5811676427525623
0.0017027536246486182,0.5811676427525623
0.0017027536246486182,0.58199121522694
0.0017077913572659217,0.58199121522694
0.0017077913572659217,0.5828147877013177
0.0017128290898832253,0.5828147877013177
0.0017128290898832253,0.5831808199121523
0.001717866822500529,0.5831808199121523
0.001717866822500529,0.5833638360175696
0.0017229045551178325,0.5833638360175696
0.0017229045551178325,0.5840959004392386
0.0017279422877351362,0.5840959004392386
0.0017279422877351362,0.5842789165446559
0.0017329800203524399,0.5842789165446559
0.0017329800203524399,0.5844619326500732
0.0017380177529697433,0.5844619326500732
0.0017380177529697433,0.5850109809663251
0.001743055485587047,0.5850109809663251
0.001743055485587047,0.5853770131771596
0.0017480932182043507,0.5853770131771596
0.0017480932182043507,0.5857430453879942
0.0017531309508216541,0.5857430453879942
0.0017531309508216541,0.5858345534407028
0.0017632064160562613,0.5858345534407028
0.0017632064160562613,0.58601756954612
0.0017732818812908687,0.58601756954612
0.0017732818812908687,0.5865666178623719
0.0017783196139081721,0.5865666178623719
0.0017783196139081721,0.5873901903367497
0.0017833573465254758,0.5873901903367497
0.0017833573465254758,0.5874816983894583
0.0017883950791427795,0.5874816983894583
0.0017883950791427795,0.5875732064421669
0.001793432811760083,0.5875732064421669
0.001793432811760083,0.5879392386530015
0.0017984705443773866,0.5879392386530015
0.0017984705443773866,0.588305270863836
0.0018035082769946903,0.588305270863836
0.0018035082769946903,0.5884882869692533
0.0018085460096119938,0.5884882869692533
0.0018085460096119938,0.589586383601757
0.0018135837422292975,0.589586383601757
0.0018135837422292975,0.5899524158125915
0.0018236592074639046,0.5899524158125915
0.0018236592074639046,0.5902269399707174
0.0018286969400812083,0.5902269399707174
0.0018286969400812083,0.5913250366032211
0.0018337346726985118,0.5913250366032211
0.0018337346726985118,0.5915080527086384
0.0018387724053158154,0.5915080527086384
0.0018387724053158154,0.5916910688140556
0.0018438101379331191,0.5916910688140556
0.0018438101379331191,0.5924231332357247
0.0018538856031677263,0.5924231332357247
0.0018538856031677263,0.5926976573938506
0.0018639610684023334,0.5926976573938506
0.0018639610684023334,0.5932467057101025
0.001868998801019637,0.5932467057101025
0.001868998801019637,0.5935212298682284
0.0018740365336369408,0.5935212298682284
0.0018740365336369408,0.593887262079063
0.0018790742662542442,0.593887262079063
0.0018790742662542442,0.5939787701317716
0.001884111998871548,0.5939787701317716
0.001884111998871548,0.5940702781844802
0.001894187464106155,0.5940702781844802
0.001894187464106155,0.5941617862371888
0.0018992251967234587,0.5941617862371888
0.0018992251967234587,0.5942532942898975
0.001909300661958066,0.5942532942898975
0.001909300661958066,0.594619326500732
0.0019143383945753696,0.594619326500732
0.0019143383945753696,0.5947108345534406
0.001919376127192673,0.5947108345534406
0.001919376127192673,0.5951683748169839
0.0019244138598099767,0.5951683748169839
0.0019244138598099767,0.5957174231332357
0.0019294515924272804,0.5957174231332357
0.0019294515924272804,0.5958089311859444
0.0019344893250445839,0.5958089311859444
0.0019344893250445839,0.5961749633967789
0.0019395270576618876,0.5961749633967789
0.0019395270576618876,0.5965409956076134
0.0019445647902791912,0.5965409956076134
0.0019445647902791912,0.5966325036603221
0.0019496025228964947,0.5966325036603221
0.0019496025228964947,0.5974560761346999
0.001954640255513798,0.5974560761346999
0.001954640255513798,0.5975475841874085
0.001959677988131102,0.5975475841874085
0.001959677988131102,0.5978221083455344
0.0019647157207484055,0.5978221083455344
0.0019647157207484055,0.5980051244509517
0.001974791185983013,0.5980051244509517
0.001974791185983013,0.5983711566617862
0.0019798289186003164,0.5983711566617862
0.0019798289186003164,0.5985541727672035
0.00198486665121762,0.5985541727672035
0.00198486665121762,0.5986456808199122
0.0019899043838349237,0.5986456808199122
0.0019899043838349237,0.5987371888726208
0.001994942116452227,0.5987371888726208
0.001994942116452227,0.5988286969253295
0.0019999798490695306,0.5988286969253295
0.0019999798490695306,0.5993777452415813
0.0020050175816868345,0.5993777452415813
0.0020050175816868345,0.5996522693997072
0.002010055314304138,0.5996522693997072
0.002010055314304138,0.6000183016105417
0.0020150930469214415,0.6000183016105417
0.0020150930469214415,0.6001098096632503
0.0020201307795387454,0.6001098096632503
0.0020201307795387454,0.6010248901903368
0.002035243977390656,0.6010248901903368
0.002035243977390656,0.601207906295754
0.002045319442625263,0.601207906295754
0.002045319442625263,0.6012994143484627
0.002050357175242567,0.6012994143484627
0.002050357175242567,0.60148243045388
0.0020553949078598705,0.60148243045388
0.0020553949078598705,0.6020314787701317
0.002060432640477174,0.6020314787701317
0.002060432640477174,0.6021229868228404
0.0020654703730944774,0.6021229868228404
0.0020654703730944774,0.6024890190336749
0.0020705081057117813,0.6024890190336749
0.0020705081057117813,0.6027635431918009
0.002075545838329085,0.6027635431918009
0.002075545838329085,0.6028550512445096
0.002085621303563692,0.6028550512445096
0.002085621303563692,0.6032210834553441
0.002095696768798299,0.6032210834553441
0.002095696768798299,0.60349560761347
0.002100734501415603,0.60349560761347
0.002100734501415603,0.6048682284040996
0.0021057722340329064,0.6048682284040996
0.0021057722340329064,0.6051427525622255
0.00211080996665021,0.6051427525622255
0.00211080996665021,0.6052342606149341
0.0021208854318848173,0.6052342606149341
0.0021208854318848173,0.6054172767203514
0.0021259231645021207,0.6054172767203514
0.0021259231645021207,0.6056002928257687
0.0021309608971194246,0.6056002928257687
0.0021309608971194246,0.6060578330893118
0.002135998629736728,0.6060578330893118
0.002135998629736728,0.6071559297218155
0.0021410363623540316,0.6071559297218155
0.0021410363623540316,0.6079795021961932
0.0021460740949713355,0.6079795021961932
0.0021460740949713355,0.6086200585651538
0.002151111827588639,0.6086200585651538
0.002151111827588639,0.6088945827232797
0.0021561495602059424,0.6088945827232797
0.0021561495602059424,0.6091691068814056
0.0021611872928232463,0.6091691068814056
0.0021611872928232463,0.6093521229868228
0.0021662250254405498,0.6093521229868228
0.0021662250254405498,0.6094436310395315
0.0021712627580578532,0.6094436310395315
0.0021712627580578532,0.6099926793557833
0.0021813382232924606,0.6099926793557833
0.0021813382232924606,0.6101756954612005
0.002186375955909764,0.6101756954612005
0.002186375955909764,0.6103587115666179
0.0021964514211443714,0.6103587115666179
0.0021964514211443714,0.6112737920937042
0.0022065268863789783,0.6112737920937042
0.0022065268863789783,0.6113653001464129
0.0022115646189962822,0.6113653001464129
0.0022115646189962822,0.6126464128843339
0.0022166023516135857,0.6126464128843339
0.0022166023516135857,0.6127379209370425
0.002221640084230889,0.6127379209370425
0.002221640084230889,0.614385065885798
0.002226677816848193,0.614385065885798
0.002226677816848193,0.6145680819912153
0.0022317155494654965,0.6145680819912153
0.0022317155494654965,0.6147510980966325
0.0022367532820828,0.6147510980966325
0.0022367532820828,0.6151171303074671
0.002241791014700104,0.6151171303074671
0.002241791014700104,0.6156661786237189
0.0022468287473174074,0.6156661786237189
0.0022468287473174074,0.6159407027818448
0.0022569042125520147,0.6159407027818448
0.0022569042125520147,0.6164897510980967
0.002261941945169318,0.6164897510980967
0.002261941945169318,0.6165812591508053
0.0022669796777866217,0.6165812591508053
0.0022669796777866217,0.6166727672035139
0.0022720174104039256,0.6166727672035139
0.0022720174104039256,0.6169472913616398
0.0022820928756385325,0.6169472913616398
0.0022820928756385325,0.6170387994143485
0.00229216834087314,0.6170387994143485
0.00229216834087314,0.617404831625183
0.0022972060734904433,0.617404831625183
0.0022972060734904433,0.6174963396778916
0.0023022438061077472,0.6175878477306003
0.0023022438061077472,0.6178623718887262
0.0023072815387250507,0.6178623718887262
0.0023072815387250507,0.6179538799414348
0.002312319271342354,0.6179538799414348
0.002312319271342354,0.6180453879941434
0.002317357003959658,0.6180453879941434
0.002317357003959658,0.6183199121522694
0.0023223947365769615,0.6183199121522694
0.0023223947365769615,0.6188689604685212
0.002327432469194265,0.6188689604685212
0.002327432469194265,0.6196010248901903
0.0023375079344288723,0.6196010248901903
0.0023375079344288723,0.6199670571010248
0.0023475833996634793,0.6199670571010248
0.0023475833996634793,0.6200585651537335
0.0023576588648980866,0.6200585651537335
0.0023576588648980866,0.6202415812591509
0.00236269659751539,0.6202415812591509
0.00236269659751539,0.6203330893118595
0.0023727720627499975,0.6203330893118595
0.0023727720627499975,0.6204245973645681
0.002382847527984605,0.6204245973645681
0.002382847527984605,0.6206076134699854
0.0023878852606019083,0.6206076134699854
0.0023878852606019083,0.620699121522694
0.0023929229932192118,0.620699121522694
0.0023929229932192118,0.6211566617862372
0.002402998458453819,0.6211566617862372
0.002402998458453819,0.6216142020497804
0.0024080361910711226,0.6216142020497804
0.0024080361910711226,0.621705710102489
0.00241811165630573,0.621705710102489
0.00241811165630573,0.6218887262079063
0.0024231493889230334,0.6218887262079063
0.0024231493889230334,0.6222547584187409
0.0024281871215403373,0.6222547584187409
0.0024281871215403373,0.6224377745241582
0.002443300319392248,0.6224377745241582
0.002443300319392248,0.6227122986822841
0.0024483380520095516,0.6227122986822841
0.0024483380520095516,0.6228038067349927
0.002453375784626855,0.6228038067349927
0.002453375784626855,0.6228953147877013
0.002468488982478766,0.6228953147877013
0.002468488982478766,0.6232613469985359
0.0024785644477133733,0.6232613469985359
0.0024785644477133733,0.623718887262079
0.0024836021803306767,0.623718887262079
0.0024836021803306767,0.6238103953147877
0.00248863991294798,0.6238103953147877
0.00248863991294798,0.6242679355783309
0.002493677645565284,0.6242679355783309
0.002493677645565284,0.6252745241581259
0.0024987153781825876,0.6252745241581259
0.0024987153781825876,0.6253660322108345
0.002503753110799891,0.6253660322108345
0.002503753110799891,0.6257320644216691
0.0025138285760344984,0.6257320644216691
0.0025138285760344984,0.6258235724743777
0.002518866308651802,0.6258235724743777
0.002518866308651802,0.6260065885797951
0.0025239040412691057,0.6260065885797951
0.0025239040412691057,0.6264641288433382
0.002528941773886409,0.6264641288433382
0.002528941773886409,0.6265556368960469
0.0025339795065037127,0.6265556368960469
0.0025339795065037127,0.6268301610541728
0.0025390172391210166,0.6268301610541728
0.0025390172391210166,0.6272877013177159
0.00254405497173832,0.6272877013177159
0.00254405497173832,0.6280197657393851
0.0025490927043556235,0.6280197657393851
0.0025490927043556235,0.628294289897511
0.0025541304369729274,0.628294289897511
0.0025541304369729274,0.6287518301610542
0.0025642059022075343,0.6287518301610542
0.0025642059022075343,0.6290263543191801
0.0025692436348248382,0.6290263543191801
0.0025692436348248382,0.6292093704245973
0.0025742813674421417,0.6292093704245973
0.0025742813674421417,0.6293923865300146
0.002579319100059445,0.6293923865300146
0.002579319100059445,0.6297584187408491
0.002584356832676749,0.6297584187408491
0.002584356832676749,0.6300329428989752
0.002594432297911356,0.6300329428989752
0.002594432297911356,0.6301244509516838
0.0025994700305286595,0.6301244509516838
0.0025994700305286595,0.6303989751098097
0.0026045077631459634,0.6303989751098097
0.0026045077631459634,0.6309480234260615
0.002609545495763267,0.6309480234260615
0.002609545495763267,0.6314970717423133
0.0026145832283805703,0.6314970717423133
0.0026145832283805703,0.6317715959004392
0.002619620960997874,0.6317715959004392
0.002619620960997874,0.6320461200585652
0.002629696426232481,0.6320461200585652
0.002629696426232481,0.6324121522693997
0.002634734158849785,0.6324121522693997
0.002634734158849785,0.6332357247437774
0.002644809624084392,0.6332357247437774
0.002644809624084392,0.6334187408491947
0.002649847356701696,0.6334187408491947
0.002649847356701696,0.6335102489019033
0.0026548850893189993,0.6335102489019033
0.0026548850893189993,0.633601756954612
0.0026649605545536067,0.633601756954612
0.0026649605545536067,0.6336932650073206
0.00266999828717091,0.6336932650073206
0.00266999828717091,0.633876281112738
0.0026750360197882136,0.633876281112738
0.0026750360197882136,0.6339677891654466
0.0026800737524055175,0.6339677891654466
0.0026800737524055175,0.6342423133235725
0.002685111485022821,0.6342423133235725
0.002685111485022821,0.634608345534407
0.0026901492176401244,0.634608345534407
0.0026901492176401244,0.6353404099560761
0.002700224682874732,0.6353404099560761
0.002700224682874732,0.6355234260614934
0.002710300148109339,0.6355234260614934
0.002710300148109339,0.6360724743777453
0.0027153378807266426,0.6360724743777453
0.0027153378807266426,0.6362554904831625
0.002720375613343946,0.6362554904831625
0.002720375613343946,0.6365300146412884
0.0027254133459612495,0.6365300146412884
0.0027254133459612495,0.6366215226939971
0.002735488811195857,0.6366215226939971
0.002735488811195857,0.6369875549048316
0.0027405265438131604,0.6369875549048316
0.0027405265438131604,0.637902635431918
0.0027506020090477677,0.637902635431918
0.0027506020090477677,0.6387262079062958
0.002760677474282375,0.6387262079062958
0.002760677474282375,0.6388177159590044
0.0027657152068996786,0.6388177159590044
0.0027657152068996786,0.6390007320644217
0.002770752939516982,0.6390007320644217
0.002770752939516982,0.6392752562225475
0.002775790672134286,0.6392752562225475
0.002775790672134286,0.6397327964860908
0.0027909038699861968,0.6397327964860908
0.0027909038699861968,0.6400073206442167
0.0028009793352208037,0.6400073206442167
0.0028009793352208037,0.6409224011713031
0.0028060170678381076,0.6409224011713031
0.0028060170678381076,0.641196925329429
0.002811054800455411,0.641196925329429
0.002811054800455411,0.6415629575402635
0.002826167998307322,0.6415629575402635
0.002826167998307322,0.6422950219619327
0.0028412811961592327,0.6422950219619327
0.0028412811961592327,0.6424780380673499
0.002846318928776536,0.6424780380673499
0.002846318928776536,0.6425695461200586
0.0028563943940111435,0.6425695461200586
0.0028563943940111435,0.6434846266471449
0.0028664698592457505,0.6434846266471449
0.0028664698592457505,0.6441251830161054
0.0028715075918630544,0.6441251830161054
0.0028715075918630544,0.6447657393850659
0.002876545324480358,0.6447657393850659
0.002876545324480358,0.6450402635431918
0.0028815830570976613,0.6450402635431918
0.0028815830570976613,0.645223279648609
0.0028916585223322687,0.645223279648609
0.0028916585223322687,0.6453147877013177
0.0029067717201841795,0.6453147877013177
0.0029067717201841795,0.6458638360175696
0.002911809452801483,0.6458638360175696
0.002911809452801483,0.6462298682284041
0.002916847185418787,0.6462298682284041
0.002916847185418787,0.6464128843338214
0.0029269226506533938,0.6464128843338214
0.0029269226506533938,0.6466874084919473
0.002936998115888001,0.6466874084919473
0.002936998115888001,0.6467789165446559
0.0029420358485053046,0.6467789165446559
0.0029420358485053046,0.6475109809663251
0.002952111313739912,0.6475109809663251
0.002952111313739912,0.6478770131771596
0.0029571490463572154,0.6478770131771596
0.0029571490463572154,0.6484260614934114
0.0029621867789745193,0.6484260614934114
0.0029621867789745193,0.6487005856515373
0.002967224511591823,0.6487005856515373
0.002967224511591823,0.648792093704246
0.00297729997682643,0.648792093704246
0.00297729997682643,0.6488836017569546
0.0029924131746783406,0.6488836017569546
0.0029924131746783406,0.6490666178623719
0.0030075263725302514,0.6490666178623719
0.0030075263725302514,0.6492496339677891
0.0030125641051475553,0.6492496339677891
0.0030125641051475553,0.6494326500732065
0.0030176018377648588,0.6494326500732065
0.0030176018377648588,0.6500732064421669
0.003022639570382162,0.6500732064421669
0.003022639570382162,0.6501647144948756
0.003027677302999466,0.6501647144948756
0.003027677302999466,0.6507137628111274
0.0030327150356167696,0.6507137628111274
0.0030327150356167696,0.6510797950219619
0.003037752768234073,0.6510797950219619
0.003037752768234073,0.6513543191800878
0.003052865966085984,0.6513543191800878
0.003052865966085984,0.6516288433382138
0.0030579036987032878,0.6516288433382138
0.0030579036987032878,0.6519033674963397
0.0030679791639378947,0.6519033674963397
0.0030679791639378947,0.6524524158125915
0.0030730168965551986,0.6524524158125915
0.0030730168965551986,0.6526354319180088
0.003078054629172502,0.6526354319180088
0.003078054629172502,0.6527269399707174
0.0030830923617898055,0.6527269399707174
0.0030830923617898055,0.6529099560761347
0.0030982055596417164,0.6529099560761347
0.0030982055596417164,0.6530014641288433
0.0031032432922590203,0.6530014641288433
0.0031032432922590203,0.6533674963396779
0.0031082810248763237,0.6533674963396779
0.0031082810248763237,0.6535505124450952
0.003118356490110931,0.6535505124450952
0.003118356490110931,0.6538250366032211
0.003128431955345538,0.6538250366032211
0.003128431955345538,0.6542825768667643
0.0031334696879628415,0.6542825768667643
0.0031334696879628415,0.6545571010248902
0.003143545153197449,0.6545571010248902
0.003143545153197449,0.6546486090775988
0.0031485828858147523,0.6546486090775988
0.0031485828858147523,0.6547401171303074
0.003153620618432056,0.6547401171303074
0.003153620618432056,0.6548316251830161
0.0031586583510493597,0.6548316251830161
0.0031586583510493597,0.6550146412884333
0.003168733816283967,0.6550146412884333
0.003168733816283967,0.655380673499268
0.0031737715489012705,0.655380673499268
0.0031737715489012705,0.6559297218155198
0.003178809281518574,0.6559297218155198
0.003178809281518574,0.656112737920937
0.003193922479370485,0.656112737920937
0.003193922479370485,0.656387262079063
0.0031989602119877887,0.656387262079063
0.0031989602119877887,0.6565702781844802
0.0032140734098396995,0.6565702781844802
0.0032140734098396995,0.6567532942898975
0.003219111142457003,0.6567532942898975
0.003219111142457003,0.6568448023426061
0.0032291866076916103,0.6568448023426061
0.0032291866076916103,0.6569363103953147
0.003234224340308914,0.6569363103953147
0.003234224340308914,0.657119326500732
0.003244299805543521,0.657119326500732
0.003244299805543521,0.6572108345534406
0.0032493375381608246,0.6572108345534406
0.0032493375381608246,0.6576683748169839
0.003254375270778128,0.6576683748169839
0.003254375270778128,0.6580344070278185
0.0032745262012473424,0.6580344070278185
0.0032745262012473424,0.6585834553440703
0.0032795639338646463,0.6585834553440703
0.0032795639338646463,0.6586749633967789
0.003294677131716557,0.6586749633967789
0.003294677131716557,0.6589494875549048
0.003309790329568468,0.6589494875549048
0.003309790329568468,0.6591325036603221
0.003319865794803075,0.6591325036603221
0.003319865794803075,0.6592240117130308
0.0033349789926549857,0.6592240117130308
0.0033349789926549857,0.6598645680819912
0.0033400167252722896,0.6598645680819912
0.0033400167252722896,0.6599560761346999
0.003345054457889593,0.6599560761346999
0.003345054457889593,0.6601390922401171
0.0033500921905068965,0.6601390922401171
0.0033500921905068965,0.6603221083455344
0.0033551299231242004,0.6603221083455344
0.0033551299231242004,0.6605966325036603
0.0033652053883588074,0.6605966325036603
0.0033652053883588074,0.6611456808199122
0.0033702431209761113,0.6611456808199122
0.0033702431209761113,0.6616032210834554
0.003380318586210718,0.6616032210834554
0.003380318586210718,0.661694729136164
0.003385356318828022,0.661694729136164
0.003385356318828022,0.6618777452415813
0.0033903940514453256,0.6618777452415813
0.0033903940514453256,0.6630673499267935
0.003395431784062629,0.6630673499267935
0.003395431784062629,0.663707906295754
0.0034004695166799325,0.663707906295754
0.0034004695166799325,0.6638909224011713
0.0034055072492972364,0.6638909224011713
0.0034055072492972364,0.6641654465592972
0.00341054498191454,0.6641654465592972
0.00341054498191454,0.6642569546120058
0.0034155827145318433,0.6642569546120058
0.0034155827145318433,0.6643484626647145
0.003430695912383754,0.6643484626647145
0.003430695912383754,0.664714494875549
0.003445809110235665,0.664714494875549
0.003445809110235665,0.6651720351390923
0.003450846842852969,0.6651720351390923
0.003450846842852969,0.66599560761347
0.0034558845754702723,0.66599560761347
0.0034558845754702723,0.6663616398243045
0.003460922308087576,0.6663616398243045
0.003460922308087576,0.666727672035139
0.0034659600407048797,0.666727672035139
0.0034659600407048797,0.6668191800878477
0.003470997773322183,0.6668191800878477
0.003470997773322183,0.6673682284040996
0.0034810732385567905,0.6673682284040996
0.0034810732385567905,0.6677342606149341
0.0034961864364087014,0.6677342606149341
0.0034961864364087014,0.66800878477306
0.003501224169026005,0.66800878477306
0.003501224169026005,0.6684663250366032
0.0035062619016433083,0.6684663250366032
0.0035062619016433083,0.6686493411420205
0.003511299634260612,0.6686493411420205
0.003511299634260612,0.6687408491947291
0.0035163373668779157,0.6687408491947291
0.0035163373668779157,0.6689238653001464
0.0035264128321125226,0.6689238653001464
0.0035264128321125226,0.6690153733528551
0.00353648829734713,0.6690153733528551
0.00353648829734713,0.6693814055636896
0.0035415260299644334,0.6693814055636896
0.0035415260299644334,0.6694729136163983
0.0035465637625817373,0.6694729136163983
0.0035465637625817373,0.6695644216691069
0.0035516014951990408,0.6695644216691069
0.0035516014951990408,0.6697474377745242
0.003571752425668255,0.6697474377745242
0.003571752425668255,0.6698389458272328
0.003576790158285559,0.6698389458272328
0.003576790158285559,0.6700219619326501
0.0035818278909028624,0.6700219619326501
0.0035818278909028624,0.6702049780380673
0.00359190335613747,0.6702049780380673
0.00359190335613747,0.670296486090776
0.0035969410887547733,0.670296486090776
0.0035969410887547733,0.6706625183016105
0.0036019788213720767,0.6706625183016105
0.0036019788213720767,0.6709370424597365
0.0036070165539893806,0.6709370424597365
0.0036070165539893806,0.6712115666178624
0.0036170920192239876,0.6712115666178624
0.0036170920192239876,0.671303074670571
0.003627167484458595,0.671303074670571
0.003627167484458595,0.6714860907759883
0.0036322052170758984,0.6714860907759883
0.0036322052170758984,0.6716691068814056
0.0036372429496932023,0.6716691068814056
0.0036372429496932023,0.6718521229868228
0.0036422806823105057,0.6718521229868228
0.0036422806823105057,0.6720351390922401
0.003647318414927809,0.6720351390922401
0.003647318414927809,0.6721266471449487
0.003652356147545113,0.6721266471449487
0.003652356147545113,0.672309663250366
0.0036573938801624166,0.672309663250366
0.0036573938801624166,0.6724926793557833
0.003677544810631631,0.6724926793557833
0.003677544810631631,0.6725841874084919
0.003697695741100845,0.6725841874084919
0.003697695741100845,0.6726756954612005
0.003702733473718149,0.6726756954612005
0.003702733473718149,0.6727672035139092
0.0037077712063354525,0.6727672035139092
0.0037077712063354525,0.6728587115666179
0.003712808938952756,0.6728587115666179
0.003712808938952756,0.6730417276720352
0.00371784667157006,0.6730417276720352
0.00371784667157006,0.6731332357247438
0.003727922136804667,0.6731332357247438
0.003727922136804667,0.6740483162518301
0.0037329598694219707,0.6740483162518301
0.0037329598694219707,0.6746888726207906
0.003737997602039274,0.6746888726207906
0.003737997602039274,0.674871888726208
0.0037581485325084885,0.674871888726208
0.0037581485325084885,0.6750549048316252
0.003768223997743096,0.6750549048316252
0.003768223997743096,0.675603953147877
0.0037732617303603993,0.675603953147877
0.0037732617303603993,0.6759699853587116
0.0037833371955950067,0.6759699853587116
0.0037833371955950067,0.6761530014641288
0.00378837492821231,0.6761530014641288
0.00378837492821231,0.6764275256222547
0.0038085258586815244,0.6764275256222547
0.0038085258586815244,0.6767020497803806
0.003818601323916132,0.6767020497803806
0.003818601323916132,0.676885065885798
0.0038236390565334353,0.676885065885798
0.0038236390565334353,0.6770680819912153
0.0038337145217680426,0.6770680819912153
0.0038337145217680426,0.6775256222547584
0.003838752254385346,0.6775256222547584
0.003838752254385346,0.677891654465593
0.00384378998700265,0.677891654465593
0.00384378998700265,0.6782576866764275
0.0038488277196199534,0.6782576866764275
0.0038488277196199534,0.6784407027818448
0.003853865452237257,0.6784407027818448
0.003853865452237257,0.678898243045388
0.003858903184854561,0.678898243045388
0.003858903184854561,0.6795387994143485
0.0038639409174718643,0.6795387994143485
0.0038639409174718643,0.6801793557833089
0.0038740163827064716,0.6801793557833089
0.0038740163827064716,0.6803623718887262
0.003879054115323775,0.6803623718887262
0.003879054115323775,0.6805453879941434
0.003894167313175686,0.6805453879941434
0.003894167313175686,0.6807284040995608
0.0038992050457929894,0.6807284040995608
0.0038992050457929894,0.6809114202049781
0.003909280511027596,0.6809114202049781
0.003909280511027596,0.6812774524158126
0.0039143182436449,0.6812774524158126
0.0039143182436449,0.6814604685212299
0.003929431441496811,0.6814604685212299
0.003929431441496811,0.681918008784773
0.003949582371966026,0.681918008784773
0.003949582371966026,0.6820095168374817
0.003954620104583329,0.6820095168374817
0.003954620104583329,0.6821010248901903
0.0039747710350525435,0.6821010248901903
0.0039747710350525435,0.6821925329428989
0.0039798087676698474,0.6821925329428989
0.0039798087676698474,0.6825585651537335
0.0039848465002871505,0.6825585651537335
0.0039848465002871505,0.6828330893118595
0.003989884232904454,0.6828330893118595
0.003989884232904454,0.6829245973645681
0.003999959698139061,0.6829245973645681
0.003999959698139061,0.6830161054172768
0.004015072895990972,0.6830161054172768
0.004015072895990972,0.6832906295754027
0.004030186093842883,0.6832906295754027
0.004030186093842883,0.6833821376281113
0.004035223826460187,0.6833821376281113
0.004035223826460187,0.6834736456808199
0.004040261559077491,0.6834736456808199
0.004040261559077491,0.6835651537335286
0.004060412489546705,0.6835651537335286
0.004060412489546705,0.6841142020497804
0.0040654502221640085,0.6841142020497804
0.0040654502221640085,0.6842972181551976
0.004070487954781312,0.6842972181551976
0.004070487954781312,0.6846632503660323
0.0040755256873986154,0.6846632503660323
0.0040755256873986154,0.6847547584187409
0.004080563420015919,0.6847547584187409
0.004080563420015919,0.6850292825768668
0.004085601152633223,0.6850292825768668
0.004085601152633223,0.68548682284041
0.004090638885250526,0.68548682284041
0.004090638885250526,0.6856698389458272
0.00409567661786783,0.6856698389458272
0.00409567661786783,0.6859443631039531
0.004100714350485134,0.6859443631039531
0.004100714350485134,0.6864934114202049
0.004115827548337045,0.6864934114202049
0.004115827548337045,0.6866764275256223
0.004120865280954348,0.6866764275256223
0.004120865280954348,0.6869509516837482
0.004130940746188955,0.6869509516837482
0.004130940746188955,0.6870424597364568
0.00415109167665817,0.6870424597364568
0.00415109167665817,0.6871339677891655
0.0041561294092754735,0.6871339677891655
0.0041561294092754735,0.6873169838945827
0.00416620487451008,0.6873169838945827
0.00416620487451008,0.6874084919472914
0.004171242607127384,0.6874084919472914
0.004171242607127384,0.6875
0.004176280339744687,0.6875
0.004176280339744687,0.6875915080527086
0.004186355804979295,0.6875915080527086
0.004186355804979295,0.6878660322108345
0.004191393537596598,0.6878660322108345
0.004191393537596598,0.6884150805270863
0.004196431270213902,0.6884150805270863
0.004196431270213902,0.6886896046852123
0.004206506735448509,0.6886896046852123
0.004206506735448509,0.688781112737921
0.004211544468065813,0.688781112737921
0.004211544468065813,0.6891471449487555
0.004216582200683117,0.6891471449487555
0.004216582200683117,0.6893301610541728
0.00422161993330042,0.6893301610541728
0.00422161993330042,0.6894216691068814
0.0042417708637696346,0.6894216691068814
0.0042417708637696346,0.68951317715959
0.0042468085963869385,0.68951317715959
0.0042468085963869385,0.6897877013177159
0.0042518463290042415,0.6897877013177159
0.0042518463290042415,0.6903367496339677
0.004256884061621545,0.6903367496339677
0.004256884061621545,0.6905197657393851
0.004261921794238849,0.6905197657393851
0.004261921794238849,0.690794289897511
0.00427703499209076,0.690794289897511
0.00427703499209076,0.6909773060029283
0.004292148189942671,0.6909773060029283
0.004292148189942671,0.6911603221083455
0.004307261387794582,0.6911603221083455
0.004307261387794582,0.6916178623718887
0.0043324500508810995,0.6916178623718887
0.0043324500508810995,0.6917093704245973
0.004337487783498403,0.6917093704245973
0.004337487783498403,0.6919838945827232
0.004352600981350314,0.6919838945827232
0.004352600981350314,0.6925329428989752
0.004377789644436832,0.6925329428989752
0.004377789644436832,0.6931734992679356
0.004387865109671439,0.6931734992679356
0.004387865109671439,0.6935395314787701
0.004408016040140654,0.6935395314787701
0.004408016040140654,0.693814055636896
0.004413053772757957,0.693814055636896
0.004413053772757957,0.6940885797950219
0.004418091505375261,0.6940885797950219
0.004418091505375261,0.6941800878477306
0.0044231292379925645,0.6941800878477306
0.0044231292379925645,0.6942715959004392
0.0044281669706098675,0.6942715959004392
0.0044281669706098675,0.6944546120058566
0.004433204703227171,0.6944546120058566
0.004433204703227171,0.6946376281112738
0.004443280168461778,0.6946376281112738
0.004443280168461778,0.6947291361639825
0.004448317901079082,0.6947291361639825
0.004448317901079082,0.6950036603221084
0.004468468831548297,0.6950036603221084
0.004468468831548297,0.6952781844802343
0.004483582029400208,0.6952781844802343
0.004483582029400208,0.6957357247437774
0.004498695227252119,0.6957357247437774
0.004498695227252119,0.6959187408491947
0.004503732959869422,0.6959187408491947
0.004503732959869422,0.6961932650073206
0.0045087706924867256,0.6961932650073206
0.0045087706924867256,0.6964677891654466
0.0045138084251040295,0.6964677891654466
0.0045138084251040295,0.6965592972181552
0.0045188461577213325,0.6965592972181552
0.0045188461577213325,0.6968338213762811
0.004523883890338636,0.6968338213762811
0.004523883890338636,0.697108345534407
0.00452892162295594,0.697108345534407
0.00452892162295594,0.6971998535871157
0.004533959355573243,0.6971998535871157
0.004533959355573243,0.6972913616398243
0.004538997088190547,0.6972913616398243
0.004538997088190547,0.6975658857979502
0.004544034820807851,0.6975658857979502
0.004544034820807851,0.6977489019033675
0.004549072553425154,0.6977489019033675
0.004549072553425154,0.6978404099560761
0.004569223483894369,0.6978404099560761
0.004569223483894369,0.698114934114202
0.004574261216511673,0.698114934114202
0.004574261216511673,0.6982064421669106
0.00458433668174628,0.6982064421669106
0.00458433668174628,0.6982979502196194
0.004589374414363584,0.6982979502196194
0.004589374414363584,0.6985724743777453
0.0046044876122154944,0.6985724743777453
0.0046044876122154944,0.6988469985358712
0.004614563077450101,0.6988469985358712
0.004614563077450101,0.6990300146412884
0.004624638542684708,0.6990300146412884
0.004624638542684708,0.6993045387994143
0.004644789473153923,0.6993045387994143
0.004644789473153923,0.6996705710102489
0.00465486493838853,0.6996705710102489
0.00465486493838853,0.6998535871156661
0.004664940403623137,0.6998535871156661
0.004664940403623137,0.6999450951683748
0.004669978136240441,0.6999450951683748
0.004669978136240441,0.7002196193265008
0.004680053601475048,0.7002196193265008
0.004680053601475048,0.700402635431918
0.004685091334092352,0.700402635431918
0.004685091334092352,0.700677159590044
0.0047002045319442624,0.700677159590044
0.0047002045319442624,0.7007686676427526
0.004705242264561566,0.7007686676427526
0.004705242264561566,0.7009516837481699
0.004720355462413477,0.7009516837481699
0.004720355462413477,0.7010431918008785
0.004735468660265388,0.7010431918008785
0.004735468660265388,0.7012262079062958
0.004745544125499995,0.7012262079062958
0.004745544125499995,0.701409224011713
0.004750581858117299,0.701409224011713
0.004750581858117299,0.7015922401171303
0.004760657323351906,0.7015922401171303
0.004760657323351906,0.7021412884333821
0.004770732788586513,0.7021412884333821
0.004770732788586513,0.7022327964860908
0.004775770521203817,0.7022327964860908
0.004775770521203817,0.7024158125915081
0.004790883719055727,0.7024158125915081
0.004790883719055727,0.7025073206442167
0.004800959184290334,0.7025073206442167
0.004800959184290334,0.7025988286969254
0.004805996916907638,0.7025988286969254
0.004805996916907638,0.702690336749634
0.004811034649524942,0.702690336749634
0.004811034649524942,0.7033308931185944
0.004816072382142245,0.7033308931185944
0.004816072382142245,0.7034224011713031
0.004831185579994156,0.7034224011713031
0.004831185579994156,0.7035139092240117
0.004841261045228764,0.7035139092240117
0.004841261045228764,0.7036054172767203
0.004846298777846067,0.7036054172767203
0.004846298777846067,0.703696925329429
0.004851336510463371,0.703696925329429
0.004851336510463371,0.7040629575402635
0.004881562906167192,0.7040629575402635
0.004881562906167192,0.7041544655929722
0.004886600638784496,0.7041544655929722
0.004886600638784496,0.7042459736456809
0.004891638371401799,0.7042459736456809
0.004891638371401799,0.7044289897510981
0.004896676104019103,0.7044289897510981
0.004896676104019103,0.7046120058565154
0.004901713836636407,0.7046120058565154
0.004901713836636407,0.7048865300146413
0.00490675156925371,0.7048865300146413
0.00490675156925371,0.7049780380673499
0.004916827034488317,0.7049780380673499
0.004916827034488317,0.7051610541727672
0.004921864767105621,0.7051610541727672
0.004921864767105621,0.7052525622254758
0.004926902499722925,0.7052525622254758
0.004926902499722925,0.7053440702781845
0.004931940232340228,0.7053440702781845
0.004931940232340228,0.705710102489019
0.004947053430192139,0.705710102489019
0.004947053430192139,0.7059846266471449
0.0049571288954267465,0.7059846266471449
0.0049571288954267465,0.7061676427525623
0.0049621666280440496,0.7061676427525623
0.0049621666280440496,0.7063506588579795
0.0049672043606613535,0.7063506588579795
0.0049672043606613535,0.7064421669106882
0.004972242093278657,0.7064421669106882
0.004972242093278657,0.7065336749633968
0.00497727982589596,0.7065336749633968
0.00497727982589596,0.7066251830161054
0.004987355291130568,0.7066251830161054
0.004987355291130568,0.7068081991215227
0.004992393023747871,0.7068081991215227
0.004992393023747871,0.70699121522694
0.005007506221599782,0.70699121522694
0.005007506221599782,0.7071742313323572
0.005012543954217086,0.7071742313323572
0.005012543954217086,0.7073572474377745
0.00501758168683439,0.7073572474377745
0.00501758168683439,0.7076317715959004
0.005022619419451693,0.7076317715959004
0.005022619419451693,0.7078147877013177
0.005027657152068997,0.7078147877013177
0.005027657152068997,0.7080893118594437
0.005032694884686301,0.7080893118594437
0.005032694884686301,0.7081808199121523
0.005037732617303604,0.7081808199121523
0.005037732617303604,0.7083638360175696
0.005042770349920908,0.7083638360175696
0.005042770349920908,0.7085468521229868
0.0050528458151555145,0.7085468521229868
0.0050528458151555145,0.70900439238653
0.005057883547772818,0.70900439238653
0.005057883547772818,0.7090959004392386
0.005067959013007425,0.7090959004392386
0.005067959013007425,0.7092789165446559
0.005072996745624729,0.7092789165446559
0.005072996745624729,0.7093704245973645
0.005078034478242033,0.7093704245973645
0.005078034478242033,0.7094619326500732
0.00508810994347664,0.7094619326500732
0.00508810994347664,0.7095534407027818
0.005093147676093944,0.7095534407027818
0.005093147676093944,0.7097364568081991
0.005098185408711247,0.7097364568081991
0.005098185408711247,0.7101024890190337
0.005108260873945855,0.7101024890190337
0.005108260873945855,0.7101939970717424
0.005113298606563158,0.7101939970717424
0.005113298606563158,0.710285505124451
0.005123374071797766,0.710285505124451
0.005123374071797766,0.7105600292825769
0.0051334495370323726,0.7105600292825769
0.0051334495370323726,0.7106515373352855
0.0051435250022669795,0.7106515373352855
0.0051435250022669795,0.7108345534407028
0.005153600467501587,0.7108345534407028
0.005153600467501587,0.7109260614934114
0.005173751397970801,0.7109260614934114
0.005173751397970801,0.71101756954612
0.005183826863205408,0.71101756954612
0.005183826863205408,0.7111090775988287
0.005198940061057319,0.7111090775988287
0.005198940061057319,0.7113836017569546
0.00521405325890923,0.7113836017569546
0.00521405325890923,0.7114751098096632
0.005219090991526534,0.7114751098096632
0.005219090991526534,0.7118411420204978
0.0052291664567611406,0.7118411420204978
0.0052291664567611406,0.7119326500732065
0.005239241921995748,0.7119326500732065
0.005239241921995748,0.7120241581259151
0.005244279654613051,0.7120241581259151
0.005244279654613051,0.7122071742313324
0.005254355119847659,0.7122071742313324
0.005254355119847659,0.7125732064421669
0.005274506050316873,0.7125732064421669
0.005274506050316873,0.7128477306002928
0.005279543782934177,0.7128477306002928
0.005279543782934177,0.7130307467057101
0.005289619248168784,0.7130307467057101
0.005289619248168784,0.713305270863836
0.005294656980786088,0.713305270863836
0.005294656980786088,0.7133967789165446
0.005299694713403392,0.7133967789165446
0.005299694713403392,0.7134882869692533
0.005304732446020695,0.7134882869692533
0.005304732446020695,0.7135797950219619
0.005309770178637999,0.7135797950219619
0.005309770178637999,0.7136713030746705
0.0053148079112553025,0.7136713030746705
0.0053148079112553025,0.7137628111273792
0.005329921109107213,0.7137628111273792
0.005329921109107213,0.7138543191800878
0.005350072039576427,0.7138543191800878
0.005350072039576427,0.7143118594436311
0.005360147504811035,0.7143118594436311
0.005360147504811035,0.7144033674963397
0.005365185237428338,0.7144033674963397
0.005365185237428338,0.7144948755490483
0.005370222970045642,0.7144948755490483
0.005370222970045642,0.7148609077598829
0.005375260702662946,0.7148609077598829
0.005375260702662946,0.7149524158125915
0.005380298435280249,0.7149524158125915
0.005380298435280249,0.7154099560761347
0.005385336167897553,0.7154099560761347
0.005385336167897553,0.7156844802342606
0.005390373900514857,0.7156844802342606
0.005390373900514857,0.7158674963396779
0.0054054870983667675,0.7158674963396779
0.0054054870983667675,0.7159590043923866
0.0054105248309840705,0.7159590043923866
0.0054105248309840705,0.7161420204978038
0.005415562563601374,0.7161420204978038
0.005415562563601374,0.7164165446559297
0.005440751226687892,0.7164165446559297
0.005440751226687892,0.7165080527086384
0.005445788959305196,0.7165080527086384
0.005445788959305196,0.7169655929721815
0.005450826691922499,0.7169655929721815
0.005450826691922499,0.7170571010248902
0.005455864424539803,0.7170571010248902
0.005455864424539803,0.7172401171303074
0.005460902157157107,0.7172401171303074
0.005460902157157107,0.7175146412884333
0.005470977622391714,0.7175146412884333
0.005470977622391714,0.717606149341142
0.005476015355009018,0.717606149341142
0.005476015355009018,0.717880673499268
0.005481053087626321,0.717880673499268
0.005481053087626321,0.7181551976573939
0.005486090820243625,0.7181551976573939
0.005486090820243625,0.7182467057101025
0.0054911285528609285,0.7182467057101025
0.0054911285528609285,0.7183382137628112
0.0055012040180955355,0.7183382137628112
0.0055012040180955355,0.718612737920937
0.005506241750712839,0.718612737920937
0.005506241750712839,0.7189787701317716
0.005511279483330142,0.7189787701317716
0.005511279483330142,0.7191617862371888
0.005516317215947446,0.7191617862371888
0.005516317215947446,0.7192532942898975
0.00552135494856475,0.7192532942898975
0.00552135494856475,0.7193448023426061
0.005536468146416661,0.7193448023426061
0.005536468146416661,0.7195278184480234
0.005551581344268572,0.7195278184480234
0.005551581344268572,0.719619326500732
0.005556619076885875,0.719619326500732
0.005556619076885875,0.7198023426061494
0.005566694542120483,0.7198023426061494
0.005566694542120483,0.719893850658858
0.00557677000735509,0.719893850658858
0.00557677000735509,0.7201683748169839
0.0055818077399723935,0.7201683748169839
0.0055818077399723935,0.7203513909224012
0.005596920937824304,0.7203513909224012
0.005596920937824304,0.7204428989751098
0.005601958670441607,0.7204428989751098
0.005601958670441607,0.7205344070278185
0.005612034135676215,0.7205344070278185
0.005612034135676215,0.7206259150805271
0.005617071868293518,0.7206259150805271
0.005617071868293518,0.7207174231332357
0.005622109600910822,0.7207174231332357
0.005622109600910822,0.720900439238653
0.005632185066145429,0.720900439238653
0.005632185066145429,0.7214494875549048
0.005637222798762733,0.7214494875549048
0.005637222798762733,0.7215409956076134
0.005642260531380037,0.7215409956076134
0.005642260531380037,0.7219985358711567
0.00564729826399734,0.7219985358711567
0.00564729826399734,0.7220900439238653
0.005652335996614644,0.7220900439238653
0.005652335996614644,0.7226390922401171
0.005662411461849251,0.7226390922401171
0.005662411461849251,0.7227306002928258
0.0056775246597011615,0.7227306002928258
0.0056775246597011615,0.7228221083455344
0.005697675590170376,0.7228221083455344
0.005697675590170376,0.7230966325036603
0.00570271332278768,0.7230966325036603
0.00570271332278768,0.7233711566617862
0.00571782652063959,0.7233711566617862
0.00571782652063959,0.7234626647144948
0.005722864253256894,0.7234626647144948
0.005722864253256894,0.7235541727672035
0.005727901985874198,0.7235541727672035
0.005727901985874198,0.7236456808199122
0.005732939718491501,0.7236456808199122
0.005732939718491501,0.7237371888726208
0.005748052916343412,0.7237371888726208
0.005748052916343412,0.7240117130307467
0.0057682038468126265,0.7240117130307467
0.0057682038468126265,0.7241032210834554
0.005778279312047233,0.7241032210834554
0.005778279312047233,0.724194729136164
0.005783317044664537,0.724194729136164
0.005783317044664537,0.7242862371888726
0.005788354777281841,0.7242862371888726
0.005788354777281841,0.7244692532942899
0.005803467975133752,0.7244692532942899
0.005803467975133752,0.7246522693997072
0.005818581172985663,0.7246522693997072
0.005818581172985663,0.7247437774524158
0.00582865663822027,0.7247437774524158
0.00582865663822027,0.7248352855051244
0.005833694370837574,0.7248352855051244
0.005833694370837574,0.7249267935578331
0.005843769836072181,0.7249267935578331
0.005843769836072181,0.725201317715959
0.0058488075686894845,0.725201317715959
0.0058488075686894845,0.7252928257686676
0.0058538453013067876,0.7252928257686676
0.0058538453013067876,0.7253843338213762
0.0058588830339240915,0.7253843338213762
0.0058588830339240915,0.7254758418740849
0.005868958499158698,0.7254758418740849
0.005868958499158698,0.7259333821376281
0.005889109429627913,0.7259333821376281
0.005889109429627913,0.7260248901903368
0.00589918489486252,0.7260248901903368
0.00589918489486252,0.7261163982430454
0.005909260360097128,0.7261163982430454
0.005909260360097128,0.726207906295754
0.005919335825331735,0.726207906295754
0.005919335825331735,0.7262994143484627
0.005924373557949039,0.7262994143484627
0.005924373557949039,0.7263909224011713
0.005929411290566342,0.7263909224011713
0.005929411290566342,0.72648243045388
0.0059394867558009495,0.72648243045388
0.0059394867558009495,0.7265739385065886
0.0059445244884182525,0.7265739385065886
0.0059445244884182525,0.7269399707174231
0.005959637686270163,0.7269399707174231
0.005959637686270163,0.7273060029282576
0.005964675418887467,0.7273060029282576
0.005964675418887467,0.7275805270863837
0.005974750884122074,0.7275805270863837
0.005974750884122074,0.7276720351390923
0.005989864081973985,0.7276720351390923
0.005989864081973985,0.7277635431918009
0.005999939547208592,0.7277635431918009
0.005999939547208592,0.7280380673499268
0.006004977279825896,0.7280380673499268
0.006004977279825896,0.7281295754026355
0.006015052745060503,0.7281295754026355
0.006015052745060503,0.7283125915080527
0.006020090477677807,0.7283125915080527
0.006020090477677807,0.7284040995607614
0.0060352036755297175,0.7284040995607614
0.0060352036755297175,0.72849560761347
0.006040241408147021,0.72849560761347
0.006040241408147021,0.7285871156661786
0.006045279140764324,0.7285871156661786
0.006045279140764324,0.7286786237188873
0.006055354605998932,0.7286786237188873
0.006055354605998932,0.7287701317715959
0.006060392338616235,0.7287701317715959
0.006060392338616235,0.7288616398243045
0.006070467803850843,0.7288616398243045
0.006070467803850843,0.7290446559297218
0.00608054326908545,0.7290446559297218
0.00608054326908545,0.7294106881405563
0.006090618734320057,0.7294106881405563
0.006090618734320057,0.7296852122986823
0.006095656466937361,0.7296852122986823
0.006095656466937361,0.729776720351391
0.006100694199554665,0.729776720351391
0.006100694199554665,0.7298682284040996
0.006105731932171968,0.7298682284040996
0.006105731932171968,0.7300512445095169
0.006120845130023879,0.7300512445095169
0.006120845130023879,0.7303257686676428
0.0061258828626411825,0.7303257686676428
0.0061258828626411825,0.7304172767203514
0.006130920595258486,0.7304172767203514
0.006130920595258486,0.7306002928257687
0.006140996060493093,0.7306002928257687
0.006140996060493093,0.7307833089311859
0.006146033793110397,0.7307833089311859
0.006146033793110397,0.7308748169838946
0.006156109258345004,0.7308748169838946
0.006156109258345004,0.7309663250366032
0.006161146990962308,0.7309663250366032
0.006161146990962308,0.7312408491947291
0.006166184723579611,0.7312408491947291
0.006166184723579611,0.7313323572474377
0.006171222456196915,0.7313323572474377
0.006171222456196915,0.7315153733528551
0.006176260188814219,0.7315153733528551
0.006176260188814219,0.731789897510981
0.006181297921431522,0.731789897510981
0.006181297921431522,0.7319729136163983
0.006186335654048826,0.7319729136163983
0.006186335654048826,0.7320644216691069
0.0062064865845180405,0.7320644216691069
0.0062064865845180405,0.7321559297218155
0.0062115243171353435,0.7321559297218155
0.0062115243171353435,0.7322474377745242
0.0062165620497526474,0.7322474377745242
0.0062165620497526474,0.7325219619326501
0.006221599782369951,0.7325219619326501
0.006221599782369951,0.7326134699853587
0.006226637514987254,0.7326134699853587
0.006226637514987254,0.732796486090776
0.006231675247604558,0.732796486090776
0.006231675247604558,0.7328879941434846
0.006236712980221862,0.7328879941434846
0.006236712980221862,0.7329795021961932
0.006241750712839165,0.7329795021961932
0.006241750712839165,0.7330710102489019
0.006246788445456469,0.7330710102489019
0.006246788445456469,0.7333455344070278
0.006251826178073772,0.7333455344070278
0.006251826178073772,0.7340775988286969
0.00626190164330838,0.7340775988286969
0.00626190164330838,0.7341691068814056
0.006271977108542987,0.7341691068814056
0.006271977108542987,0.7342606149341142
0.006277014841160291,0.7342606149341142
0.006277014841160291,0.7345351390922401
0.006287090306394898,0.7345351390922401
0.006287090306394898,0.7346266471449487
0.0063022035042468085,0.7346266471449487
0.0063022035042468085,0.734809663250366
0.006307241236864112,0.734809663250366
0.006307241236864112,0.7349926793557833
0.006322354434716023,0.7349926793557833
0.006322354434716023,0.7351756954612005
0.006337467632567934,0.7351756954612005
0.006337467632567934,0.7352672035139092
0.006347543097802541,0.7352672035139092
0.006347543097802541,0.7353587115666179
0.006372731760889059,0.7353587115666179
0.006372731760889059,0.7354502196193266
0.0063828072261236666,0.7354502196193266
0.0063828072261236666,0.7357247437774525
0.00638784495874097,0.7357247437774525
0.00638784495874097,0.7358162518301611
0.00640295815659288,0.7358162518301611
0.00640295815659288,0.7359077598828697
0.006407995889210184,0.7359077598828697
0.006407995889210184,0.7359992679355783
0.006413033621827488,0.7359992679355783
0.006413033621827488,0.7363653001464129
0.006428146819679399,0.7363653001464129
0.006428146819679399,0.7364568081991215
0.006433184552296702,0.7364568081991215
0.006433184552296702,0.7369143484626647
0.006438222284914006,0.7369143484626647
0.006438222284914006,0.737097364568082
0.00644326001753131,0.737097364568082
0.00644326001753131,0.7372803806734992
0.006458373215383221,0.7372803806734992
0.006458373215383221,0.737371888726208
0.006488599611087042,0.737371888726208
0.006488599611087042,0.7374633967789166
0.006493637343704345,0.7374633967789166
0.006493637343704345,0.7377379209370425
0.006498675076321649,0.7377379209370425
0.006498675076321649,0.7380124450951684
0.006503712808938953,0.7380124450951684
0.006503712808938953,0.738103953147877
0.00651378827417356,0.738103953147877
0.00651378827417356,0.7381954612005857
0.006523863739408167,0.7381954612005857
0.006523863739408167,0.7382869692532943
0.006528901472025471,0.7382869692532943
0.006528901472025471,0.7384699853587116
0.006533939204642774,0.7384699853587116
0.006533939204642774,0.7385614934114202
0.006549052402494685,0.7385614934114202
0.006549052402494685,0.739110541727672
0.006559127867729293,0.739110541727672
0.006559127867729293,0.739385065885798
0.006564165600346596,0.739385065885798
0.006564165600346596,0.7395680819912153
0.0065692033329638995,0.7395680819912153
0.0065692033329638995,0.7396595900439239
0.006574241065581203,0.7396595900439239
0.006574241065581203,0.7397510980966325
0.0065792787981985065,0.7397510980966325
0.0065792787981985065,0.7400256222547584
0.006604467461285025,0.7400256222547584
0.006604467461285025,0.7401171303074671
0.006609505193902328,0.7401171303074671
0.006609505193902328,0.7402086383601757
0.006619580659136936,0.7402086383601757
0.006619580659136936,0.7404831625183016
0.006634693856988847,0.7404831625183016
0.006634693856988847,0.7405746705710102
0.00663973158960615,0.7405746705710102
0.00663973158960615,0.7406661786237189
0.006654844787458061,0.7406661786237189
0.006654844787458061,0.7407576866764275
0.0066598825200753645,0.7407576866764275
0.0066598825200753645,0.7408491947291361
0.006664920252692668,0.7408491947291361
0.006664920252692668,0.7409407027818448
0.006674995717927275,0.7409407027818448
0.006674995717927275,0.7410322108345534
0.006690108915779186,0.7410322108345534
0.006690108915779186,0.7413067349926794
0.006700184381013793,0.7413067349926794
0.006700184381013793,0.7414897510980967
0.006710259846248401,0.7414897510980967
0.006710259846248401,0.7416727672035139
0.006730410776717615,0.7416727672035139
0.006730410776717615,0.7417642752562226
0.0067404862419522225,0.7417642752562226
0.0067404862419522225,0.7419472913616398
0.006745523974569526,0.7419472913616398
0.006745523974569526,0.7420387994143485
0.0067505617071868295,0.7420387994143485
0.0067505617071868295,0.7421303074670571
0.006755599439804133,0.7421303074670571
0.006755599439804133,0.7424963396778916
0.006760637172421436,0.7424963396778916
0.006760637172421436,0.7426793557833089
0.00676567490503874,0.7426793557833089
0.00676567490503874,0.7428623718887262
0.006770712637656044,0.7428623718887262
0.006770712637656044,0.7430453879941434
0.006800939033359865,0.7430453879941434
0.006800939033359865,0.7431368960468521
0.006811014498594473,0.7431368960468521
0.006811014498594473,0.7432284040995608
0.00682108996382908,0.7432284040995608
0.00682108996382908,0.7433199121522694
0.006826127696446384,0.7433199121522694
0.006826127696446384,0.7434114202049781
0.0068362031616809905,0.7434114202049781
0.0068362031616809905,0.7435944363103953
0.0068462786269155975,0.7435944363103953
0.0068462786269155975,0.743685944363104
0.006861391824767508,0.743685944363104
0.006861391824767508,0.7438689604685212
0.006871467290002116,0.7438689604685212
0.006871467290002116,0.7439604685212299
0.006876505022619419,0.7439604685212299
0.006876505022619419,0.7440519765739385
0.006881542755236723,0.7440519765739385
0.006881542755236723,0.7443265007320644
0.006886580487854027,0.7443265007320644
0.006886580487854027,0.7446010248901903
0.00689161822047133,0.7446010248901903
0.00689161822047133,0.7446925329428989
0.006896655953088634,0.7446925329428989
0.006896655953088634,0.7447840409956076
0.006901693685705938,0.7447840409956076
0.006901693685705938,0.7448755490483162
0.006911769150940545,0.7448755490483162
0.006911769150940545,0.7452415812591509
0.006916806883557849,0.7452415812591509
0.006916806883557849,0.7453330893118595
0.006921844616175152,0.7453330893118595
0.006921844616175152,0.7454245973645681
0.0069268823487924555,0.7454245973645681
0.0069268823487924555,0.7455161054172768
0.0069369578140270624,0.7455161054172768
0.0069369578140270624,0.7458821376281113
0.006957108744496277,0.7458821376281113
0.006957108744496277,0.7459736456808199
0.006977259674965492,0.7459736456808199
0.006977259674965492,0.7463396778916545
0.006982297407582795,0.7463396778916545
0.006982297407582795,0.7464311859443631
0.006992372872817403,0.7464311859443631
0.006992372872817403,0.7467972181551976
0.007012523803286617,0.7467972181551976
0.007012523803286617,0.7468887262079063
0.0070175615359039205,0.7468887262079063
0.0070175615359039205,0.7469802342606149
0.007022599268521224,0.7469802342606149
0.007022599268521224,0.7470717423133236
0.007042750198990438,0.7470717423133236
0.007042750198990438,0.7471632503660323
0.007047787931607742,0.7471632503660323
0.007047787931607742,0.7475292825768668
0.007052825664225045,0.7475292825768668
0.007052825664225045,0.7476207906295754
0.007057863396842349,0.7476207906295754
0.007057863396842349,0.7478953147877013
0.007062901129459653,0.7478953147877013
0.007062901129459653,0.74798682284041
0.00707297659469426,0.74798682284041
0.00707297659469426,0.7480783308931186
0.007078014327311564,0.7480783308931186
0.007078014327311564,0.7481698389458272
0.007088089792546171,0.7481698389458272
0.007088089792546171,0.7484443631039531
0.007098165257780778,0.7484443631039531
0.007098165257780778,0.7485358711566618
0.0071032029903980816,0.7485358711566618
0.0071032029903980816,0.748718887262079
0.007133429386101903,0.748718887262079
0.007133429386101903,0.7488103953147877
0.00714350485133651,0.7488103953147877
0.00714350485133651,0.7489934114202049
0.007148542583953814,0.7489934114202049
0.007148542583953814,0.7490849194729137
0.007158618049188421,0.7490849194729137
0.007158618049188421,0.7491764275256223
0.007168693514423029,0.7491764275256223
0.007168693514423029,0.7492679355783309
0.0071938821775095465,0.7492679355783309
0.0071938821775095465,0.7493594436310396
0.0072039576427441535,0.7493594436310396
0.0072039576427441535,0.75
0.007219070840596064,0.75
0.007219070840596064,0.7500915080527086
0.007234184038447975,0.7500915080527086
0.007234184038447975,0.7501830161054173
0.007239221771065279,0.7501830161054173
0.007239221771065279,0.7502745241581259
0.007249297236299886,0.7502745241581259
0.007249297236299886,0.7504575402635432
0.007269448166769101,0.7504575402635432
0.007269448166769101,0.7505490483162518
0.007304712295090226,0.7505490483162518
0.007304712295090226,0.7506405563689604
0.007319825492942136,0.7506405563689604
0.007319825492942136,0.7507320644216691
0.00732486322555944,0.7507320644216691
0.00732486322555944,0.7508235724743777
0.007334938690794047,0.7508235724743777
0.007334938690794047,0.7509150805270863
0.007350051888645958,0.7509150805270863
0.007350051888645958,0.7510065885797951
0.007355089621263262,0.7510065885797951
0.007355089621263262,0.7513726207906296
0.007360127353880566,0.7513726207906296
0.007360127353880566,0.7514641288433382
0.007390353749584387,0.7514641288433382
0.007390353749584387,0.7515556368960469
0.007400429214818994,0.7515556368960469
0.007400429214818994,0.7517386530014641
0.007410504680053601,0.7517386530014641
0.007410504680053601,0.7518301610541728
0.007415542412670905,0.7518301610541728
0.007415542412670905,0.7519216691068814
0.007430655610522816,0.7519216691068814
0.007430655610522816,0.75201317715959
0.00743569334314012,0.75201317715959
0.00743569334314012,0.7522877013177159
0.0074608820062266375,0.7522877013177159
0.0074608820062266375,0.7526537335285505
0.0074659197388439414,0.7526537335285505
0.0074659197388439414,0.7527452415812591
0.007475995204078548,0.7527452415812591
0.007475995204078548,0.7530197657393851
0.007481032936695852,0.7530197657393851
0.007481032936695852,0.7531112737920937
0.007486070669313155,0.7531112737920937
0.007486070669313155,0.7534773060029283
0.007496146134547763,0.7534773060029283
0.007496146134547763,0.7536603221083455
0.007516297065016977,0.7536603221083455
0.007516297065016977,0.7537518301610542
0.007521334797634281,0.7537518301610542
0.007521334797634281,0.7538433382137628
0.007536447995486192,0.7538433382137628
0.007536447995486192,0.7539348462664714
0.007541485728103496,0.7539348462664714
0.007541485728103496,0.7542093704245973
0.0075515611933381025,0.7542093704245973
0.0075515611933381025,0.7543923865300146
0.007556598925955406,0.7543923865300146
0.007556598925955406,0.7545754026354319
0.007566674391190013,0.7545754026354319
0.007566674391190013,0.7547584187408491
0.00757674985642462,0.7547584187408491
0.00757674985642462,0.7550329428989752
0.007612013984745746,0.7550329428989752
0.007612013984745746,0.7551244509516838
0.007622089449980353,0.7551244509516838
0.007622089449980353,0.7554904831625183
0.007627127182597657,0.7554904831625183
0.007627127182597657,0.7556734992679356
0.00763216491521496,0.7556734992679356
0.00763216491521496,0.7558565153733529
0.0076422403804495675,0.7558565153733529
0.0076422403804495675,0.7559480234260615
0.007662391310918781,0.7559480234260615
0.007662391310918781,0.7560395314787701
0.007667429043536085,0.7560395314787701
0.007667429043536085,0.7561310395314788
0.007672466776153389,0.7561310395314788
0.007672466776153389,0.756314055636896
0.007677504508770692,0.756314055636896
0.007677504508770692,0.7564055636896047
0.007682542241387996,0.7564055636896047
0.007682542241387996,0.7564970717423133
0.007697655439239907,0.7564970717423133
0.007697655439239907,0.7565885797950219
0.007702693171857211,0.7565885797950219
0.007702693171857211,0.7566800878477306
0.007707730904474514,0.7566800878477306
0.007707730904474514,0.7567715959004392
0.007712768637091818,0.7567715959004392
0.007712768637091818,0.7568631039531479
0.0077329195675610325,0.7568631039531479
0.0077329195675610325,0.7569546120058566
0.007793372358968676,0.7569546120058566
0.007793372358968676,0.7571376281112738
0.007798410091585979,0.7571376281112738
0.007798410091585979,0.7573206442166911
0.007803447824203283,0.7573206442166911
0.007803447824203283,0.7579612005856515
0.007808485556820587,0.7579612005856515
0.007808485556820587,0.7580527086383602
0.00781352328943789,0.7580527086383602
0.00781352328943789,0.7582357247437774
0.007838711952524408,0.7582357247437774
0.007838711952524408,0.7583272327964861
0.007848787417759014,0.7583272327964861
0.007848787417759014,0.7584187408491947
0.007853825150376319,0.7584187408491947
0.007853825150376319,0.7585102489019033
0.007889089278697444,0.7585102489019033
0.007889089278697444,0.758601756954612
0.007909240209166658,0.758601756954612
0.007909240209166658,0.7586932650073206
0.007924353407018568,0.7586932650073206
0.007924353407018568,0.7587847730600292
0.007929391139635873,0.7587847730600292
0.007929391139635873,0.7589677891654466
0.007944504337487784,0.7589677891654466
0.007944504337487784,0.7590592972181552
0.007949542070105087,0.7590592972181552
0.007949542070105087,0.7591508052708639
0.007969693000574301,0.7591508052708639
0.007969693000574301,0.7594253294289898
0.007974730733191606,0.7594253294289898
0.007974730733191606,0.7596998535871157
0.00799488166366082,0.7596998535871157
0.00799488166366082,0.7597913616398243
0.00800999486151273,0.7597913616398243
0.00800999486151273,0.7598828696925329
0.008020070326747338,0.7598828696925329
0.008020070326747338,0.7600658857979502
0.008025108059364641,0.7600658857979502
0.008025108059364641,0.7601573938506588
0.008045258989833855,0.7601573938506588
0.008045258989833855,0.7602489019033675
0.00805029672245116,0.7602489019033675
0.00805029672245116,0.760614934114202
0.008080523118154982,0.760614934114202
0.008080523118154982,0.7607979502196194
0.008085560850772285,0.7607979502196194
0.008085560850772285,0.760889458272328
0.008095636316006892,0.760889458272328
0.008095636316006892,0.7609809663250366
0.008100674048624195,0.7609809663250366
0.008100674048624195,0.7611639824304539
0.008115787246476106,0.7611639824304539
0.008115787246476106,0.7614385065885798
0.008146013642179928,0.7614385065885798
0.008146013642179928,0.7615300146412884
0.008156089107414536,0.7615300146412884
0.008156089107414536,0.7616215226939971
0.008171202305266446,0.7616215226939971
0.008171202305266446,0.7617130307467057
0.008186315503118357,0.7617130307467057
0.008186315503118357,0.7618045387994143
0.00819135323573566,0.7618045387994143
0.00819135323573566,0.761896046852123
0.008221579631439482,0.761896046852123
0.008221579631439482,0.7619875549048316
0.008226617364056785,0.7619875549048316
0.008226617364056785,0.7620790629575402
0.00823165509667409,0.7620790629575402
0.00823165509667409,0.7621705710102489
0.008236692829291393,0.7621705710102489
0.008236692829291393,0.7622620790629575
0.008251806027143304,0.7622620790629575
0.008251806027143304,0.7624450951683748
0.008256843759760607,0.7624450951683748
0.008256843759760607,0.7625366032210834
0.00826188149237791,0.7625366032210834
0.00826188149237791,0.762628111273792
0.008282032422847125,0.762628111273792
0.008282032422847125,0.7630856515373353
0.008287070155464428,0.7630856515373353
0.008287070155464428,0.7634516837481699
0.008297145620699036,0.7634516837481699
0.008297145620699036,0.7635431918008785
0.00830218335331634,0.7635431918008785
0.00830218335331634,0.7636346998535871
0.00831729655116825,0.7636346998535871
0.00831729655116825,0.763909224011713
0.008322334283785553,0.763909224011713
0.008322334283785553,0.7640922401171303
0.008342485214254769,0.7640922401171303
0.008342485214254769,0.7641837481698389
0.00835759841210668,0.7641837481698389
0.00835759841210668,0.7642752562225475
0.008362636144723982,0.7642752562225475
0.008362636144723982,0.7644582723279648
0.008367673877341286,0.7644582723279648
0.008367673877341286,0.7645497803806734
0.008377749342575893,0.7645497803806734
0.008377749342575893,0.7646412884333821
0.008382787075193196,0.7646412884333821
0.008382787075193196,0.7647327964860908
0.008423088936131626,0.7647327964860908
0.008423088936131626,0.7648243045387995
0.008428126668748929,0.7648243045387995
0.008428126668748929,0.7650073206442167
0.008433164401366234,0.7650073206442167
0.008433164401366234,0.7650988286969254
0.008438202133983537,0.7650988286969254
0.008438202133983537,0.7654648609077599
0.008448277599218144,0.7654648609077599
0.008448277599218144,0.7656478770131772
0.008453315331835447,0.7656478770131772
0.008453315331835447,0.7658308931185944
0.008468428529687358,0.7658308931185944
0.008468428529687358,0.7660139092240117
0.008473466262304661,0.7660139092240117
0.008473466262304661,0.7661054172767203
0.008483541727539269,0.7661054172767203
0.008483541727539269,0.766196925329429
0.008503692658008483,0.766196925329429
0.008503692658008483,0.7662884333821376
0.008508730390625788,0.7662884333821376
0.008508730390625788,0.7663799414348462
0.008533919053712305,0.7663799414348462
0.008533919053712305,0.7664714494875549
0.00853895678632961,0.7664714494875549
0.00853895678632961,0.7667459736456809
0.00855406998418152,0.7667459736456809
0.00855406998418152,0.7668374816983895
0.008569183182033431,0.7668374816983895
0.008569183182033431,0.7670204978038068
0.008574220914650734,0.7670204978038068
0.008574220914650734,0.767203513909224
0.008584296379885342,0.767203513909224
0.008584296379885342,0.7672950219619327
0.008589334112502645,0.7672950219619327
0.008589334112502645,0.7673865300146413
0.008594371845119948,0.7673865300146413
0.008594371845119948,0.7674780380673499
0.008599409577737253,0.7674780380673499
0.008599409577737253,0.7675695461200586
0.008604447310354556,0.7675695461200586
0.008604447310354556,0.7676610541727672
0.008609485042971859,0.7676610541727672
0.008609485042971859,0.7677525622254758
0.008629635973441074,0.7677525622254758
0.008629635973441074,0.7678440702781845
0.008634673706058377,0.7678440702781845
0.008634673706058377,0.7680270863836017
0.008664900101762199,0.7680270863836017
0.008664900101762199,0.7681185944363104
0.008669937834379502,0.7681185944363104
0.008669937834379502,0.7683016105417276
0.008690088764848718,0.7683016105417276
0.008690088764848718,0.7683931185944363
0.008710239695317932,0.7683931185944363
0.008710239695317932,0.7687591508052709
0.008715277427935235,0.7687591508052709
0.008715277427935235,0.7690336749633968
0.00872031516055254,0.7690336749633968
0.00872031516055254,0.7692166910688141
0.008725352893169842,0.7692166910688141
0.008725352893169842,0.7695827232796486
0.008740466091021753,0.7695827232796486
0.008740466091021753,0.7696742313323572
0.008760617021490967,0.7696742313323572
0.008760617021490967,0.7697657393850659
0.008780767951960181,0.7697657393850659
0.008780767951960181,0.7698572474377745
0.008785805684577486,0.7698572474377745
0.008785805684577486,0.7699487554904831
0.008795881149812092,0.7699487554904831
0.008795881149812092,0.7700402635431918
0.008800918882429397,0.7700402635431918
0.008800918882429397,0.7701317715959004
0.008810994347664003,0.7701317715959004
0.008810994347664003,0.7703147877013177
0.008816032080281307,0.7703147877013177
0.008816032080281307,0.7704062957540263
0.008826107545515913,0.7704062957540263
0.008826107545515913,0.7704978038067349
0.008841220743367824,0.7704978038067349
0.008841220743367824,0.7705893118594437
0.008851296208602432,0.7705893118594437
0.008851296208602432,0.770772327964861
0.008856333941219735,0.770772327964861
0.008856333941219735,0.7708638360175696
0.00886137167383704,0.7708638360175696
0.00886137167383704,0.7709553440702782
0.008881522604306254,0.7709553440702782
0.008881522604306254,0.7710468521229868
0.008891598069540861,0.7710468521229868
0.008891598069540861,0.7713213762811127
0.008896635802158165,0.7713213762811127
0.008896635802158165,0.7714128843338214
0.008906711267392772,0.7714128843338214
0.008906711267392772,0.77150439238653
0.008911749000010075,0.77150439238653
0.008911749000010075,0.7717789165446559
0.008936937663096594,0.7717789165446559
0.008936937663096594,0.7718704245973645
0.008941975395713897,0.7718704245973645
0.008941975395713897,0.7719619326500732
0.008952050860948505,0.7719619326500732
0.008952050860948505,0.7720534407027818
0.00896212632618311,0.7720534407027818
0.00896212632618311,0.7722364568081991
0.008967164058800416,0.7722364568081991
0.008967164058800416,0.7723279648609077
0.008977239524035022,0.7723279648609077
0.008977239524035022,0.7724194729136163
0.00898731498926963,0.7724194729136163
0.008997390454504237,0.7724194729136163
0.009012503652356148,0.7724194729136163
0.009012503652356148,0.7725109809663251
0.009022579117590754,0.7725109809663251
0.009022579117590754,0.7726024890190337
0.009037692315442665,0.7726024890190337
0.009037692315442665,0.7728770131771596
0.00905784324591188,0.7728770131771596
0.00905784324591188,0.7729685212298683
0.009072956443763791,0.7729685212298683
0.009072956443763791,0.7731515373352855
0.009083031908998397,0.7731515373352855
0.009083031908998397,0.77351756954612
0.009093107374233005,0.77351756954612
0.009093107374233005,0.7736090775988287
0.009098145106850308,0.7736090775988287
0.009098145106850308,0.7737005856515373
0.00911325830470222,0.7737005856515373
0.00911325830470222,0.7739751098096632
0.009123333769936827,0.7739751098096632
0.009123333769936827,0.7743411420204978
0.00912837150255413,0.7743411420204978
0.00912837150255413,0.7744326500732065
0.009138446967788738,0.7744326500732065
0.009138446967788738,0.7745241581259151
0.00914348470040604,0.7745241581259151
0.00914348470040604,0.7747071742313324
0.009153560165640649,0.7747071742313324
0.009153560165640649,0.774798682284041
0.00916867336349256,0.774798682284041
0.00916867336349256,0.7748901903367497
0.00918378656134447,0.7748901903367497
0.00918378656134447,0.7749816983894583
0.009188824293961773,0.7749816983894583
0.009188824293961773,0.7751647144948756
0.009208975224430989,0.7751647144948756
0.009208975224430989,0.7752562225475842
0.009229126154900203,0.7752562225475842
0.009229126154900203,0.7754392386530015
0.009254314817986721,0.7754392386530015
0.009254314817986721,0.7755307467057101
0.009269428015838632,0.7755307467057101
0.009269428015838632,0.7756222547584187
0.009274465748455935,0.7756222547584187
0.009274465748455935,0.775805270863836
0.009299654411542452,0.775805270863836
0.009299654411542452,0.7758967789165446
0.009314767609394363,0.7758967789165446
0.009314767609394363,0.7759882869692533
0.009319805342011668,0.7759882869692533
0.009319805342011668,0.7763543191800878
0.009339956272480882,0.7763543191800878
0.009339956272480882,0.7764458272327965
0.009344994005098185,0.7764458272327965
0.009344994005098185,0.7766288433382138
0.009355069470332792,0.7766288433382138
0.009355069470332792,0.7767203513909224
0.009410484529123133,0.7767203513909224
0.009410484529123133,0.7768118594436311
0.009415522261740436,0.7768118594436311
0.009415522261740436,0.7769033674963397
0.00943567319220965,0.7769033674963397
0.00943567319220965,0.7769948755490483
0.009440710924826954,0.7769948755490483
0.009440710924826954,0.777086383601757
0.00945078639006156,0.777086383601757
0.00945078639006156,0.7771778916544656
0.009465899587913471,0.7771778916544656
0.009465899587913471,0.7773609077598829
0.009481012785765382,0.7773609077598829
0.009481012785765382,0.7774524158125915
0.009486050518382687,0.7774524158125915
0.009486050518382687,0.7775439238653001
0.009501163716234598,0.7775439238653001
0.009501163716234598,0.7776354319180088
0.0095062014488519,0.7776354319180088
0.0095062014488519,0.777818448023426
0.009516276914086508,0.777818448023426
0.009516276914086508,0.7780929721815519
0.009556578775024936,0.7780929721815519
0.009556578775024936,0.7786420204978038
0.009576729705494152,0.7786420204978038
0.009576729705494152,0.7788250366032211
0.009586805170728758,0.7788250366032211
0.009586805170728758,0.7789165446559297
0.009591842903346063,0.7789165446559297
0.009591842903346063,0.7790080527086384
0.009596880635963366,0.7790080527086384
0.009596880635963366,0.779099560761347
0.009601918368580669,0.779099560761347
0.009601918368580669,0.7791910688140556
0.009606956101197973,0.7791910688140556
0.009606956101197973,0.7794655929721815
0.009611993833815276,0.7794655929721815
0.009611993833815276,0.7795571010248902
0.00961703156643258,0.7795571010248902
0.00961703156643258,0.7797401171303074
0.00963214476428449,0.7797401171303074
0.00963214476428449,0.7798316251830161
0.009657333427371009,0.7798316251830161
0.009657333427371009,0.7799231332357247
0.009662371159988312,0.7799231332357247
0.009662371159988312,0.780106149341142
0.009697635288309438,0.780106149341142
0.009697635288309438,0.7801976573938506
0.00971274848616135,0.7801976573938506
0.00971274848616135,0.7804721815519766
0.009717786218778652,0.7804721815519766
0.009717786218778652,0.7805636896046853
0.009732899416630563,0.7805636896046853
0.009732899416630563,0.7808382137628112
0.009748012614482474,0.7808382137628112
0.009748012614482474,0.7810212298682284
0.009768163544951688,0.7810212298682284
0.009768163544951688,0.781112737920937
0.009773201277568993,0.781112737920937
0.009773201277568993,0.7812042459736457
0.009783276742803599,0.7812042459736457
0.009783276742803599,0.7812957540263543
0.009788314475420903,0.7812957540263543
0.009788314475420903,0.7817532942898975
0.00979838994065551,0.7817532942898975
0.00979838994065551,0.7818448023426061
0.009808465405890117,0.7818448023426061
0.009808465405890117,0.7819363103953147
0.00981350313850742,0.7819363103953147
0.00981350313850742,0.7820278184480234
0.009848767266828545,0.7820278184480234
0.009848767266828545,0.782119326500732
0.009858842732063153,0.782119326500732
0.009858842732063153,0.7822108345534406
0.009884031395149671,0.7822108345534406
0.009884031395149671,0.782393850658858
0.009909220058236188,0.782393850658858
0.009909220058236188,0.7824853587115667
0.009924333256088099,0.7824853587115667
0.009924333256088099,0.7826683748169839
0.009929370988705404,0.7826683748169839
0.009929370988705404,0.7829428989751098
0.00993944645394001,0.7829428989751098
0.00993944645394001,0.7830344070278185
0.009959597384409226,0.7830344070278185
0.009959597384409226,0.7832174231332357
0.009964635117026529,0.7832174231332357
0.009964635117026529,0.783400439238653
0.009974710582261136,0.783400439238653
0.009974710582261136,0.7834919472913616
0.009984786047495742,0.7834919472913616
0.009984786047495742,0.7835834553440703
0.009989823780113047,0.7835834553440703
0.009989823780113047,0.7836749633967789
0.00999486151273035,0.7836749633967789
0.00999486151273035,0.7837664714494875
0.010009974710582261,0.7837664714494875
0.010009974710582261,0.7838579795021962
0.010025087908434172,0.7838579795021962
0.010025087908434172,0.7840409956076134
0.010030125641051475,0.7840409956076134
0.010030125641051475,0.7841325036603221
0.010040201106286083,0.7841325036603221
0.010040201106286083,0.7843155197657394
0.010060352036755297,0.7843155197657394
0.010060352036755297,0.7844070278184481
0.010065389769372601,0.7844070278184481
0.010065389769372601,0.7845900439238653
0.010075465234607207,0.7845900439238653
0.010075465234607207,0.7847730600292826
0.010090578432459118,0.7847730600292826
0.010090578432459118,0.7848645680819912
0.010105691630311029,0.7848645680819912
0.010105691630311029,0.7849560761346999
0.01013591802601485,0.7849560761346999
0.01013591802601485,0.7851390922401171
0.010140955758632155,0.7851390922401171
0.010140955758632155,0.7853221083455344
0.010145993491249458,0.7853221083455344
0.010145993491249458,0.785413616398243
0.010151031223866762,0.785413616398243
0.010151031223866762,0.7855051244509517
0.010156068956484066,0.7855051244509517
0.010156068956484066,0.7856881405563689
0.010166144421718672,0.7856881405563689
0.010166144421718672,0.7857796486090776
0.010171182154335977,0.7857796486090776
0.010171182154335977,0.7858711566617862
0.010181257619570583,0.7858711566617862
0.010181257619570583,0.7859626647144948
0.010186295352187888,0.7859626647144948
0.010186295352187888,0.7860541727672035
0.010191333084805191,0.7860541727672035
0.010191333084805191,0.7861456808199122
0.010201408550039799,0.7861456808199122
0.010201408550039799,0.7864202049780381
0.010206446282657102,0.7864202049780381
0.010206446282657102,0.7865117130307467
0.010211484015274405,0.7865117130307467
0.010211484015274405,0.786694729136164
0.010236672678360923,0.786694729136164
0.010236672678360923,0.7870607613469985
0.010241710410978227,0.7870607613469985
0.010241710410978227,0.7871522693997072
0.010251785876212834,0.7871522693997072
0.010251785876212834,0.787701317715959
0.010261861341447442,0.787701317715959
0.010261861341447442,0.7881588579795022
0.010276974539299353,0.7881588579795022
0.010276974539299353,0.7883418740849195
0.010282012271916656,0.7883418740849195
0.010282012271916656,0.7884333821376281
0.010312238667620478,0.7884333821376281
0.010312238667620478,0.7886163982430454
0.01031727640023778,0.7886163982430454
0.01031727640023778,0.7888909224011713
0.010322314132855085,0.7888909224011713
0.010322314132855085,0.78898243045388
0.0103424650633243,0.78898243045388
0.0103424650633243,0.7890739385065886
0.01035757826117621,0.7890739385065886
0.01035757826117621,0.7891654465592972
0.010367653726410816,0.7891654465592972
0.010367653726410816,0.7892569546120058
0.010372691459028121,0.7892569546120058
0.010372691459028121,0.7898060029282576
0.010387804656880032,0.7898060029282576
0.010387804656880032,0.7898975109809663
0.010418031052583853,0.7898975109809663
0.010418031052583853,0.7900805270863837
0.010423068785201156,0.7900805270863837
0.010423068785201156,0.7902635431918009
0.010433144250435764,0.7902635431918009
0.010433144250435764,0.7906295754026355
0.010438181983053067,0.7906295754026355
0.010438181983053067,0.7909040995607614
0.010478483843991497,0.7909040995607614
0.010478483843991497,0.79099560761347
0.010488559309226103,0.79099560761347
0.010488559309226103,0.7911786237188873
0.010508710239695318,0.7911786237188873
0.010508710239695318,0.7913616398243045
0.010513747972312621,0.7913616398243045
0.010513747972312621,0.7914531478770132
0.010518785704929924,0.7914531478770132
0.010518785704929924,0.7915446559297218
0.01052382343754723,0.7915446559297218
0.01052382343754723,0.7916361639824304
0.01053893663539914,0.7916361639824304
0.01053893663539914,0.7919106881405563
0.010543974368016443,0.7919106881405563
0.010543974368016443,0.7920937042459737
0.010559087565868354,0.7920937042459737
0.010559087565868354,0.792276720351391
0.010574200763720265,0.792276720351391
0.010574200763720265,0.7926427525622255
0.010584276228954873,0.7926427525622255
0.010584276228954873,0.7928257686676428
0.010589313961572176,0.7928257686676428
0.010589313961572176,0.79300878477306
0.010594351694189479,0.79300878477306
0.010594351694189479,0.7931002928257687
0.0106245780898933,0.7931002928257687
0.0106245780898933,0.7932833089311859
0.010685030881300944,0.7932833089311859
0.010685030881300944,0.7937408491947291
0.010715257277004765,0.7937408491947291
0.010715257277004765,0.7939238653001464
0.010725332742239373,0.7939238653001464
0.010725332742239373,0.7940153733528551
0.010730370474856676,0.7940153733528551
0.010730370474856676,0.7941983894582724
0.010750521405325892,0.7941983894582724
0.010750521405325892,0.794289897510981
0.010755559137943195,0.794289897510981
0.010755559137943195,0.7944729136163983
0.010765634603177802,0.7944729136163983
0.010765634603177802,0.7945644216691069
0.010775710068412409,0.7945644216691069
0.010775710068412409,0.7946559297218155
0.010785785533647016,0.7946559297218155
0.010785785533647016,0.7947474377745242
0.010810974196733535,0.7947474377745242
0.010810974196733535,0.7949304538799414
0.010886540185993089,0.7949304538799414
0.010886540185993089,0.7954795021961932
0.010891577918610392,0.7954795021961932
0.010891577918610392,0.7955710102489019
0.010921804314314214,0.7955710102489019
0.010921804314314214,0.7957540263543191
0.010936917512166125,0.7957540263543191
0.010936917512166125,0.7958455344070278
0.010957068442635338,0.7958455344070278
0.010957068442635338,0.7962115666178624
0.010962106175252641,0.7962115666178624
0.010962106175252641,0.796303074670571
0.010977219373104552,0.796303074670571
0.010977219373104552,0.7963945827232797
0.01098729483833916,0.7963945827232797
0.01098729483833916,0.7964860907759883
0.010997370303573768,0.7964860907759883
0.010997370303573768,0.7965775988286969
0.011002408036191071,0.7965775988286969
0.011002408036191071,0.7967606149341142
0.011007445768808374,0.7967606149341142
0.011007445768808374,0.7972181551976574
0.011012483501425679,0.7972181551976574
0.011012483501425679,0.797309663250366
0.011022558966660285,0.797309663250366
0.011022558966660285,0.7974011713030746
0.011032634431894893,0.7974011713030746
0.011032634431894893,0.7974926793557833
0.0110427098971295,0.7974926793557833
0.0110427098971295,0.7975841874084919
0.011057823094981411,0.7975841874084919
0.011057823094981411,0.7976756954612005
0.011067898560216017,0.7976756954612005
0.011067898560216017,0.7977672035139092
0.011072936292833322,0.7977672035139092
0.011072936292833322,0.7979502196193266
0.011077974025450625,0.7979502196193266
0.011077974025450625,0.7981332357247438
0.011093087223302536,0.7981332357247438
0.011093087223302536,0.7982247437774525
0.011098124955919839,0.7982247437774525
0.011098124955919839,0.7983162518301611
0.01112835135162366,0.7983162518301611
0.01112835135162366,0.7984077598828697
0.011138426816858268,0.7984077598828697
0.011138426816858268,0.798590775988287
0.011148502282092876,0.798590775988287
0.011148502282092876,0.7986822840409956
0.01116865321256209,0.7986822840409956
0.01116865321256209,0.7988653001464129
0.011178728677796698,0.7988653001464129
0.011178728677796698,0.7991398243045388
0.011183766410414001,0.7991398243045388
0.011183766410414001,0.799322840409956
0.011188804143031304,0.799322840409956
0.011188804143031304,0.7994143484626647
0.011193841875648609,0.7994143484626647
0.011193841875648609,0.7996888726207906
0.011219030538735126,0.7996888726207906
0.011219030538735126,0.7997803806734992
0.01122406827135243,0.7997803806734992
0.01122406827135243,0.799871888726208
0.011249256934438947,0.799871888726208
0.011249256934438947,0.7999633967789166
0.011254294667056252,0.7999633967789166
0.011254294667056252,0.8000549048316252
0.011259332399673555,0.8000549048316252
0.011259332399673555,0.8001464128843339
0.011264370132290858,0.8001464128843339
0.011264370132290858,0.8002379209370425
0.011269407864908163,0.8002379209370425
0.011269407864908163,0.8003294289897511
0.011279483330142769,0.8003294289897511
0.011279483330142769,0.8004209370424598
0.011284521062760074,0.8004209370424598
0.011284521062760074,0.8005124450951684
0.011289558795377377,0.8005124450951684
0.011289558795377377,0.800603953147877
0.011299634260611984,0.800603953147877
0.011299634260611984,0.8006954612005857
0.01130970972584659,0.8006954612005857
0.01130970972584659,0.8007869692532943
0.01135001158678502,0.8007869692532943
0.01135001158678502,0.8008784773060029
0.011360087052019628,0.8008784773060029
0.011360087052019628,0.8009699853587116
0.011380237982488842,0.8009699853587116
0.011380237982488842,0.8010614934114202
0.011400388912958056,0.8010614934114202
0.011400388912958056,0.8011530014641288
0.011415502110809966,0.8011530014641288
0.011415502110809966,0.8012445095168375
0.011430615308661877,0.8012445095168375
0.011430615308661877,0.8014275256222547
0.01143565304127918,0.8014275256222547
0.01143565304127918,0.8015190336749634
0.011440690773896485,0.8015190336749634
0.011440690773896485,0.801610541727672
0.011470917169600307,0.801610541727672
0.011470917169600307,0.8017020497803806
0.01147595490221761,0.8017020497803806
0.01147595490221761,0.801885065885798
0.01149106810006952,0.801885065885798
0.01149106810006952,0.8021595900439239
0.011511219030538734,0.8021595900439239
0.011511219030538734,0.8022510980966325
0.011516256763156039,0.8022510980966325
0.011516256763156039,0.8025256222547584
0.011536407693625253,0.8025256222547584
0.011536407693625253,0.8026171303074671
0.011556558624094467,0.8026171303074671
0.011556558624094467,0.8027086383601757
0.011566634089329075,0.8027086383601757
0.011566634089329075,0.8028001464128843
0.011591822752415593,0.8028001464128843
0.011591822752415593,0.8030746705710102
0.0116018982176502,0.8030746705710102
0.0116018982176502,0.8031661786237189
0.011611973682884807,0.8031661786237189
0.011611973682884807,0.8032576866764275
0.011627086880736718,0.8032576866764275
0.011627086880736718,0.8033491947291361
0.011647237811205932,0.8033491947291361
0.011647237811205932,0.8034407027818448
0.011667388741675147,0.8034407027818448
0.011667388741675147,0.8035322108345534
0.011692577404761664,0.8035322108345534
0.011692577404761664,0.803623718887262
0.011707690602613575,0.803623718887262
0.011707690602613575,0.8038067349926794
0.01171272833523088,0.8038067349926794
0.01171272833523088,0.803898243045388
0.011717766067848183,0.803898243045388
0.011717766067848183,0.8041727672035139
0.01172784153308279,0.8041727672035139
0.01172784153308279,0.8042642752562226
0.011737916998317397,0.8042642752562226
0.011737916998317397,0.8043557833089312
0.011747992463552005,0.8043557833089312
0.011747992463552005,0.8044472913616398
0.011773181126638523,0.8044472913616398
0.011773181126638523,0.8045387994143485
0.01179836978972504,0.8045387994143485
0.01179836978972504,0.8046303074670571
0.011803407522342345,0.8046303074670571
0.011803407522342345,0.8047218155197657
0.011818520720194256,0.8047218155197657
0.011818520720194256,0.8048133235724744
0.01183867165066347,0.8048133235724744
0.01183867165066347,0.804904831625183
0.011848747115898077,0.804904831625183
0.011848747115898077,0.8049963396778916
0.01185378484851538,0.8049963396778916
0.01185378484851538,0.8051793557833089
0.011858822581132683,0.8051793557833089
0.011858822581132683,0.8052708638360175
0.011863860313749988,0.8052708638360175
0.011863860313749988,0.8053623718887262
0.011899124442071113,0.8053623718887262
0.011899124442071113,0.8054538799414348
0.01190919990730572,0.8054538799414348
0.01190919990730572,0.8057284040995608
0.011914237639923024,0.8057284040995608
0.011914237639923024,0.8060029282576867
0.011919275372540327,0.8060029282576867
0.011919275372540327,0.8060944363103953
0.011929350837774935,0.8060944363103953
0.011929350837774935,0.806185944363104
0.011939426303009542,0.806185944363104
0.011939426303009542,0.8062774524158126
0.011944464035626845,0.8062774524158126
0.011944464035626845,0.8065519765739385
0.011959577233478756,0.8065519765739385
0.011959577233478756,0.8066434846266471
0.01196461496609606,0.8066434846266471
0.01196461496609606,0.8067349926793558
0.011974690431330667,0.8067349926793558
0.011974690431330667,0.8068265007320644
0.01197972816394797,0.8068265007320644
0.01197972816394797,0.8070095168374817
0.011989803629182578,0.8070095168374817
0.011989803629182578,0.8073755490483162
0.011999879094417184,0.8073755490483162
0.011999879094417184,0.8074670571010248
0.012030105490121006,0.8074670571010248
0.012030105490121006,0.8076500732064422
0.012050256420590221,0.8076500732064422
0.012050256420590221,0.8077415812591509
0.012060331885824827,0.8077415812591509
0.012060331885824827,0.8078330893118595
0.012065369618442132,0.8078330893118595
0.012065369618442132,0.8079245973645681
0.012075445083676738,0.8079245973645681
0.012075445083676738,0.8080161054172768
0.012085520548911346,0.8080161054172768
0.012085520548911346,0.808199121522694
0.012100633746763257,0.808199121522694
0.012100633746763257,0.8085651537335286
0.01212078467723247,0.8085651537335286
0.01212078467723247,0.8087481698389458
0.012125822409849775,0.8087481698389458
0.012125822409849775,0.8088396778916545
0.012130860142467078,0.8088396778916545
0.012130860142467078,0.8090226939970717
0.012140935607701686,0.8090226939970717
0.012140935607701686,0.8091142020497804
0.012156048805553597,0.8091142020497804
0.012156048805553597,0.809205710102489
0.012166124270788203,0.809205710102489
0.012166124270788203,0.8092972181551976
0.012171162003405508,0.8092972181551976
0.012171162003405508,0.8093887262079063
0.01217619973602281,0.8093887262079063
0.01217619973602281,0.8094802342606149
0.012191312933874722,0.8094802342606149
0.012191312933874722,0.8096632503660323
0.012211463864343935,0.8096632503660323
0.012211463864343935,0.8098462664714495
0.01221650159696124,0.8098462664714495
0.01221650159696124,0.8100292825768668
0.012221539329578543,0.8100292825768668
0.012221539329578543,0.8101207906295754
0.012231614794813151,0.8101207906295754
0.012231614794813151,0.8102122986822841
0.012266878923134276,0.8102122986822841
0.012266878923134276,0.8103038067349927
0.012276954388368884,0.8103038067349927
0.012276954388368884,0.8103953147877013
0.01228702985360349,0.8103953147877013
0.01228702985360349,0.8105783308931186
0.012352520377628438,0.8105783308931186
0.012352520377628438,0.8108528550512445
0.012412973169036081,0.8108528550512445
0.012412973169036081,0.811218887262079
0.012418010901653384,0.811218887262079
0.012418010901653384,0.8114934114202049
0.012428086366887992,0.8114934114202049
0.012428086366887992,0.8115849194729137
0.012443199564739903,0.8115849194729137
0.012443199564739903,0.8117679355783309
0.012453275029974509,0.8117679355783309
0.012453275029974509,0.8118594436310396
0.012458312762591814,0.8118594436310396
0.012458312762591814,0.8119509516837482
0.012498614623530241,0.8119509516837482
0.012498614623530241,0.8120424597364568
0.012513727821382152,0.8120424597364568
0.012513727821382152,0.8121339677891655
0.012528841019234063,0.8121339677891655
0.012528841019234063,0.8122254758418741
0.012533878751851366,0.8122254758418741
0.012533878751851366,0.8124084919472914
0.012548991949703277,0.8124084919472914
0.012548991949703277,0.8125
0.012559067414937885,0.8125
0.012559067414937885,0.8125915080527086
0.012564105147555188,0.8125915080527086
0.012564105147555188,0.8126830161054173
0.012589293810641706,0.8126830161054173
0.012589293810641706,0.8127745241581259
0.012599369275876314,0.8127745241581259
0.012599369275876314,0.8129575402635432
0.012639671136814742,0.8129575402635432
0.012639671136814742,0.8134150805270863
0.012644708869432046,0.8134150805270863
0.012644708869432046,0.8135065885797951
0.01264974660204935,0.8135065885797951
0.01264974660204935,0.8136896046852123
0.012679972997753171,0.8136896046852123
0.012679972997753171,0.813781112737921
0.012700123928222385,0.813781112737921
0.012700123928222385,0.8138726207906296
0.01270516166083969,0.8138726207906296
0.01270516166083969,0.8139641288433382
0.012715237126074296,0.8139641288433382
0.012715237126074296,0.8141471449487555
0.012730350323926207,0.8141471449487555
0.012730350323926207,0.8142386530014641
0.012765614452247333,0.8142386530014641
0.012765614452247333,0.8143301610541728
0.012780727650099244,0.8143301610541728
0.012780727650099244,0.8144216691068814
0.012795840847951155,0.8144216691068814
0.012795840847951155,0.81451317715959
0.012810954045803066,0.81451317715959
0.012810954045803066,0.8146961932650073
0.01283110497627228,0.8146961932650073
0.01283110497627228,0.8148792093704246
0.012841180441506887,0.8148792093704246
0.012841180441506887,0.8149707174231332
0.01284621817412419,0.8149707174231332
0.01284621817412419,0.8150622254758418
0.012866369104593404,0.8150622254758418
0.012866369104593404,0.8151537335285505
0.012871406837210709,0.8151537335285505
0.012871406837210709,0.8152452415812591
0.012876444569828012,0.8152452415812591
0.012876444569828012,0.8154282576866764
0.01288652003506262,0.8154282576866764
0.01288652003506262,0.8155197657393851
0.012896595500297226,0.8155197657393851
0.012896595500297226,0.8156112737920937
0.01290163323291453,0.8156112737920937
0.01290163323291453,0.8157027818448024
0.012941935093852958,0.8157027818448024
0.012941935093852958,0.8158857979502196
0.012957048291704869,0.8158857979502196
0.012957048291704869,0.8159773060029283
0.012982236954791388,0.8159773060029283
0.012982236954791388,0.8160688140556369
0.01298727468740869,0.8160688140556369
0.01298727468740869,0.8161603221083455
0.012997350152643299,0.8161603221083455
0.012997350152643299,0.8162518301610542
0.013007425617877906,0.8162518301610542
0.013007425617877906,0.8163433382137628
0.013022538815729815,0.8163433382137628
0.013022538815729815,0.8166178623718887
0.013037652013581726,0.8166178623718887
0.013037652013581726,0.8167093704245973
0.013062840676668245,0.8167093704245973
0.013062840676668245,0.816800878477306
0.013088029339754764,0.816800878477306
0.013088029339754764,0.8168923865300146
0.013123293468075888,0.8168923865300146
0.013123293468075888,0.8169838945827232
0.013128331200693191,0.8169838945827232
0.013128331200693191,0.8170754026354319
0.013133368933310496,0.8170754026354319
0.013133368933310496,0.8171669106881405
0.013138406665927799,0.8171669106881405
0.013138406665927799,0.8172584187408491
0.013158557596397013,0.8172584187408491
0.013158557596397013,0.8173499267935578
0.013163595329014318,0.8173499267935578
0.013163595329014318,0.8175329428989752
0.013198859457335442,0.8175329428989752
0.013198859457335442,0.8176244509516838
0.013203897189952745,0.8176244509516838
0.013203897189952745,0.8177159590043924
0.013213972655187353,0.8177159590043924
0.013213972655187353,0.8178989751098097
0.013244199050891175,0.8178989751098097
0.013244199050891175,0.8179904831625183
0.013249236783508478,0.8179904831625183
0.013249236783508478,0.818081991215227
0.013254274516125783,0.818081991215227
0.013254274516125783,0.8181734992679356
0.013264349981360389,0.8181734992679356
0.013264349981360389,0.8183565153733529
0.0132794631792123,0.8183565153733529
0.0132794631792123,0.8184480234260615
0.013289538644446907,0.8184480234260615
0.013289538644446907,0.8186310395314788
0.013314727307533426,0.8186310395314788
0.013314727307533426,0.8187225475841874
0.013324802772768032,0.8187225475841874
0.013324802772768032,0.818814055636896
0.01333487823800264,0.818814055636896
0.01333487823800264,0.8189055636896047
0.013365104633706461,0.8189055636896047
0.013365104633706461,0.8189970717423133
0.013395331029410283,0.8189970717423133
0.013395331029410283,0.8190885797950219
0.013400368762027586,0.8190885797950219
0.013400368762027586,0.8191800878477306
0.013420519692496802,0.8191800878477306
0.013420519692496802,0.8192715959004392
0.013425557425114105,0.8192715959004392
0.013425557425114105,0.8194546120058566
0.013430595157731408,0.8194546120058566
0.013430595157731408,0.8195461200585652
0.013455783820817926,0.8195461200585652
0.013455783820817926,0.8199121522693997
0.01346082155343523,0.8199121522693997
0.01346082155343523,0.8201866764275256
0.013470897018669837,0.8201866764275256
0.013470897018669837,0.8204612005856515
0.013486010216521748,0.8204612005856515
0.013486010216521748,0.8205527086383602
0.013491047949139051,0.8205527086383602
0.013491047949139051,0.8207357247437774
0.013496085681756356,0.8207357247437774
0.013496085681756356,0.8208272327964861
0.013501123414373659,0.8208272327964861
0.013501123414373659,0.8209187408491947
0.01351623661222557,0.8209187408491947
0.01351623661222557,0.821101756954612
0.013541425275312088,0.821101756954612
0.013541425275312088,0.8211932650073206
0.013546463007929391,0.8211932650073206
0.013546463007929391,0.8212847730600292
