fpr,tpr
0.0,0.0
0.0,0.00018301610541727673
0.0,0.00036603221083455345
0.0,0.0008235724743777453
0.0,0.001006588579795022
0.0,0.0015556368960468522
0.0,0.001738653001464129
0.0,0.0021961932650073207
0.0,0.0023792093704245974
0.0,0.016654465592972182
5.037732617303604e-06,0.016654465592972182
5.037732617303604e-06,0.02058931185944363
5.037732617303604e-06,0.020772327964860907
5.037732617303604e-06,0.054630307467057104
1.0075465234607208e-05,0.054630307467057104
1.0075465234607208e-05,0.0570095168374817
1.0075465234607208e-05,0.05719253294289898
1.0075465234607208e-05,0.060120790629575406
1.5113197851910811e-05,0.060120790629575406
1.5113197851910811e-05,0.10871156661786237
2.0150930469214415e-05,0.10871156661786237
2.0150930469214415e-05,0.11200585651537336
2.0150930469214415e-05,0.11218887262079064
2.0150930469214415e-05,0.11465959004392387
2.518866308651802e-05,0.11465959004392387
2.518866308651802e-05,0.11603221083455344
2.518866308651802e-05,0.11621522693997072
2.518866308651802e-05,0.1195095168374817
3.0226395703821623e-05,0.1195095168374817
3.0226395703821623e-05,0.12115666178623719
3.0226395703821623e-05,0.12133967789165447
3.0226395703821623e-05,0.1221632503660322
3.526412832112523e-05,0.1221632503660322
3.526412832112523e-05,0.12866032210834552
3.526412832112523e-05,0.12884333821376281
3.526412832112523e-05,0.13854319180087848
4.030186093842883e-05,0.13854319180087848
4.030186093842883e-05,0.15556368960468522
4.030186093842883e-05,0.1557467057101025
4.030186093842883e-05,0.17377379209370425
4.533959355573244e-05,0.17377379209370425
4.533959355573244e-05,0.17395680819912152
4.533959355573244e-05,0.1843887262079063
5.037732617303604e-05,0.1843887262079063
5.037732617303604e-05,0.19573572474377746
5.5415058790339646e-05,0.19573572474377746
5.5415058790339646e-05,0.19601024890190336
6.0452791407643246e-05,0.19601024890190336
6.0452791407643246e-05,0.22355417276720352
6.549052402494685e-05,0.22355417276720352
6.549052402494685e-05,0.2247437774524158
7.052825664225046e-05,0.2247437774524158
7.052825664225046e-05,0.2332540263543192
7.052825664225046e-05,0.23343704245973645
7.052825664225046e-05,0.2366398243045388
7.556598925955406e-05,0.2366398243045388
7.556598925955406e-05,0.24249633967789166
8.060372187685766e-05,0.24249633967789166
8.060372187685766e-05,0.24871888726207905
8.564145449416126e-05,0.24871888726207905
8.564145449416126e-05,0.251006588579795
8.564145449416126e-05,0.2511896046852123
8.564145449416126e-05,0.26821010248901905
8.564145449416126e-05,0.2683931185944363
8.564145449416126e-05,0.2948389458272328
9.067918711146488e-05,0.2948389458272328
9.067918711146488e-05,0.2992313323572474
9.067918711146488e-05,0.29941434846266474
9.067918711146488e-05,0.307192532942899
9.571691972876848e-05,0.307192532942899
9.571691972876848e-05,0.31167642752562225
0.00010075465234607208,0.31167642752562225
0.00010075465234607208,0.3158857979502196
0.00010579238496337569,0.3158857979502196
0.00010579238496337569,0.31982064421669104
0.00010579238496337569,0.32000366032210836
0.00010579238496337569,0.3210102489019034
0.00011083011758067929,0.3210102489019034
0.00011083011758067929,0.3234809663250366
0.00011586785019798289,0.3234809663250366
0.00011586785019798289,0.3241215226939971
0.00012090558281528649,0.3241215226939971
0.00012090558281528649,0.33601756954612005
0.0001309810480498937,0.33601756954612005
0.0001309810480498937,0.3374816983894583
0.00013601878066719732,0.3374816983894583
0.00013601878066719732,0.3461749633967789
0.00014105651328450092,0.3461749633967789
0.00014105651328450092,0.35743045387994143
0.00014609424590180452,0.35743045387994143
0.00014609424590180452,0.3628294289897511
0.00015113197851910812,0.3628294289897511
0.00015113197851910812,0.3644765739385066
0.00015616971113641172,0.3644765739385066
0.00015616971113641172,0.37326134699853586
0.00016120744375371532,0.37326134699853586
0.00016120744375371532,0.3768301610541728
0.00016624517637101892,0.3768301610541728
0.00016624517637101892,0.3784773060029283
0.00017128290898832252,0.3784773060029283
0.00017128290898832252,0.3886346998535871
0.00017632064160562615,0.3886346998535871
0.00017632064160562615,0.3898243045387994
0.00018135837422292975,0.3898243045387994
0.00018135837422292975,0.3904648609077599
0.00018639610684023335,0.3904648609077599
0.00018639610684023335,0.3943081991215227
0.00019143383945753695,0.3943081991215227
0.00019143383945753695,0.3996156661786237
0.00019647157207484055,0.3996156661786237
0.00019647157207484055,0.3999816983894583
0.00020150930469214415,0.3999816983894583
0.00020150930469214415,0.40034773060029283
0.00020654703730944775,0.40034773060029283
0.00020654703730944775,0.40135431918008785
0.00021158476992675138,0.40135431918008785
0.00021158476992675138,0.401811859443631
0.00021662250254405498,0.401811859443631
0.00021662250254405498,0.40226939970717424
0.00022166023516135858,0.40226939970717424
0.00022166023516135858,0.4118777452415813
0.00022669796777866218,0.4118777452415813
0.00022669796777866218,0.41471449487554907
0.00023173570039596578,0.41471449487554907
0.00023173570039596578,0.4176427525622255
0.00023677343301326938,0.4176427525622255
0.00023677343301326938,0.41874084919472915
0.00024181116563057298,0.41874084919472915
0.00024181116563057298,0.42285871156661786
0.0002468488982478766,0.42285871156661786
0.0002468488982478766,0.4284407027818448
0.0002518866308651802,0.4284407027818448
0.0002518866308651802,0.42853221083455345
0.0002569243634824838,0.42853221083455345
0.0002569243634824838,0.432192532942899
0.0002619620960997874,0.432192532942899
0.0002619620960997874,0.43255856515373353
0.000266999828717091,0.43255856515373353
0.000266999828717091,0.4389641288433382
0.00027203756133439464,0.4389641288433382
0.00027203756133439464,0.43923865300146414
0.00028211302656900184,0.43923865300146414
0.00028211302656900184,0.44079428989751096
0.0002871507591863054,0.44079428989751096
0.0002871507591863054,0.4412518301610542
0.00029218849180360904,0.4412518301610542
0.00029218849180360904,0.44591874084919475
0.00030226395703821624,0.44591874084919475
0.00030226395703821624,0.4484809663250366
0.0003073016896555198,0.4484809663250366
0.0003073016896555198,0.4517752562225476
0.00031233942227282344,0.4517752562225476
0.00031233942227282344,0.4542459736456808
0.00031737715489012707,0.4542459736456808
0.00031737715489012707,0.45525256222547583
0.00032241488750743065,0.45525256222547583
0.00032241488750743065,0.45625915080527085
0.00032745262012473427,0.45625915080527085
0.00032745262012473427,0.45653367496339675
0.00033249035274203785,0.45653367496339675
0.00033249035274203785,0.45662518301610544
0.0003375280853593415,0.45662518301610544
0.0003375280853593415,0.4605600292825769
0.00034256581797664505,0.4605600292825769
0.00034256581797664505,0.4606515373352855
0.0003476035505939487,0.4606515373352855
0.0003476035505939487,0.462298682284041
0.0003526412832112523,0.462298682284041
0.0003526412832112523,0.4637628111273792
0.0003576790158285559,0.4637628111273792
0.0003576790158285559,0.4639458272327965
0.0003627167484458595,0.4639458272327965
0.0003627167484458595,0.4649524158125915
0.0003677544810631631,0.4649524158125915
0.0003677544810631631,0.465592972181552
0.0003727922136804667,0.465592972181552
0.0003727922136804667,0.46742313323572476
0.0003778299462977703,0.46742313323572476
0.0003778299462977703,0.46833821376281115
0.0003828676789150739,0.46833821376281115
0.0003828676789150739,0.470900439238653
0.00038790541153237753,0.470900439238653
0.00038790541153237753,0.47392020497803805
0.0003929431441496811,0.47392020497803805
0.0003929431441496811,0.4759333821376281
0.00039798087676698473,0.4759333821376281
0.00039798087676698473,0.47895314787701315
0.0004030186093842883,0.47895314787701315
0.0004030186093842883,0.4816068814055637
0.00040805634200159193,0.4816068814055637
0.00040805634200159193,0.4820644216691069
0.0004130940746188955,0.4820644216691069
0.0004130940746188955,0.4835285505124451
0.00041813180723619913,0.4835285505124451
0.00041813180723619913,0.4838945827232797
0.00042316953985350276,0.4838945827232797
0.00042316953985350276,0.4876464128843338
0.00042820727247080634,0.4876464128843338
0.00042820727247080634,0.48819546120058566
0.00043324500508810996,0.48819546120058566
0.00043324500508810996,0.48883601756954614
0.00043828273770541354,0.48883601756954614
0.00043828273770541354,0.4889275256222548
0.00044332047032271716,0.4889275256222548
0.00044332047032271716,0.49057467057101023
0.00044835820294002074,0.49057467057101023
0.00044835820294002074,0.4912152269399707
0.00045339593555732436,0.4912152269399707
0.00045339593555732436,0.4916727672035139
0.00045843366817462794,0.4916727672035139
0.00045843366817462794,0.49267935578330896
0.00046347140079193157,0.49267935578330896
0.00046347140079193157,0.4928623718887262
0.0004685091334092352,0.4928623718887262
0.0004685091334092352,0.4933199121522694
0.00047354686602653877,0.4933199121522694
0.00047354686602653877,0.49414348462664714
0.0004785845986438424,0.49414348462664714
0.0004785845986438424,0.494692532942899
0.00048362233126114597,0.494692532942899
0.00048362233126114597,0.4992679355783309
0.0004886600638784495,0.4992679355783309
0.0004886600638784495,0.5011896046852123
0.0004936977964957532,0.5011896046852123
0.0004936977964957532,0.5015556368960469
0.0004987355291130568,0.5015556368960469
0.0004987355291130568,0.5035688140556369
0.0005037732617303604,0.5035688140556369
0.0005037732617303604,0.5038433382137628
0.000508810994347664,0.5038433382137628
0.000508810994347664,0.5059480234260615
0.0005138487269649676,0.5059480234260615
0.0005138487269649676,0.5064055636896047
0.0005188864595822712,0.5064055636896047
0.0005188864595822712,0.5064970717423133
0.0005239241921995748,0.5064970717423133
0.0005239241921995748,0.5073206442166911
0.0005289619248168785,0.5073206442166911
0.0005289619248168785,0.5085102489019033
0.000533999657434182,0.5085102489019033
0.000533999657434182,0.5094253294289898
0.0005440751226687893,0.5094253294289898
0.0005440751226687893,0.5098828696925329
0.0005491128552860929,0.5098828696925329
0.0005491128552860929,0.5105234260614934
0.0005541505879033964,0.5105234260614934
0.0005541505879033964,0.5113469985358712
0.0005591883205207,0.5113469985358712
0.0005591883205207,0.5116215226939971
0.0005642260531380037,0.5116215226939971
0.0005642260531380037,0.5130856515373353
0.0005692637857553073,0.5130856515373353
0.0005692637857553073,0.5132686676427526
0.0005743015183726108,0.5132686676427526
0.0005743015183726108,0.5135431918008785
0.0005793392509899145,0.5135431918008785
0.0005793392509899145,0.5147327964860908
0.0005843769836072181,0.5147327964860908
0.0005843769836072181,0.5150988286969254
0.0005894147162245217,0.5150988286969254
0.0005894147162245217,0.5154648609077599
0.0005994901814591289,0.5154648609077599
0.0005994901814591289,0.5158308931185944
0.0006045279140764325,0.5158308931185944
0.0006045279140764325,0.5168374816983895
0.0006095656466937361,0.5168374816983895
0.0006095656466937361,0.518210102489019
0.0006146033793110396,0.518210102489019
0.0006146033793110396,0.5183016105417276
0.0006196411119283433,0.5183016105417276
0.0006196411119283433,0.5193081991215227
0.0006297165771629505,0.5193081991215227
0.0006297165771629505,0.5214128843338214
0.0006347543097802541,0.5214128843338214
0.0006347543097802541,0.5226024890190337
0.0006397920423975577,0.5226024890190337
0.0006397920423975577,0.5237005856515373
0.0006448297750148613,0.5237005856515373
0.0006448297750148613,0.5251647144948756
0.0006498675076321649,0.5251647144948756
0.0006498675076321649,0.5253477306002928
0.0006549052402494685,0.5253477306002928
0.0006549052402494685,0.5254392386530015
0.0006599429728667721,0.5254392386530015
0.0006599429728667721,0.525805270863836
0.0006649807054840757,0.525805270863836
0.0006649807054840757,0.5263543191800878
0.0006700184381013794,0.5263543191800878
0.0006700184381013794,0.5264458272327965
0.000675056170718683,0.5264458272327965
0.000675056170718683,0.5285505124450952
0.0006800939033359865,0.5285505124450952
0.0006800939033359865,0.5319363103953147
0.0006851316359532901,0.5319363103953147
0.0006851316359532901,0.5325768667642753
0.0006901693685705938,0.5325768667642753
0.0006901693685705938,0.5326683748169839
0.0006952071011878973,0.5326683748169839
0.0006952071011878973,0.5328513909224012
0.0007002448338052009,0.5328513909224012
0.0007002448338052009,0.5334919472913616
0.0007103202990398082,0.5334919472913616
0.0007103202990398082,0.5355966325036603
0.0007153580316571118,0.5355966325036603
0.0007153580316571118,0.5356881405563689
0.0007203957642744153,0.5356881405563689
0.0007203957642744153,0.5368777452415813
0.000725433496891719,0.5368777452415813
0.000725433496891719,0.537701317715959
0.0007304712295090226,0.537701317715959
0.0007304712295090226,0.5380673499267935
0.0007355089621263262,0.5380673499267935
0.0007355089621263262,0.5395314787701317
0.0007405466947436298,0.5395314787701317
0.0007405466947436298,0.539714494875549
0.0007455844273609334,0.539714494875549
0.0007455844273609334,0.5407210834553441
0.000750622159978237,0.5407210834553441
0.000750622159978237,0.542276720351391
0.0007556598925955406,0.542276720351391
0.0007556598925955406,0.5436493411420205
0.0007657353578301478,0.5436493411420205
0.0007657353578301478,0.5449304538799414
0.0007707730904474514,0.5449304538799414
0.0007707730904474514,0.545296486090776
0.0007758108230647551,0.545296486090776
0.0007758108230647551,0.5458455344070278
0.0007808485556820586,0.5458455344070278
0.0007808485556820586,0.5461200585651538
0.0007858862882993622,0.5461200585651538
0.0007858862882993622,0.5481332357247438
0.0007909240209166658,0.5481332357247438
0.0007909240209166658,0.5486822840409956
0.0007959617535339695,0.5486822840409956
0.0007959617535339695,0.5492313323572474
0.000800999486151273,0.5492313323572474
0.000800999486151273,0.5494143484626647
0.0008060372187685766,0.5494143484626647
0.0008060372187685766,0.5500549048316252
0.0008110749513858803,0.5500549048316252
0.0008110749513858803,0.5501464128843339
0.0008211504166204874,0.5501464128843339
0.0008211504166204874,0.5508784773060029
0.000826188149237791,0.5508784773060029
0.000826188149237791,0.5515190336749634
0.0008312258818550947,0.5515190336749634
0.0008312258818550947,0.5517020497803806
0.0008413013470897018,0.5517020497803806
0.0008413013470897018,0.551885065885798
0.0008463390797070055,0.551885065885798
0.0008463390797070055,0.5519765739385066
0.0008513768123243091,0.5519765739385066
0.0008513768123243091,0.5525256222547584
0.0008564145449416127,0.5525256222547584
0.0008564145449416127,0.5527086383601757
0.0008614522775589162,0.5527086383601757
0.0008614522775589162,0.5531661786237189
0.0008664900101762199,0.5531661786237189
0.0008664900101762199,0.553623718887262
0.0008715277427935235,0.553623718887262
0.0008715277427935235,0.5541727672035139
0.0008765654754108271,0.5541727672035139
0.0008765654754108271,0.5550878477306003
0.0008816032080281306,0.5550878477306003
0.0008816032080281306,0.5565519765739385
0.0008866409406454343,0.5565519765739385
0.0008866409406454343,0.5566434846266471
0.0008916786732627379,0.5566434846266471
0.0008916786732627379,0.5567349926793558
0.0008967164058800415,0.5567349926793558
0.0008967164058800415,0.5577415812591509
0.0009017541384973452,0.5577415812591509
0.0009017541384973452,0.5589311859443631
0.0009067918711146487,0.5589311859443631
0.0009067918711146487,0.5594802342606149
0.0009118296037319523,0.5594802342606149
0.0009118296037319523,0.5613103953147877
0.0009168673363492559,0.5613103953147877
0.0009168673363492559,0.5619509516837482
0.0009219050689665596,0.5619509516837482
0.0009219050689665596,0.5624084919472914
0.0009269428015838631,0.5624084919472914
0.0009269428015838631,0.5626830161054173
0.0009319805342011667,0.5626830161054173
0.0009319805342011667,0.5651537335285505
0.0009370182668184704,0.5651537335285505
0.0009370182668184704,0.5656112737920937
0.0009470937320530775,0.5656112737920937
0.0009470937320530775,0.565794289897511
0.0009521314646703811,0.565794289897511
0.0009521314646703811,0.5659773060029283
0.0009571691972876848,0.5659773060029283
0.0009571691972876848,0.5662518301610542
0.0009622069299049884,0.5662518301610542
0.0009622069299049884,0.5676244509516838
0.0009672446625222919,0.5676244509516838
0.0009672446625222919,0.5681734992679356
0.0009722823951395956,0.5681734992679356
0.0009722823951395956,0.570095168374817
0.000977320127756899,0.570095168374817
0.000977320127756899,0.571376281112738
0.0009823578603742028,0.571376281112738
0.0009823578603742028,0.5718338213762811
0.0009873955929915064,0.5718338213762811
0.0009873955929915064,0.572108345534407
0.0010025087908434173,0.572108345534407
0.0010025087908434173,0.5724743777452416
0.0010125842560780244,0.5724743777452416
0.0010125842560780244,0.5725658857979502
0.0010226597213126316,0.5725658857979502
0.0010226597213126316,0.5727489019033675
0.0010276974539299352,0.5727489019033675
0.0010276974539299352,0.5729319180087847
0.0010327351865472387,0.5729319180087847
0.0010327351865472387,0.573114934114202
0.0010377729191645424,0.573114934114202
0.0010377729191645424,0.5746705710102489
0.001042810651781846,0.5746705710102489
0.001042810651781846,0.5753111273792094
0.0010528861170164532,0.5753111273792094
0.0010528861170164532,0.5757686676427526
0.001057923849633757,0.5757686676427526
0.001057923849633757,0.5763177159590044
0.0010629615822510604,0.5763177159590044
0.0010629615822510604,0.5765007320644217
0.001067999314868364,0.5765007320644217
0.001067999314868364,0.5766837481698389
0.0010730370474856677,0.5766837481698389
0.0010730370474856677,0.5772327964860908
0.0010780747801029712,0.5772327964860908
0.0010780747801029712,0.5781478770131772
0.0010831125127202749,0.5781478770131772
0.0010831125127202749,0.5783308931185944
0.0010881502453375786,0.5783308931185944
0.0010881502453375786,0.5789714494875549
0.001093187977954882,0.5789714494875549
0.001093187977954882,0.5795204978038068
0.0010982257105721857,0.5795204978038068
0.0010982257105721857,0.579703513909224
0.0011083011758067929,0.579703513909224
0.0011083011758067929,0.5798865300146413
0.0011133389084240965,0.5798865300146413
0.0011133389084240965,0.5811676427525623
0.0011183766410414,0.5811676427525623
0.0011183766410414,0.5833638360175696
0.0011234143736587037,0.5833638360175696
0.0011234143736587037,0.5834553440702782
0.0011334898388933108,0.5834553440702782
0.0011334898388933108,0.5836383601756955
0.0011385275715106145,0.5836383601756955
0.0011385275715106145,0.585285505124451
0.0011486030367452217,0.585285505124451
0.0011486030367452217,0.5853770131771596
0.0011536407693625253,0.5853770131771596
0.0011536407693625253,0.58601756954612
0.001158678501979829,0.58601756954612
0.001158678501979829,0.5861090775988287
0.0011687539672144362,0.5861090775988287
0.0011687539672144362,0.5862005856515373
0.0011737916998317396,0.5862005856515373
0.0011737916998317396,0.5868411420204978
0.001183867165066347,0.5868411420204978
0.001183867165066347,0.5873901903367497
0.0011889048976836505,0.5873901903367497
0.0011889048976836505,0.5878477306002928
0.0011939426303009541,0.5878477306002928
0.0011939426303009541,0.5879392386530015
0.0011989803629182578,0.5879392386530015
0.0011989803629182578,0.588305270863836
0.0012191312933874721,0.588305270863836
0.0012191312933874721,0.5884882869692533
0.0012292067586220793,0.5884882869692533
0.0012292067586220793,0.5893118594436311
0.001234244491239383,0.5893118594436311
0.001234244491239383,0.5901354319180088
0.0012392822238566866,0.5901354319180088
0.0012392822238566866,0.5910505124450952
0.00124431995647399,0.5910505124450952
0.00124431995647399,0.5917825768667643
0.0012493576890912938,0.5917825768667643
0.0012493576890912938,0.5918740849194729
0.0012543954217085975,0.5918740849194729
0.0012543954217085975,0.5924231332357247
0.001259433154325901,0.5924231332357247
0.001259433154325901,0.592880673499268
0.0012644708869432046,0.592880673499268
0.0012644708869432046,0.5935212298682284
0.0012695086195605083,0.5935212298682284
0.0012695086195605083,0.594619326500732
0.0012745463521778118,0.594619326500732
0.0012745463521778118,0.595900439238653
0.0012795840847951154,0.595900439238653
0.0012795840847951154,0.5969070278184481
0.0012997350152643297,0.5969070278184481
0.0012997350152643297,0.5983711566617862
0.0013047727478816334,0.5983711566617862
0.0013047727478816334,0.5984626647144948
0.001309810480498937,0.5984626647144948
0.001309810480498937,0.5987371888726208
0.0013148482131162406,0.5987371888726208
0.0013148482131162406,0.5991032210834554
0.0013198859457335442,0.5991032210834554
0.0013198859457335442,0.5997437774524158
0.0013299614109681514,0.5997437774524158
0.0013299614109681514,0.5999267935578331
0.001334999143585455,0.5999267935578331
0.001334999143585455,0.6002928257686676
0.0013400368762027587,0.6002928257686676
0.0013400368762027587,0.6005673499267935
0.0013450746088200622,0.6005673499267935
0.0013450746088200622,0.6013909224011713
0.0013551500740546696,0.6013909224011713
0.0013551500740546696,0.6020314787701317
0.001360187806671973,0.6020314787701317
0.001360187806671973,0.6021229868228404
0.0013652255392892767,0.6021229868228404
0.0013652255392892767,0.6033125915080527
0.0013702632719065802,0.6033125915080527
0.0013702632719065802,0.6034040995607614
0.0013753010045238839,0.6034040995607614
0.0013753010045238839,0.6036786237188873
0.0013803387371411876,0.6036786237188873
0.0013803387371411876,0.6040446559297218
0.0013904142023757947,0.6040446559297218
0.0013904142023757947,0.6045021961932651
0.0013954519349930984,0.6045021961932651
0.0013954519349930984,0.6048682284040996
0.0014004896676104018,0.6048682284040996
0.0014004896676104018,0.6054172767203514
0.0014055274002277055,0.6054172767203514
0.0014055274002277055,0.60550878477306
0.0014105651328450092,0.60550878477306
0.0014105651328450092,0.6064238653001464
0.0014156028654623127,0.6064238653001464
0.0014156028654623127,0.6075219619326501
0.0014307160633142235,0.6075219619326501
0.0014307160633142235,0.6077049780380673
0.0014407915285488306,0.6077049780380673
0.0014407915285488306,0.607796486090776
0.001450866993783438,0.607796486090776
0.001450866993783438,0.6080710102489019
0.0014559047264007415,0.6080710102489019
0.0014559047264007415,0.6081625183016105
0.0014710179242526523,0.6081625183016105
0.0014710179242526523,0.6083455344070278
0.001476055656869956,0.6083455344070278
0.001476055656869956,0.6084370424597365
0.0014861311221045631,0.6084370424597365
0.0014861311221045631,0.6093521229868228
0.0014911688547218668,0.6093521229868228
0.0014911688547218668,0.6104502196193266
0.0015062820525737776,0.6104502196193266
0.0015062820525737776,0.6105417276720352
0.0015163575178083848,0.6105417276720352
0.0015163575178083848,0.6108162518301611
0.0015213952504256885,0.6108162518301611
0.0015213952504256885,0.6109077598828697
0.001526432983042992,0.6109077598828697
0.001526432983042992,0.6113653001464129
0.0015314707156602956,0.6113653001464129
0.0015314707156602956,0.611822840409956
0.0015365084482775993,0.611822840409956
0.0015365084482775993,0.6119143484626647
0.0015415461808949028,0.6119143484626647
0.0015415461808949028,0.6124633967789166
0.0015465839135122064,0.6124633967789166
0.0015465839135122064,0.6136530014641288
0.0015516216461295101,0.6136530014641288
0.0015516216461295101,0.6137445095168375
0.0015566593787468136,0.6137445095168375
0.0015566593787468136,0.6147510980966325
0.0015616971113641173,0.6147510980966325
0.0015616971113641173,0.6149341142020498
0.0015667348439814207,0.6149341142020498
0.0015667348439814207,0.6157576866764275
0.0015717725765987244,0.6157576866764275
0.0015717725765987244,0.6160322108345534
0.001576810309216028,0.6160322108345534
0.001576810309216028,0.6172218155197657
0.0015868857744506353,0.6172218155197657
0.0015868857744506353,0.6173133235724744
0.0015969612396852424,0.6173133235724744
0.0015969612396852424,0.617404831625183
0.001601998972302546,0.617404831625183
0.001601998972302546,0.6174963396778916
0.0016120744375371532,0.6174963396778916
0.0016120744375371532,0.6175878477306003
0.0016120744375371532,0.6177708638360175
0.0016120744375371532,0.6196010248901903
0.001627187635389064,0.6196010248901903
0.001627187635389064,0.6197840409956076
0.0016322253680063677,0.6197840409956076
0.0016322253680063677,0.6207906295754027
0.0016423008332409749,0.6207906295754027
0.0016423008332409749,0.6210651537335286
0.001652376298475582,0.6210651537335286
0.001652376298475582,0.6213396778916545
0.0016574140310928857,0.6213396778916545
0.0016574140310928857,0.6214311859443631
0.0016624517637101894,0.6214311859443631
0.0016624517637101894,0.6215226939970717
0.0016674894963274929,0.6215226939970717
0.0016674894963274929,0.6224377745241582
0.0016725272289447965,0.6224377745241582
0.0016725272289447965,0.6227122986822841
0.0016775649615621002,0.6227122986822841
0.0016775649615621002,0.6228038067349927
0.0016826026941794037,0.6228038067349927
0.0016826026941794037,0.6238103953147877
0.0016876404267967074,0.6238103953147877
0.0016876404267967074,0.6254575402635432
0.0017027536246486182,0.6254575402635432
0.0017027536246486182,0.6257320644216691
0.0017077913572659217,0.6257320644216691
0.0017077913572659217,0.6260980966325037
0.0017128290898832253,0.6260980966325037
0.0017128290898832253,0.6261896046852123
0.001717866822500529,0.6261896046852123
0.001717866822500529,0.6267386530014641
0.0017229045551178325,0.6267386530014641
0.0017229045551178325,0.6269216691068814
0.0017279422877351362,0.6269216691068814
0.0017279422877351362,0.6272877013177159
0.0017329800203524399,0.6272877013177159
0.0017329800203524399,0.6273792093704246
0.0017380177529697433,0.6273792093704246
0.0017380177529697433,0.6275622254758418
0.001743055485587047,0.6275622254758418
0.001743055485587047,0.6276537335285505
0.0017480932182043507,0.6276537335285505
0.0017480932182043507,0.6284773060029283
0.0017581686834389578,0.6284773060029283
0.0017581686834389578,0.6285688140556369
0.001768244148673565,0.6285688140556369
0.001768244148673565,0.629300878477306
0.0017883950791427795,0.629300878477306
0.0017883950791427795,0.6293923865300146
0.001793432811760083,0.6293923865300146
0.001793432811760083,0.6295754026354319
0.0017984705443773866,0.6295754026354319
0.0017984705443773866,0.6303989751098097
0.0018035082769946903,0.6303989751098097
0.0018035082769946903,0.630581991215227
0.0018085460096119938,0.630581991215227
0.0018085460096119938,0.6308565153733529
0.0018186214748466011,0.6308565153733529
0.0018186214748466011,0.6309480234260615
0.0018286969400812083,0.6309480234260615
0.0018286969400812083,0.6311310395314788
0.0018387724053158154,0.6311310395314788
0.0018387724053158154,0.6314055636896047
0.0018488478705504226,0.6314055636896047
0.0018488478705504226,0.6315885797950219
0.0018538856031677263,0.6315885797950219
0.0018538856031677263,0.6321376281112738
0.0018639610684023334,0.6321376281112738
0.0018639610684023334,0.632595168374817
0.0018740365336369408,0.632595168374817
0.0018740365336369408,0.6329612005856515
0.0018790742662542442,0.6329612005856515
0.0018790742662542442,0.6331442166910688
0.001884111998871548,0.6331442166910688
0.001884111998871548,0.6332357247437774
0.0018891497314888516,0.6332357247437774
0.0018891497314888516,0.6333272327964861
0.001894187464106155,0.6333272327964861
0.001894187464106155,0.6336932650073206
0.0018992251967234587,0.6336932650073206
0.0018992251967234587,0.6340592972181552
0.0019042629293407622,0.6340592972181552
0.0019042629293407622,0.6341508052708639
0.001909300661958066,0.6341508052708639
0.001909300661958066,0.6344253294289898
0.0019244138598099767,0.6344253294289898
0.0019244138598099767,0.6345168374816984
0.0019294515924272804,0.6345168374816984
0.0019294515924272804,0.6346998535871157
0.0019395270576618876,0.6346998535871157
0.0019395270576618876,0.6347913616398243
0.0019445647902791912,0.6347913616398243
0.0019445647902791912,0.6348828696925329
0.0019496025228964947,0.6348828696925329
0.0019496025228964947,0.6349743777452416
0.001954640255513798,0.6349743777452416
0.001954640255513798,0.6350658857979502
0.001959677988131102,0.6350658857979502
0.001959677988131102,0.6355234260614934
0.001969753453365709,0.6355234260614934
0.001969753453365709,0.6357979502196194
0.001974791185983013,0.6357979502196194
0.001974791185983013,0.635889458272328
0.0019798289186003164,0.635889458272328
0.0019798289186003164,0.6362554904831625
0.00198486665121762,0.6362554904831625
0.00198486665121762,0.6363469985358712
0.001994942116452227,0.6363469985358712
0.001994942116452227,0.636896046852123
0.0019999798490695306,0.636896046852123
0.0019999798490695306,0.6370790629575402
0.0020150930469214415,0.6370790629575402
0.0020150930469214415,0.6374450951683748
0.002025168512156049,0.6374450951683748
0.002025168512156049,0.638177159590044
0.0020402817100079597,0.638177159590044
0.0020402817100079597,0.6384516837481699
0.002045319442625263,0.6384516837481699
0.002045319442625263,0.6386346998535871
0.002050357175242567,0.6386346998535871
0.002050357175242567,0.6391837481698389
0.0020553949078598705,0.6391837481698389
0.0020553949078598705,0.6394582723279648
0.002060432640477174,0.6394582723279648
0.002060432640477174,0.6399158125915081
0.0020654703730944774,0.6399158125915081
0.0020654703730944774,0.6400073206442167
0.002075545838329085,0.6400073206442167
0.002075545838329085,0.6405563689604685
0.0020805835709463883,0.6405563689604685
0.0020805835709463883,0.6406478770131772
0.002085621303563692,0.6406478770131772
0.002085621303563692,0.6413799414348462
0.0020906590361809956,0.6413799414348462
0.0020906590361809956,0.6417459736456809
0.002095696768798299,0.6417459736456809
0.002095696768798299,0.6418374816983895
0.0021057722340329064,0.6418374816983895
0.0021057722340329064,0.6419289897510981
0.00211080996665021,0.6419289897510981
0.00211080996665021,0.6426610541727672
0.002115847699267514,0.6426610541727672
0.002115847699267514,0.6428440702781845
0.0021208854318848173,0.6428440702781845
0.0021208854318848173,0.6436676427525623
0.0021259231645021207,0.6436676427525623
0.0021259231645021207,0.6439421669106882
0.0021309608971194246,0.6439421669106882
0.0021309608971194246,0.6447657393850659
0.0021561495602059424,0.6447657393850659
0.0021561495602059424,0.6451317715959004
0.002176300490675157,0.6451317715959004
0.002176300490675157,0.645223279648609
0.002186375955909764,0.645223279648609
0.002186375955909764,0.6454978038067349
0.002191413688527068,0.6454978038067349
0.002191413688527068,0.6455893118594437
0.002201489153761675,0.6455893118594437
0.002201489153761675,0.64650439238653
0.0022115646189962822,0.64650439238653
0.0022115646189962822,0.6472364568081991
0.002221640084230889,0.6472364568081991
0.002221640084230889,0.6473279648609077
0.002226677816848193,0.6473279648609077
0.002226677816848193,0.6474194729136163
0.0022317155494654965,0.6474194729136163
0.0022317155494654965,0.6481515373352855
0.0022367532820828,0.6481515373352855
0.0022367532820828,0.64851756954612
0.002241791014700104,0.64851756954612
0.002241791014700104,0.6488836017569546
0.002251866479934711,0.6488836017569546
0.002251866479934711,0.6490666178623719
0.0022569042125520147,0.6490666178623719
0.0022569042125520147,0.6494326500732065
0.0022669796777866217,0.6494326500732065
0.0022669796777866217,0.6499816983894583
0.002277055143021229,0.6499816983894583
0.002277055143021229,0.6506222547584187
0.0022871306082558364,0.6506222547584187
0.0022871306082558364,0.6507137628111274
0.0022972060734904433,0.6507137628111274
0.0022972060734904433,0.6516288433382138
0.0023022438061077472,0.6516288433382138
0.0023022438061077472,0.6517203513909224
0.0023072815387250507,0.6517203513909224
0.0023072815387250507,0.652086383601757
0.002312319271342354,0.652086383601757
0.002312319271342354,0.6522693997071742
0.002317357003959658,0.6522693997071742
0.002317357003959658,0.6530929721815519
0.0023375079344288723,0.6530929721815519
0.0023375079344288723,0.6531844802342606
0.002352621132280783,0.6531844802342606
0.002352621132280783,0.6533674963396779
0.0023576588648980866,0.6533674963396779
0.0023576588648980866,0.6537335285505125
0.00236269659751539,0.6537335285505125
0.00236269659751539,0.6539165446559297
0.002367734330132694,0.6539165446559297
0.002367734330132694,0.6545571010248902
0.0023727720627499975,0.6545571010248902
0.0023727720627499975,0.6547401171303074
0.002377809795367301,0.6547401171303074
0.002377809795367301,0.6549231332357247
0.002382847527984605,0.6549231332357247
0.002382847527984605,0.6554721815519766
0.0023878852606019083,0.6554721815519766
0.0023878852606019083,0.6559297218155198
0.0023929229932192118,0.6559297218155198
0.0023929229932192118,0.6560212298682284
0.0024080361910711226,0.6560212298682284
0.0024080361910711226,0.656112737920937
0.0024130739236884265,0.656112737920937
0.0024130739236884265,0.6569363103953147
0.00241811165630573,0.6569363103953147
0.00241811165630573,0.657119326500732
0.0024231493889230334,0.657119326500732
0.0024231493889230334,0.657393850658858
0.0024281871215403373,0.657393850658858
0.0024281871215403373,0.6576683748169839
0.0024332248541576408,0.6576683748169839
0.0024332248541576408,0.6582174231332357
0.0024382625867749442,0.6582174231332357
0.0024382625867749442,0.6587664714494875
0.002443300319392248,0.6587664714494875
0.002443300319392248,0.6589494875549048
0.002453375784626855,0.6589494875549048
0.002453375784626855,0.6593155197657394
0.0024584135172441585,0.6593155197657394
0.0024584135172441585,0.6594070278184481
0.0024785644477133733,0.6594070278184481
0.0024785644477133733,0.659681551976574
0.0024836021803306767,0.659681551976574
0.0024836021803306767,0.6602306002928258
0.00248863991294798,0.6602306002928258
0.00248863991294798,0.6603221083455344
0.002493677645565284,0.6603221083455344
0.002493677645565284,0.6606881405563689
0.002503753110799891,0.6606881405563689
0.002503753110799891,0.6608711566617862
0.002508790843417195,0.6608711566617862
0.002508790843417195,0.6611456808199122
0.002518866308651802,0.6611456808199122
0.002518866308651802,0.6616032210834554
0.0025239040412691057,0.6616032210834554
0.0025239040412691057,0.661694729136164
0.002528941773886409,0.661694729136164
0.002528941773886409,0.6619692532942899
0.0025339795065037127,0.6619692532942899
0.0025339795065037127,0.6620607613469985
0.0025390172391210166,0.6620607613469985
0.0025390172391210166,0.6621522693997072
0.002559168169590231,0.6621522693997072
0.002559168169590231,0.6624267935578331
0.0025692436348248382,0.6624267935578331
0.0025692436348248382,0.6625183016105417
0.002579319100059445,0.6625183016105417
0.002579319100059445,0.6626098096632503
0.0025994700305286595,0.6626098096632503
0.0025994700305286595,0.6627928257686676
0.0026045077631459634,0.6627928257686676
0.0026045077631459634,0.6634333821376281
0.0026145832283805703,0.6634333821376281
0.0026145832283805703,0.6637994143484627
0.002619620960997874,0.6637994143484627
0.002619620960997874,0.6638909224011713
0.002629696426232481,0.6638909224011713
0.002629696426232481,0.6640739385065886
0.002634734158849785,0.6640739385065886
0.002634734158849785,0.664714494875549
0.0026397718914670885,0.664714494875549
0.0026397718914670885,0.6649890190336749
0.002644809624084392,0.6649890190336749
0.002644809624084392,0.6654465592972182
0.002649847356701696,0.6654465592972182
0.002649847356701696,0.6655380673499268
0.0026649605545536067,0.6655380673499268
0.0026649605545536067,0.6656295754026355
0.0026750360197882136,0.6656295754026355
0.0026750360197882136,0.6660871156661786
0.0026800737524055175,0.6660871156661786
0.0026800737524055175,0.6661786237188873
0.002685111485022821,0.6661786237188873
0.002685111485022821,0.6662701317715959
0.0026901492176401244,0.6662701317715959
0.0026901492176401244,0.6663616398243045
0.0027052624154920353,0.6663616398243045
0.0027052624154920353,0.6664531478770132
0.002710300148109339,0.6664531478770132
0.002710300148109339,0.6665446559297218
0.002720375613343946,0.6665446559297218
0.002720375613343946,0.6666361639824304
0.0027254133459612495,0.6666361639824304
0.0027254133459612495,0.6670021961932651
0.002735488811195857,0.6670021961932651
0.002735488811195857,0.6670937042459737
0.0027405265438131604,0.6670937042459737
0.0027405265438131604,0.6673682284040996
0.0027455642764304643,0.6673682284040996
0.0027455642764304643,0.6674597364568082
0.0027506020090477677,0.6674597364568082
0.0027506020090477677,0.6675512445095169
0.002755639741665071,0.6675512445095169
0.002755639741665071,0.6681002928257687
0.002760677474282375,0.6681002928257687
0.002760677474282375,0.6681918008784773
0.0027657152068996786,0.6681918008784773
0.0027657152068996786,0.6684663250366032
0.002770752939516982,0.6684663250366032
0.002770752939516982,0.6687408491947291
0.002775790672134286,0.6687408491947291
0.002775790672134286,0.6688323572474377
0.0027909038699861968,0.6688323572474377
0.0027909038699861968,0.6690153733528551
0.0027959416026035002,0.6690153733528551
0.0027959416026035002,0.669289897510981
0.0028009793352208037,0.669289897510981
0.0028009793352208037,0.6698389458272328
0.0028160925330727145,0.6698389458272328
0.0028160925330727145,0.6701134699853587
0.0028211302656900184,0.6701134699853587
0.0028211302656900184,0.6702049780380673
0.002826167998307322,0.6702049780380673
0.002826167998307322,0.670296486090776
0.0028362434635419292,0.670296486090776
0.0028362434635419292,0.6707540263543191
0.0028412811961592327,0.6707540263543191
0.0028412811961592327,0.6711200585651538
0.002846318928776536,0.6711200585651538
0.002846318928776536,0.6712115666178624
0.0028664698592457505,0.6712115666178624
0.0028664698592457505,0.6713945827232797
0.0028715075918630544,0.6713945827232797
0.0028715075918630544,0.6715775988286969
0.002876545324480358,0.6715775988286969
0.002876545324480358,0.6724926793557833
0.0028815830570976613,0.6724926793557833
0.0028815830570976613,0.6731332357247438
0.0028916585223322687,0.6731332357247438
0.0028916585223322687,0.6732247437774525
0.002896696254949572,0.6732247437774525
0.002896696254949572,0.673590775988287
0.002901733987566876,0.673590775988287
0.002901733987566876,0.6741398243045388
0.002911809452801483,0.6741398243045388
0.002911809452801483,0.6745058565153733
0.002916847185418787,0.6745058565153733
0.002916847185418787,0.674871888726208
0.0029269226506533938,0.674871888726208
0.0029269226506533938,0.6751464128843339
0.0029319603832706977,0.6751464128843339
0.0029319603832706977,0.6752379209370425
0.002936998115888001,0.6752379209370425
0.002936998115888001,0.6756954612005857
0.0029420358485053046,0.6756954612005857
0.0029420358485053046,0.6757869692532943
0.0029470735811226085,0.6757869692532943
0.0029470735811226085,0.6758784773060029
0.002952111313739912,0.6758784773060029
0.002952111313739912,0.6761530014641288
0.0029571490463572154,0.6761530014641288
0.0029571490463572154,0.676885065885798
0.0029621867789745193,0.676885065885798
0.0029621867789745193,0.6770680819912153
0.002967224511591823,0.6770680819912153
0.002967224511591823,0.6772510980966325
0.00297729997682643,0.6772510980966325
0.00297729997682643,0.6776171303074671
0.0029823377094437336,0.6776171303074671
0.0029823377094437336,0.6777086383601757
0.0029974509072956445,0.6777086383601757
0.0029974509072956445,0.6783491947291361
0.0030075263725302514,0.6783491947291361
0.0030075263725302514,0.6784407027818448
0.0030125641051475553,0.6784407027818448
0.0030125641051475553,0.6787152269399708
0.003022639570382162,0.6787152269399708
0.003022639570382162,0.6791727672035139
0.003037752768234073,0.6791727672035139
0.003037752768234073,0.6793557833089312
0.003042790500851377,0.6793557833089312
0.003042790500851377,0.6797218155197657
0.0030478282334686804,0.6797218155197657
0.0030478282334686804,0.6798133235724744
0.0030629414313205912,0.6798133235724744
0.0030629414313205912,0.6802708638360175
0.0030730168965551986,0.6802708638360175
0.0030730168965551986,0.6803623718887262
0.003078054629172502,0.6803623718887262
0.003078054629172502,0.6807284040995608
0.0030881300944071094,0.6807284040995608
0.0030881300944071094,0.6808199121522694
0.003093167827024413,0.6808199121522694
0.003093167827024413,0.6810029282576867
0.0030982055596417164,0.6810029282576867
0.0030982055596417164,0.681185944363104
0.0031032432922590203,0.681185944363104
0.0031032432922590203,0.6813689604685212
0.0031082810248763237,0.6813689604685212
0.0031082810248763237,0.6815519765739385
0.003113318757493627,0.6815519765739385
0.003113318757493627,0.6823755490483162
0.003118356490110931,0.6823755490483162
0.003118356490110931,0.6827415812591509
0.0031233942227282346,0.6827415812591509
0.0031233942227282346,0.683199121522694
0.0031334696879628415,0.683199121522694
0.0031334696879628415,0.6832906295754027
0.0031485828858147523,0.6832906295754027
0.0031485828858147523,0.6835651537335286
0.003153620618432056,0.6835651537335286
0.003153620618432056,0.6840226939970717
0.0031586583510493597,0.6840226939970717
0.0031586583510493597,0.6841142020497804
0.003163696083666663,0.6841142020497804
0.003163696083666663,0.684205710102489
0.003178809281518574,0.684205710102489
0.003178809281518574,0.6842972181551976
0.0031989602119877887,0.6842972181551976
0.0031989602119877887,0.6847547584187409
0.003203997944605092,0.6847547584187409
0.003203997944605092,0.6850292825768668
0.003219111142457003,0.6850292825768668
0.003219111142457003,0.6852122986822841
0.0032291866076916103,0.6852122986822841
0.0032291866076916103,0.6853038067349927
0.0032392620729262173,0.6853038067349927
0.0032392620729262173,0.6856698389458272
0.0032493375381608246,0.6856698389458272
0.0032493375381608246,0.6858528550512445
0.003254375270778128,0.6858528550512445
0.003254375270778128,0.6860358711566618
0.0032644507360127355,0.6860358711566618
0.0032644507360127355,0.6863103953147877
0.0032745262012473424,0.6863103953147877
0.0032745262012473424,0.6864934114202049
0.0032846016664819498,0.6864934114202049
0.0032846016664819498,0.6870424597364568
0.003304752596951164,0.6870424597364568
0.003304752596951164,0.6872254758418741
0.003309790329568468,0.6872254758418741
0.003309790329568468,0.6873169838945827
0.0033148280621857714,0.6873169838945827
0.0033148280621857714,0.6874084919472914
0.003324903527420379,0.6874084919472914
0.003324903527420379,0.6875915080527086
0.0033299412600376822,0.6875915080527086
0.0033299412600376822,0.6876830161054173
0.0033349789926549857,0.6876830161054173
0.0033349789926549857,0.6878660322108345
0.0033400167252722896,0.6878660322108345
0.0033400167252722896,0.6879575402635432
0.0033500921905068965,0.6879575402635432
0.0033500921905068965,0.6882320644216691
0.0033652053883588074,0.6882320644216691
0.0033652053883588074,0.6885065885797951
0.0033752808535934147,0.6885065885797951
0.0033752808535934147,0.6888726207906296
0.003385356318828022,0.6888726207906296
0.003385356318828022,0.6890556368960469
0.0033903940514453256,0.6890556368960469
0.0033903940514453256,0.6891471449487555
0.0034055072492972364,0.6891471449487555
0.0034055072492972364,0.6894216691068814
0.00341054498191454,0.6894216691068814
0.00341054498191454,0.68951317715959
0.003445809110235665,0.68951317715959
0.003445809110235665,0.6900622254758418
0.0034558845754702723,0.6900622254758418
0.0034558845754702723,0.6903367496339677
0.0034659600407048797,0.6903367496339677
0.0034659600407048797,0.6904282576866764
0.0034760355059394866,0.6904282576866764
0.0034760355059394866,0.6905197657393851
0.0034911487037913975,0.6905197657393851
0.0034911487037913975,0.6906112737920937
0.0034961864364087014,0.6906112737920937
0.0034961864364087014,0.6907027818448024
0.003501224169026005,0.6907027818448024
0.003501224169026005,0.690794289897511
0.0035062619016433083,0.690794289897511
0.0035062619016433083,0.6909773060029283
0.003511299634260612,0.6909773060029283
0.003511299634260612,0.6911603221083455
0.0035163373668779157,0.6911603221083455
0.0035163373668779157,0.6919838945827232
0.003521375099495219,0.6919838945827232
0.003521375099495219,0.6920754026354319
0.0035314505647298265,0.6920754026354319
0.0035314505647298265,0.6922584187408491
0.0035516014951990408,0.6922584187408491
0.0035516014951990408,0.6924414348462665
0.003571752425668255,0.6924414348462665
0.003571752425668255,0.6925329428989752
0.003576790158285559,0.6925329428989752
0.003576790158285559,0.6928989751098097
0.00359190335613747,0.6928989751098097
0.00359190335613747,0.6933565153733529
0.0035969410887547733,0.6933565153733529
0.0035969410887547733,0.6936310395314788
0.0036019788213720767,0.6936310395314788
0.0036019788213720767,0.693814055636896
0.0036070165539893806,0.693814055636896
0.0036070165539893806,0.6939970717423133
0.003612054286606684,0.6939970717423133
0.003612054286606684,0.6941800878477306
0.0036170920192239876,0.6941800878477306
0.0036170920192239876,0.6942715959004392
0.003627167484458595,0.6942715959004392
0.003627167484458595,0.6948206442166911
0.0036372429496932023,0.6948206442166911
0.0036372429496932023,0.6949121522693997
0.0036422806823105057,0.6949121522693997
0.0036422806823105057,0.6952781844802343
0.003652356147545113,0.6952781844802343
0.003652356147545113,0.6958272327964861
0.0036573938801624166,0.6958272327964861
0.0036573938801624166,0.6960102489019033
0.0036725070780143274,0.6960102489019033
0.0036725070780143274,0.696101756954612
0.0036825825432489343,0.696101756954612
0.0036825825432489343,0.6962847730600292
0.0036926580084835417,0.6962847730600292
0.0036926580084835417,0.696376281112738
0.003697695741100845,0.696376281112738
0.003697695741100845,0.6964677891654466
0.003702733473718149,0.6964677891654466
0.003702733473718149,0.6971998535871157
0.0037077712063354525,0.6971998535871157
0.0037077712063354525,0.6972913616398243
0.003712808938952756,0.6972913616398243
0.003712808938952756,0.6973828696925329
0.00371784667157006,0.6973828696925329
0.00371784667157006,0.6974743777452416
0.003727922136804667,0.6974743777452416
0.003727922136804667,0.6975658857979502
0.0037329598694219707,0.6975658857979502
0.0037329598694219707,0.6977489019033675
0.0037480730672738815,0.6977489019033675
0.0037480730672738815,0.6979319180087847
0.003753110799891185,0.6979319180087847
0.003753110799891185,0.698114934114202
0.0037631862651257924,0.698114934114202
0.0037631862651257924,0.6982064421669106
0.003778299462977703,0.6982064421669106
0.003778299462977703,0.698389458272328
0.0037833371955950067,0.698389458272328
0.0037833371955950067,0.6984809663250366
0.0037934126608296136,0.6984809663250366
0.0037934126608296136,0.6991215226939971
0.0038085258586815244,0.6991215226939971
0.0038085258586815244,0.699396046852123
0.0038236390565334353,0.699396046852123
0.0038236390565334353,0.6998535871156661
0.003828676789150739,0.6998535871156661
0.003828676789150739,0.6999450951683748
0.00384378998700265,0.6999450951683748
0.00384378998700265,0.700128111273792
0.0038488277196199534,0.700128111273792
0.0038488277196199534,0.700402635431918
0.0038639409174718643,0.700402635431918
0.0038639409174718643,0.7004941434846267
0.0038689786500891677,0.7004941434846267
0.0038689786500891677,0.700677159590044
0.0038740163827064716,0.700677159590044
0.0038740163827064716,0.7010431918008785
0.003879054115323775,0.7010431918008785
0.003879054115323775,0.7013177159590044
0.0038840918479410786,0.7013177159590044
0.0038840918479410786,0.7015922401171303
0.0038891295805583825,0.7015922401171303
0.0038891295805583825,0.7017752562225475
0.003894167313175686,0.7017752562225475
0.003894167313175686,0.7024158125915081
0.0039042427784102933,0.7024158125915081
0.0039042427784102933,0.7025988286969254
0.003909280511027596,0.7025988286969254
0.003909280511027596,0.7028733528550513
0.0039143182436449,0.7028733528550513
0.0039143182436449,0.7029648609077599
0.003924393708879507,0.7029648609077599
0.003924393708879507,0.7033308931185944
0.003934469174114115,0.7033308931185944
0.003934469174114115,0.7034224011713031
0.003939506906731418,0.7034224011713031
0.003939506906731418,0.7036054172767203
0.003954620104583329,0.7036054172767203
0.003954620104583329,0.703696925329429
0.003959657837200633,0.703696925329429
0.003959657837200633,0.7037884333821376
0.00396973330243524,0.7037884333821376
0.00396973330243524,0.7040629575402635
0.0039747710350525435,0.7040629575402635
0.0039747710350525435,0.7043374816983895
0.0039798087676698474,0.7043374816983895
0.0039798087676698474,0.7044289897510981
0.003989884232904454,0.7044289897510981
0.003989884232904454,0.7048865300146413
0.003999959698139061,0.7048865300146413
0.003999959698139061,0.7050695461200586
0.004004997430756365,0.7050695461200586
0.004004997430756365,0.7052525622254758
0.004015072895990972,0.7052525622254758
0.004015072895990972,0.7066251830161054
0.00402514836122558,0.7066251830161054
0.00402514836122558,0.7067166910688141
0.004030186093842883,0.7067166910688141
0.004030186093842883,0.7070827232796486
0.004035223826460187,0.7070827232796486
0.004035223826460187,0.7074487554904831
0.004040261559077491,0.7074487554904831
0.004040261559077491,0.7075402635431918
0.004050337024312098,0.7075402635431918
0.004050337024312098,0.7078147877013177
0.004055374756929402,0.7078147877013177
0.004055374756929402,0.7079978038067349
0.004070487954781312,0.7079978038067349
0.004070487954781312,0.7080893118594437
0.0040755256873986154,0.7080893118594437
0.0040755256873986154,0.708272327964861
0.004110789815719741,0.708272327964861
0.004110789815719741,0.7086383601756955
0.004125903013571652,0.7086383601756955
0.004125903013571652,0.7087298682284041
0.004130940746188955,0.7087298682284041
0.004130940746188955,0.7094619326500732
0.004135978478806259,0.7094619326500732
0.004135978478806259,0.7095534407027818
0.004141016211423563,0.7095534407027818
0.004141016211423563,0.7097364568081991
0.00415109167665817,0.7097364568081991
0.00415109167665817,0.7100109809663251
0.0041611671418927765,0.7100109809663251
0.0041611671418927765,0.7101939970717424
0.00416620487451008,0.7101939970717424
0.00416620487451008,0.7103770131771596
0.004176280339744687,0.7103770131771596
0.004176280339744687,0.7104685212298683
0.004181318072361991,0.7104685212298683
0.004181318072361991,0.7107430453879942
0.004186355804979295,0.7107430453879942
0.004186355804979295,0.7108345534407028
0.004191393537596598,0.7108345534407028
0.004191393537596598,0.711292093704246
0.004196431270213902,0.711292093704246
0.004196431270213902,0.7114751098096632
0.00422161993330042,0.7114751098096632
0.00422161993330042,0.7125732064421669
0.004226657665917724,0.7125732064421669
0.004226657665917724,0.7126647144948756
0.004231695398535028,0.7126647144948756
0.004231695398535028,0.7130307467057101
0.004236733131152331,0.7130307467057101
0.004236733131152331,0.713305270863836
0.0042417708637696346,0.713305270863836
0.0042417708637696346,0.7133967789165446
0.0042468085963869385,0.7133967789165446
0.0042468085963869385,0.7134882869692533
0.0042518463290042415,0.7134882869692533
0.0042518463290042415,0.7135797950219619
0.004261921794238849,0.7135797950219619
0.004261921794238849,0.7137628111273792
0.004266959526856152,0.7137628111273792
0.004266959526856152,0.7140373352855052
0.004271997259473456,0.7140373352855052
0.004271997259473456,0.7143118594436311
0.00427703499209076,0.7143118594436311
0.00427703499209076,0.7144948755490483
0.004287110457325367,0.7144948755490483
0.004287110457325367,0.7148609077598829
0.004292148189942671,0.7148609077598829
0.004292148189942671,0.7150439238653001
0.004297185922559974,0.7150439238653001
0.004297185922559974,0.7151354319180088
0.004302223655177278,0.7151354319180088
0.004302223655177278,0.7152269399707174
0.004307261387794582,0.7152269399707174
0.004307261387794582,0.7154099560761347
0.004312299120411885,0.7154099560761347
0.004312299120411885,0.7155014641288433
0.004327412318263796,0.7155014641288433
0.004327412318263796,0.7158674963396779
0.004352600981350314,0.7158674963396779
0.004352600981350314,0.7163250366032211
0.004362676446584921,0.7163250366032211
0.004362676446584921,0.7167825768667643
0.004367714179202225,0.7167825768667643
0.004367714179202225,0.7168740849194729
0.004372751911819528,0.7168740849194729
0.004372751911819528,0.7169655929721815
0.004377789644436832,0.7169655929721815
0.004377789644436832,0.7171486090775988
0.004382827377054136,0.7171486090775988
0.004382827377054136,0.7174231332357247
0.004387865109671439,0.7174231332357247
0.004387865109671439,0.7175146412884333
0.004392902842288743,0.7175146412884333
0.004392902842288743,0.717606149341142
0.00440297830752335,0.717606149341142
0.00440297830752335,0.7177891654465594
0.0044281669706098675,0.7177891654465594
0.0044281669706098675,0.7184297218155198
0.004433204703227171,0.7184297218155198
0.004433204703227171,0.718612737920937
0.004443280168461778,0.718612737920937
0.004443280168461778,0.7187042459736457
0.004453355633696386,0.7187042459736457
0.004453355633696386,0.7187957540263543
0.004458393366313689,0.7187957540263543
0.004458393366313689,0.7189787701317716
0.004463431098930993,0.7189787701317716
0.004463431098930993,0.7194363103953147
0.0044735065641656,0.7194363103953147
0.0044735065641656,0.7197108345534406
0.004483582029400208,0.7197108345534406
0.004483582029400208,0.7200768667642753
0.004493657494634815,0.7200768667642753
0.004493657494634815,0.7202598828696926
0.004503732959869422,0.7202598828696926
0.004503732959869422,0.7206259150805271
0.0045087706924867256,0.7206259150805271
0.0045087706924867256,0.7209919472913616
0.0045138084251040295,0.7209919472913616
0.0045138084251040295,0.7210834553440703
0.0045188461577213325,0.7210834553440703
0.0045188461577213325,0.7212664714494875
0.004523883890338636,0.7212664714494875
0.004523883890338636,0.7214494875549048
0.004538997088190547,0.7214494875549048
0.004538997088190547,0.7218155197657394
0.004544034820807851,0.7218155197657394
0.004544034820807851,0.7219070278184481
0.004564185751277065,0.7219070278184481
0.004564185751277065,0.7220900439238653
0.004574261216511673,0.7220900439238653
0.004574261216511673,0.7222730600292826
0.004579298949128976,0.7222730600292826
0.004579298949128976,0.7225475841874085
0.004594412146980887,0.7225475841874085
0.004594412146980887,0.7226390922401171
0.0046044876122154944,0.7226390922401171
0.0046044876122154944,0.7227306002928258
0.004614563077450101,0.7227306002928258
0.004614563077450101,0.722913616398243
0.004624638542684708,0.722913616398243
0.004624638542684708,0.7230051244509517
0.004634714007919316,0.7230051244509517
0.004634714007919316,0.7231881405563689
0.004639751740536619,0.7231881405563689
0.004639751740536619,0.7233711566617862
0.00465486493838853,0.7233711566617862
0.00465486493838853,0.7235541727672035
0.004664940403623137,0.7235541727672035
0.004664940403623137,0.7243777452415813
0.004675015868857745,0.7243777452415813
0.004675015868857745,0.7244692532942899
0.0046901290667096555,0.7244692532942899
0.0046901290667096555,0.7246522693997072
0.004715317729796173,0.7246522693997072
0.004715317729796173,0.7250183016105417
0.00472539319503078,0.7250183016105417
0.00472539319503078,0.7254758418740849
0.004740506392882691,0.7254758418740849
0.004740506392882691,0.7255673499267935
0.004745544125499995,0.7255673499267935
0.004745544125499995,0.7258418740849195
0.004755619590734602,0.7258418740849195
0.004755619590734602,0.7261163982430454
0.004760657323351906,0.7261163982430454
0.004760657323351906,0.72648243045388
0.00476569505596921,0.72648243045388
0.00476569505596921,0.7267569546120058
0.004770732788586513,0.7267569546120058
0.004770732788586513,0.727214494875549
0.004775770521203817,0.727214494875549
0.004775770521203817,0.7275805270863837
0.0047808082538211205,0.7275805270863837
0.0047808082538211205,0.7277635431918009
0.0047858459864384235,0.7277635431918009
0.0047858459864384235,0.7278550512445096
0.004790883719055727,0.7278550512445096
0.004790883719055727,0.7282210834553441
0.004800959184290334,0.7282210834553441
0.004800959184290334,0.7284040995607614
0.004811034649524942,0.7284040995607614
0.004811034649524942,0.7287701317715959
0.004826147847376853,0.7287701317715959
0.004826147847376853,0.7288616398243045
0.00483622331261146,0.7288616398243045
0.00483622331261146,0.729227672035139
0.004841261045228764,0.729227672035139
0.004841261045228764,0.7295021961932651
0.0048664497083152815,0.7295021961932651
0.0048664497083152815,0.7296852122986823
0.0048765251735498885,0.7296852122986823
0.0048765251735498885,0.729776720351391
0.004891638371401799,0.729776720351391
0.004891638371401799,0.7300512445095169
0.004926902499722925,0.7300512445095169
0.004926902499722925,0.7304172767203514
0.004931940232340228,0.7304172767203514
0.004931940232340228,0.7309663250366032
0.004936977964957532,0.7309663250366032
0.004936977964957532,0.7311493411420205
0.004942015697574836,0.7311493411420205
0.004942015697574836,0.7313323572474377
0.004947053430192139,0.7313323572474377
0.004947053430192139,0.7314238653001464
0.004952091162809443,0.7314238653001464
0.004952091162809443,0.7316068814055637
0.0049571288954267465,0.7316068814055637
0.0049571288954267465,0.7318814055636896
0.0049672043606613535,0.7318814055636896
0.0049672043606613535,0.7320644216691069
0.004972242093278657,0.7320644216691069
0.004972242093278657,0.7321559297218155
0.00497727982589596,0.7321559297218155
0.00497727982589596,0.7324304538799414
0.004992393023747871,0.7324304538799414
0.004992393023747871,0.7327049780380673
0.004997430756365175,0.7327049780380673
0.004997430756365175,0.732796486090776
0.005012543954217086,0.732796486090776
0.005012543954217086,0.7329795021961932
0.005027657152068997,0.7329795021961932
0.005027657152068997,0.7330710102489019
0.005032694884686301,0.7330710102489019
0.005032694884686301,0.7332540263543191
0.005037732617303604,0.7332540263543191
0.005037732617303604,0.7336200585651538
0.0050478080825382115,0.7336200585651538
0.0050478080825382115,0.7337115666178624
0.005062921280390122,0.7337115666178624
0.005062921280390122,0.733803074670571
0.005067959013007425,0.733803074670571
0.005067959013007425,0.7344436310395315
0.005078034478242033,0.7344436310395315
0.005078034478242033,0.7345351390922401
0.005083072210859336,0.7345351390922401
0.005083072210859336,0.7346266471449487
0.005093147676093944,0.7346266471449487
0.005093147676093944,0.7347181551976574
0.005098185408711247,0.7347181551976574
0.005098185408711247,0.7349011713030746
0.005103223141328551,0.7349011713030746
0.005103223141328551,0.7353587115666179
0.005108260873945855,0.7353587115666179
0.005108260873945855,0.7354502196193266
0.005118336339180462,0.7354502196193266
0.005118336339180462,0.7355417276720352
0.005128411804415069,0.7355417276720352
0.005128411804415069,0.7358162518301611
0.0051384872696496765,0.7358162518301611
0.0051384872696496765,0.7359992679355783
0.0051435250022669795,0.7359992679355783
0.0051435250022669795,0.736090775988287
0.005153600467501587,0.736090775988287
0.005153600467501587,0.7362737920937042
0.00515863820011889,0.7362737920937042
0.00515863820011889,0.7369143484626647
0.005178789130588105,0.7369143484626647
0.005178789130588105,0.7370058565153733
0.005188864595822712,0.7370058565153733
0.005188864595822712,0.7371888726207906
0.005203977793674623,0.7371888726207906
0.005203977793674623,0.737371888726208
0.00521405325890923,0.737371888726208
0.00521405325890923,0.7375549048316252
0.0052241287241438375,0.7375549048316252
0.0052241287241438375,0.7378294289897511
0.005239241921995748,0.7378294289897511
0.005239241921995748,0.7383784773060029
0.005244279654613051,0.7383784773060029
0.005244279654613051,0.7385614934114202
0.005249317387230355,0.7385614934114202
0.005249317387230355,0.7386530014641288
0.005254355119847659,0.7386530014641288
0.005254355119847659,0.7387445095168375
0.005264430585082266,0.7387445095168375
0.005264430585082266,0.7388360175695461
0.00526946831769957,0.7388360175695461
0.00526946831769957,0.7390190336749634
0.005274506050316873,0.7390190336749634
0.005274506050316873,0.7392020497803806
0.005279543782934177,0.7392020497803806
0.005279543782934177,0.7392935578330894
0.005299694713403392,0.7392935578330894
0.005299694713403392,0.7394765739385066
0.0053148079112553025,0.7394765739385066
0.0053148079112553025,0.7397510980966325
0.005345034306959124,0.7397510980966325
0.005345034306959124,0.7398426061493412
0.005350072039576427,0.7398426061493412
0.005350072039576427,0.7399341142020498
0.005380298435280249,0.7399341142020498
0.005380298435280249,0.7400256222547584
0.005390373900514857,0.7400256222547584
0.005390373900514857,0.7403001464128843
0.005400449365749464,0.7403001464128843
0.005400449365749464,0.740391654465593
0.005415562563601374,0.740391654465593
0.005415562563601374,0.7404831625183016
0.005425638028835981,0.7404831625183016
0.005425638028835981,0.7405746705710102
0.005440751226687892,0.7405746705710102
0.005440751226687892,0.7406661786237189
0.005445788959305196,0.7406661786237189
0.005445788959305196,0.7407576866764275
0.005450826691922499,0.7407576866764275
0.005450826691922499,0.7409407027818448
0.005455864424539803,0.7409407027818448
0.005455864424539803,0.7410322108345534
0.005460902157157107,0.7410322108345534
0.005460902157157107,0.7412152269399708
0.00546593988977441,0.7412152269399708
0.00546593988977441,0.741398243045388
0.005470977622391714,0.741398243045388
0.005470977622391714,0.7414897510980967
0.005476015355009018,0.7414897510980967
0.005476015355009018,0.7416727672035139
0.005486090820243625,0.7416727672035139
0.005486090820243625,0.7417642752562226
0.0055012040180955355,0.7417642752562226
0.0055012040180955355,0.7419472913616398
0.005506241750712839,0.7419472913616398
0.005506241750712839,0.742404831625183
0.00552135494856475,0.742404831625183
0.00552135494856475,0.7424963396778916
0.005536468146416661,0.7424963396778916
0.005536468146416661,0.7425878477306003
0.005541505879033964,0.7425878477306003
0.005541505879033964,0.7430453879941434
0.005546543611651268,0.7430453879941434
0.005546543611651268,0.7432284040995608
0.005551581344268572,0.7432284040995608
0.005551581344268572,0.7433199121522694
0.005556619076885875,0.7433199121522694
0.005556619076885875,0.7435029282576867
0.005561656809503179,0.7435029282576867
0.005561656809503179,0.7435944363103953
0.0055818077399723935,0.7435944363103953
0.0055818077399723935,0.7438689604685212
0.0055868454725896965,0.7438689604685212
0.0055868454725896965,0.7439604685212299
0.005596920937824304,0.7439604685212299
0.005596920937824304,0.7443265007320644
0.005601958670441607,0.7443265007320644
0.005601958670441607,0.744418008784773
0.005617071868293518,0.744418008784773
0.005617071868293518,0.7447840409956076
0.005622109600910822,0.7447840409956076
0.005622109600910822,0.7453330893118595
0.005632185066145429,0.7453330893118595
0.005632185066145429,0.7455161054172768
0.005657373729231948,0.7455161054172768
0.005657373729231948,0.7457906295754027
0.005662411461849251,0.7457906295754027
0.005662411461849251,0.7458821376281113
0.005667449194466555,0.7458821376281113
0.005667449194466555,0.7460651537335286
0.0056724869270838585,0.7460651537335286
0.0056724869270838585,0.7461566617862372
0.0056775246597011615,0.7461566617862372
0.0056775246597011615,0.7462481698389458
0.005687600124935769,0.7462481698389458
0.005687600124935769,0.7463396778916545
0.005712788788022287,0.7463396778916545
0.005712788788022287,0.7464311859443631
0.005727901985874198,0.7464311859443631
0.005727901985874198,0.7465226939970717
0.005732939718491501,0.7465226939970717
0.005732939718491501,0.7466142020497804
0.005748052916343412,0.7466142020497804
0.005748052916343412,0.746705710102489
0.005763166114195323,0.746705710102489
0.005763166114195323,0.7468887262079063
0.0057682038468126265,0.7468887262079063
0.0057682038468126265,0.7469802342606149
0.00577324157942993,0.7469802342606149
0.00577324157942993,0.7470717423133236
0.005778279312047233,0.7470717423133236
0.005778279312047233,0.7472547584187409
0.005783317044664537,0.7472547584187409
0.005783317044664537,0.7474377745241582
0.005788354777281841,0.7474377745241582
0.005788354777281841,0.7476207906295754
0.005808505707751055,0.7476207906295754
0.005808505707751055,0.7477122986822841
0.005813543440368359,0.7477122986822841
0.005813543440368359,0.7478953147877013
0.005818581172985663,0.7478953147877013
0.005818581172985663,0.74798682284041
0.005823618905602966,0.74798682284041
0.005823618905602966,0.7480783308931186
0.00582865663822027,0.7480783308931186
0.00582865663822027,0.7481698389458272
0.005838732103454877,0.7481698389458272
0.005838732103454877,0.7482613469985359
0.0058488075686894845,0.7482613469985359
0.0058488075686894845,0.7484443631039531
0.005868958499158698,0.7484443631039531
0.005868958499158698,0.7488103953147877
0.005873996231776002,0.7488103953147877
0.005873996231776002,0.7490849194729137
0.005889109429627913,0.7490849194729137
0.005889109429627913,0.7492679355783309
0.005904222627479824,0.7492679355783309
0.005904222627479824,0.7493594436310396
0.005909260360097128,0.7493594436310396
0.005909260360097128,0.7494509516837482
0.005924373557949039,0.7494509516837482
0.005924373557949039,0.7498169838945827
0.005934449023183646,0.7498169838945827
0.005934449023183646,0.75
0.005949562221035556,0.75
0.005949562221035556,0.7501830161054173
0.005964675418887467,0.7501830161054173
0.005964675418887467,0.7502745241581259
0.005969713151504771,0.7502745241581259
0.005969713151504771,0.7503660322108345
0.005974750884122074,0.7503660322108345
0.005974750884122074,0.7504575402635432
0.005979788616739378,0.7504575402635432
0.005979788616739378,0.7505490483162518
0.005999939547208592,0.7505490483162518
0.005999939547208592,0.7506405563689604
0.006004977279825896,0.7506405563689604
0.006004977279825896,0.7507320644216691
0.0060100150124432,0.7507320644216691
0.0060100150124432,0.7508235724743777
0.006025128210295111,0.7508235724743777
0.006025128210295111,0.7511896046852123
0.006030165942912414,0.7511896046852123
0.006030165942912414,0.7513726207906296
0.0060352036755297175,0.7513726207906296
0.0060352036755297175,0.7514641288433382
0.006045279140764324,0.7514641288433382
0.006045279140764324,0.7518301610541728
0.006075505536468146,0.7518301610541728
0.006075505536468146,0.75201317715959
0.00608054326908545,0.75201317715959
0.00608054326908545,0.7521046852122987
0.006110769664789272,0.7521046852122987
0.006110769664789272,0.7521961932650073
0.0061258828626411825,0.7521961932650073
0.0061258828626411825,0.7522877013177159
0.006130920595258486,0.7522877013177159
0.006130920595258486,0.7523792093704246
0.0061510715257277,0.7523792093704246
0.0061510715257277,0.7524707174231332
0.006161146990962308,0.7524707174231332
0.006161146990962308,0.7526537335285505
0.00619137338666613,0.7526537335285505
0.00619137338666613,0.7527452415812591
0.006196411119283433,0.7527452415812591
0.006196411119283433,0.7528367496339677
0.006221599782369951,0.7528367496339677
0.006221599782369951,0.7530197657393851
0.006226637514987254,0.7530197657393851
0.006226637514987254,0.7532027818448024
0.006231675247604558,0.7532027818448024
0.006231675247604558,0.753294289897511
0.006241750712839165,0.753294289897511
0.006241750712839165,0.7535688140556369
0.006256863910691076,0.7535688140556369
0.006256863910691076,0.7536603221083455
0.006266939375925683,0.7536603221083455
0.006266939375925683,0.7539348462664714
0.006287090306394898,0.7539348462664714
0.006287090306394898,0.754300878477306
0.006292128039012202,0.754300878477306
0.006292128039012202,0.7544838945827232
0.006297165771629505,0.7544838945827232
0.006297165771629505,0.7545754026354319
0.0063022035042468085,0.7545754026354319
0.0063022035042468085,0.7547584187408491
0.0063122789694814154,0.7547584187408491
0.0063122789694814154,0.7548499267935578
0.006317316702098719,0.7548499267935578
0.006317316702098719,0.7551244509516838
0.006322354434716023,0.7551244509516838
0.006322354434716023,0.7552159590043924
0.006342505365185237,0.7552159590043924
0.006342505365185237,0.7553074670571011
0.006352580830419845,0.7553074670571011
0.006352580830419845,0.7553989751098097
0.006357618563037148,0.7553989751098097
0.006357618563037148,0.755581991215227
0.006362656295654452,0.755581991215227
0.006362656295654452,0.7560395314787701
0.006367694028271756,0.7560395314787701
0.006367694028271756,0.7564055636896047
0.006372731760889059,0.7564055636896047
0.006372731760889059,0.7565885797950219
0.00638784495874097,0.7565885797950219
0.00638784495874097,0.7566800878477306
0.0063928826913582735,0.7566800878477306
0.0063928826913582735,0.7567715959004392
0.00640295815659288,0.7567715959004392
0.00640295815659288,0.7570461200585652
0.006418071354444791,0.7570461200585652
0.006418071354444791,0.7571376281112738
0.006428146819679399,0.7571376281112738
0.006428146819679399,0.7572291361639825
0.006433184552296702,0.7572291361639825
0.006433184552296702,0.7578696925329429
0.006438222284914006,0.7578696925329429
0.006438222284914006,0.7579612005856515
0.00644326001753131,0.7579612005856515
0.00644326001753131,0.7582357247437774
0.006458373215383221,0.7582357247437774
0.006458373215383221,0.7583272327964861
0.006463410948000524,0.7583272327964861
0.006463410948000524,0.7585102489019033
0.006468448680617828,0.7585102489019033
0.006468448680617828,0.758601756954612
0.0064734864132351315,0.758601756954612
0.0064734864132351315,0.7586932650073206
0.006488599611087042,0.7586932650073206
0.006488599611087042,0.7587847730600292
0.006503712808938953,0.7587847730600292
0.006503712808938953,0.7593338213762811
0.006508750541556256,0.7593338213762811
0.006508750541556256,0.7594253294289898
0.00651378827417356,0.7594253294289898
0.00651378827417356,0.7595168374816984
0.006518826006790863,0.7595168374816984
0.006518826006790863,0.7596998535871157
0.006523863739408167,0.7596998535871157
0.006523863739408167,0.7599743777452416
0.006528901472025471,0.7599743777452416
0.006528901472025471,0.7601573938506588
0.006544014669877382,0.7601573938506588
0.006544014669877382,0.7603404099560761
0.006559127867729293,0.7603404099560761
0.006559127867729293,0.7604319180087847
0.006574241065581203,0.7604319180087847
0.006574241065581203,0.7605234260614934
0.0065792787981985065,0.7605234260614934
0.0065792787981985065,0.760614934114202
0.00658431653081581,0.760614934114202
0.00658431653081581,0.7607064421669106
0.006594391996050417,0.7607064421669106
0.006594391996050417,0.7611639824304539
0.006604467461285025,0.7611639824304539
0.006604467461285025,0.7614385065885798
0.006614542926519632,0.7614385065885798
0.006614542926519632,0.7615300146412884
0.006624618391754239,0.7615300146412884
0.006624618391754239,0.7616215226939971
0.006629656124371543,0.7616215226939971
0.006629656124371543,0.7617130307467057
0.006634693856988847,0.7617130307467057
0.006634693856988847,0.7619875549048316
0.00663973158960615,0.7619875549048316
0.00663973158960615,0.7623535871156661
0.0066598825200753645,0.7623535871156661
0.0066598825200753645,0.762628111273792
0.006664920252692668,0.762628111273792
0.006664920252692668,0.7627196193265008
0.006669957985309971,0.7627196193265008
0.006669957985309971,0.7629941434846267
0.006674995717927275,0.7629941434846267
0.006674995717927275,0.7634516837481699
0.006680033450544579,0.7634516837481699
0.006680033450544579,0.7635431918008785
0.006700184381013793,0.7635431918008785
0.006700184381013793,0.7636346998535871
0.006705222113631097,0.7636346998535871
0.006705222113631097,0.763909224011713
0.006710259846248401,0.763909224011713
0.006710259846248401,0.7640007320644217
0.006725373044100312,0.7640007320644217
0.006725373044100312,0.7640922401171303
0.006730410776717615,0.7640922401171303
0.006730410776717615,0.7641837481698389
0.006735448509334919,0.7641837481698389
0.006735448509334919,0.7642752562225475
0.0067505617071868295,0.7642752562225475
0.0067505617071868295,0.7646412884333821
0.006760637172421436,0.7646412884333821
0.006760637172421436,0.7647327964860908
0.00676567490503874,0.7647327964860908
0.00676567490503874,0.7649158125915081
0.006780788102890651,0.7649158125915081
0.006780788102890651,0.7650988286969254
0.006790863568125258,0.7650988286969254
0.006790863568125258,0.765190336749634
0.006805976765977169,0.765190336749634
0.006805976765977169,0.7653733528550513
0.0068362031616809905,0.7653733528550513
0.0068362031616809905,0.7654648609077599
0.0068412408942982944,0.7654648609077599
0.0068412408942982944,0.7660139092240117
0.006851316359532901,0.7660139092240117
0.006851316359532901,0.7661054172767203
0.006861391824767508,0.7661054172767203
0.006861391824767508,0.766196925329429
0.006866429557384812,0.766196925329429
0.006866429557384812,0.7662884333821376
0.006881542755236723,0.7662884333821376
0.006881542755236723,0.7663799414348462
0.006886580487854027,0.7663799414348462
0.006886580487854027,0.7665629575402635
0.00689161822047133,0.7665629575402635
0.00689161822047133,0.7670204978038068
0.006901693685705938,0.7670204978038068
0.006901693685705938,0.7673865300146413
0.006906731418323241,0.7673865300146413
0.006906731418323241,0.7674780380673499
0.006911769150940545,0.7674780380673499
0.006911769150940545,0.7676610541727672
0.00694703327926167,0.7676610541727672
0.00694703327926167,0.7678440702781845
0.006957108744496277,0.7678440702781845
0.006957108744496277,0.7679355783308931
0.006962146477113581,0.7679355783308931
0.006962146477113581,0.7680270863836017
0.00700244833805201,0.7680270863836017
0.00700244833805201,0.7681185944363104
0.0070074860706693136,0.7681185944363104
0.0070074860706693136,0.768210102489019
0.0070175615359039205,0.768210102489019
0.0070175615359039205,0.7683931185944363
0.007022599268521224,0.7683931185944363
0.007022599268521224,0.7685761346998536
0.007032674733755831,0.7685761346998536
0.007032674733755831,0.7686676427525623
0.007037712466373135,0.7686676427525623
0.007037712466373135,0.7687591508052709
0.007067938862076956,0.7687591508052709
0.007067938862076956,0.7691251830161054
0.00707297659469426,0.7691251830161054
0.00707297659469426,0.76949121522694
0.007093127525163475,0.76949121522694
0.007093127525163475,0.7695827232796486
0.0071032029903980816,0.7695827232796486
0.0071032029903980816,0.7698572474377745
0.007118316188249992,0.7698572474377745
0.007118316188249992,0.7699487554904831
0.007138467118719207,0.7699487554904831
0.007138467118719207,0.7700402635431918
0.00714350485133651,0.7700402635431918
0.00714350485133651,0.7706808199121523
0.007148542583953814,0.7706808199121523
0.007148542583953814,0.770772327964861
0.007153580316571118,0.770772327964861
0.007153580316571118,0.7708638360175696
0.007168693514423029,0.7708638360175696
0.007168693514423029,0.7712298682284041
0.007173731247040332,0.7712298682284041
0.007173731247040332,0.7713213762811127
0.007188844444892243,0.7713213762811127
0.007188844444892243,0.7714128843338214
0.0071938821775095465,0.7714128843338214
0.0071938821775095465,0.77150439238653
0.007208995375361457,0.77150439238653
0.007208995375361457,0.7715959004392386
0.007214033107978761,0.7715959004392386
0.007214033107978761,0.7719619326500732
0.007219070840596064,0.7719619326500732
0.007219070840596064,0.7721449487554904
0.007259372701534494,0.7721449487554904
0.007259372701534494,0.7724194729136163
0.007279523632003708,0.7724194729136163
0.007279523632003708,0.7726024890190337
0.007299674562472922,0.7726024890190337
0.007299674562472922,0.7726939970717424
0.007304712295090226,0.7726939970717424
0.007304712295090226,0.7728770131771596
0.007309750027707529,0.7728770131771596
0.007309750027707529,0.7730600292825769
0.00732486322555944,0.7730600292825769
0.00732486322555944,0.7732430453879942
0.007345014156028655,0.7732430453879942
0.007345014156028655,0.7734260614934114
0.007360127353880566,0.7734260614934114
0.007360127353880566,0.77351756954612
0.007370202819115173,0.77351756954612
0.007370202819115173,0.7742496339677891
0.0073752405517324765,0.7742496339677891
0.0073752405517324765,0.7744326500732065
0.0073802782843497795,0.7744326500732065
0.0073802782843497795,0.7745241581259151
0.007410504680053601,0.7745241581259151
0.007410504680053601,0.7746156661786238
0.007415542412670905,0.7746156661786238
0.007415542412670905,0.7747071742313324
0.007425617877905512,0.7747071742313324
0.007425617877905512,0.7748901903367497
0.007430655610522816,0.7748901903367497
0.007430655610522816,0.7753477306002928
0.00743569334314012,0.7753477306002928
0.00743569334314012,0.7754392386530015
0.007440731075757423,0.7754392386530015
0.007440731075757423,0.7761713030746705
0.007450806540992031,0.7761713030746705
0.007450806540992031,0.7763543191800878
0.0074709574714612445,0.7763543191800878
0.0074709574714612445,0.7764458272327965
0.007475995204078548,0.7764458272327965
0.007475995204078548,0.7766288433382138
0.007491108401930459,0.7766288433382138
0.007491108401930459,0.7767203513909224
0.007501183867165066,0.7767203513909224
0.007501183867165066,0.7768118594436311
0.00750622159978237,0.7768118594436311
0.00750622159978237,0.7769948755490483
0.007516297065016977,0.7769948755490483
0.007516297065016977,0.777086383601757
0.007521334797634281,0.777086383601757
0.007521334797634281,0.7773609077598829
0.007526372530251585,0.7773609077598829
0.007526372530251585,0.7774524158125915
0.007536447995486192,0.7774524158125915
0.007536447995486192,0.7777269399707174
0.007541485728103496,0.7777269399707174
0.007541485728103496,0.777818448023426
0.0075515611933381025,0.777818448023426
0.0075515611933381025,0.7779099560761347
0.007556598925955406,0.7779099560761347
0.007556598925955406,0.7780014641288433
0.007566674391190013,0.7780014641288433
0.007566674391190013,0.7782759882869692
0.00757674985642462,0.7782759882869692
0.00757674985642462,0.7783674963396779
0.007581787589041924,0.7783674963396779
0.007581787589041924,0.7784590043923866
0.007591863054276531,0.7784590043923866
0.007591863054276531,0.7785505124450952
0.007596900786893835,0.7785505124450952
0.007596900786893835,0.7786420204978038
0.007601938519511138,0.7786420204978038
0.007601938519511138,0.7788250366032211
0.007606976252128442,0.7788250366032211
0.007606976252128442,0.7789165446559297
0.007627127182597657,0.7789165446559297
0.007627127182597657,0.7790080527086384
0.0076422403804495675,0.7790080527086384
0.0076422403804495675,0.779099560761347
0.007657353578301478,0.779099560761347
0.007657353578301478,0.7794655929721815
0.007667429043536085,0.7794655929721815
0.007667429043536085,0.7797401171303074
0.007677504508770692,0.7797401171303074
0.007677504508770692,0.7799231332357247
0.007682542241387996,0.7799231332357247
0.007682542241387996,0.7800146412884333
0.007707730904474514,0.7800146412884333
0.007707730904474514,0.780380673499268
0.007748032765412943,0.780380673499268
0.007748032765412943,0.7804721815519766
0.00775810823064755,0.7804721815519766
0.00775810823064755,0.7805636896046853
0.007763145963264854,0.7805636896046853
0.007763145963264854,0.7806551976573939
0.007773221428499461,0.7806551976573939
0.007773221428499461,0.7807467057101025
0.007788334626351372,0.7807467057101025
0.007788334626351372,0.7808382137628112
0.007793372358968676,0.7808382137628112
0.007793372358968676,0.7809297218155198
0.007818561022055193,0.7809297218155198
0.007818561022055193,0.7810212298682284
0.0078286364872898,0.7810212298682284
0.0078286364872898,0.781112737920937
0.007833674219907103,0.781112737920937
0.007833674219907103,0.7812042459736457
0.007848787417759014,0.7812042459736457
0.007848787417759014,0.7812957540263543
0.007853825150376319,0.7812957540263543
0.007853825150376319,0.781387262079063
0.007858862882993622,0.781387262079063
0.007858862882993622,0.7814787701317716
0.007873976080845533,0.7814787701317716
0.007873976080845533,0.7815702781844802
0.00788405154608014,0.7815702781844802
0.00788405154608014,0.7816617862371888
0.007899164743932052,0.7816617862371888
0.007899164743932052,0.7817532942898975
0.007934428872253176,0.7817532942898975
0.007934428872253176,0.7818448023426061
0.007944504337487784,0.7818448023426061
0.007944504337487784,0.7820278184480234
0.007949542070105087,0.7820278184480234
0.007949542070105087,0.782119326500732
0.007969693000574301,0.782119326500732
0.007969693000574301,0.7823023426061494
0.007979768465808909,0.7823023426061494
0.007979768465808909,0.7824853587115667
0.00799488166366082,0.7824853587115667
0.00799488166366082,0.7825768667642753
0.008015032594130033,0.7825768667642753
0.008015032594130033,0.7826683748169839
0.008020070326747338,0.7826683748169839
0.008020070326747338,0.7829428989751098
0.008030145791981944,0.7829428989751098
0.008030145791981944,0.7830344070278185
0.008035183524599249,0.7830344070278185
0.008035183524599249,0.7831259150805271
0.008045258989833855,0.7831259150805271
0.008045258989833855,0.7834919472913616
0.008055334455068463,0.7834919472913616
0.008055334455068463,0.7835834553440703
0.008060372187685766,0.7835834553440703
0.008060372187685766,0.7838579795021962
0.008075485385537677,0.7838579795021962
0.008075485385537677,0.7839494875549048
0.008080523118154982,0.7839494875549048
0.008080523118154982,0.7840409956076134
0.008095636316006892,0.7840409956076134
0.008095636316006892,0.7841325036603221
0.00812082497909341,0.7841325036603221
0.00812082497909341,0.7848645680819912
0.008125862711710714,0.7848645680819912
0.008125862711710714,0.7849560761346999
0.008151051374797231,0.7849560761346999
0.008151051374797231,0.7850475841874085
0.008166164572649142,0.7850475841874085
0.008166164572649142,0.7853221083455344
0.008171202305266446,0.7853221083455344
0.008171202305266446,0.785413616398243
0.00817624003788375,0.785413616398243
0.00817624003788375,0.7856881405563689
0.008201428700970268,0.7856881405563689
0.008201428700970268,0.7857796486090776
0.008206466433587571,0.7857796486090776
0.008206466433587571,0.7858711566617862
0.008216541898822179,0.7858711566617862
0.008216541898822179,0.7861456808199122
0.00823165509667409,0.7861456808199122
0.00823165509667409,0.7862371888726208
0.008236692829291393,0.7862371888726208
0.008236692829291393,0.7864202049780381
0.008241730561908696,0.7864202049780381
0.008241730561908696,0.786694729136164
0.00826188149237791,0.786694729136164
0.00826188149237791,0.7867862371888726
0.00830218335331634,0.7867862371888726
0.00830218335331634,0.7869692532942899
0.008312258818550947,0.7869692532942899
0.008312258818550947,0.7870607613469985
0.00831729655116825,0.7870607613469985
0.00831729655116825,0.7871522693997072
0.008322334283785553,0.7871522693997072
0.008322334283785553,0.7872437774524158
0.008342485214254769,0.7872437774524158
0.008342485214254769,0.7876098096632503
0.008352560679489375,0.7876098096632503
0.008352560679489375,0.787701317715959
0.00837271160995859,0.787701317715959
0.00837271160995859,0.7877928257686676
0.008382787075193196,0.7877928257686676
0.008382787075193196,0.7878843338213762
0.008392862540427804,0.7878843338213762
0.008392862540427804,0.7880673499267935
0.008402938005662412,0.7880673499267935
0.008402938005662412,0.7881588579795022
0.008413013470897018,0.7881588579795022
0.008413013470897018,0.7883418740849195
0.008423088936131626,0.7883418740849195
0.008423088936131626,0.788707906295754
0.008428126668748929,0.788707906295754
0.008428126668748929,0.7887994143484627
0.008438202133983537,0.7887994143484627
0.008438202133983537,0.78898243045388
0.008453315331835447,0.78898243045388
0.008453315331835447,0.7892569546120058
0.008463390797070055,0.7892569546120058
0.008463390797070055,0.7893484626647145
0.008473466262304661,0.7893484626647145
0.008473466262304661,0.7894399707174231
0.008488579460156572,0.7894399707174231
0.008488579460156572,0.7895314787701317
0.008493617192773877,0.7895314787701317
0.008493617192773877,0.7896229868228404
0.00849865492539118,0.7896229868228404
0.00849865492539118,0.789714494875549
0.00851376812324309,0.789714494875549
0.00851376812324309,0.7898975109809663
0.008543994518946912,0.7898975109809663
0.008543994518946912,0.7899890190336749
0.00855406998418152,0.7899890190336749
0.00855406998418152,0.7900805270863837
0.008594371845119948,0.7900805270863837
0.008594371845119948,0.7903550512445096
0.008634673706058377,0.7903550512445096
0.008634673706058377,0.7906295754026355
0.00863971143867568,0.7906295754026355
0.00863971143867568,0.7907210834553441
0.008649786903910288,0.7907210834553441
0.008649786903910288,0.7909040995607614
0.008664900101762199,0.7909040995607614
0.008664900101762199,0.79099560761347
0.00868001329961411,0.79099560761347
0.00868001329961411,0.7911786237188873
0.00869512649746602,0.7911786237188873
0.00869512649746602,0.7912701317715959
0.008715277427935235,0.7912701317715959
0.008715277427935235,0.7915446559297218
0.008730390625787145,0.7915446559297218
0.008730390625787145,0.7916361639824304
0.008745503823639056,0.7916361639824304
0.008745503823639056,0.791727672035139
0.008765654754108272,0.791727672035139
0.008765654754108272,0.7918191800878477
0.008780767951960181,0.7918191800878477
0.008780767951960181,0.7920021961932651
0.008790843417194789,0.7920021961932651
0.008790843417194789,0.7921852122986823
0.008795881149812092,0.7921852122986823
0.008795881149812092,0.7924597364568082
0.008800918882429397,0.7924597364568082
0.008800918882429397,0.7925512445095169
0.0088059566150467,0.7925512445095169
0.0088059566150467,0.7926427525622255
0.00882106981289861,0.7926427525622255
0.00882106981289861,0.7929172767203514
0.008841220743367824,0.7929172767203514
0.008841220743367824,0.79300878477306
0.00886137167383704,0.79300878477306
0.00886137167383704,0.7932833089311859
0.00887648487168895,0.7932833089311859
0.00887648487168895,0.7933748169838946
0.008891598069540861,0.7933748169838946
0.008891598069540861,0.7934663250366032
0.008896635802158165,0.7934663250366032
0.008896635802158165,0.7935578330893118
0.008901673534775468,0.7935578330893118
0.008901673534775468,0.7937408491947291
0.0089470131283312,0.7937408491947291
0.0089470131283312,0.7938323572474377
0.008957088593565808,0.7938323572474377
0.008957088593565808,0.7939238653001464
0.008967164058800416,0.7939238653001464
0.008967164058800416,0.7941068814055637
0.008977239524035022,0.7941068814055637
0.008977239524035022,0.7941983894582724
0.008982277256652326,0.7941983894582724
0.008982277256652326,0.794289897510981
0.00898731498926963,0.794289897510981
0.00898731498926963,0.7943814055636896
0.009012503652356148,0.7943814055636896
0.009012503652356148,0.7945644216691069
0.009027616850208059,0.7945644216691069
0.009027616850208059,0.7946559297218155
0.009032654582825362,0.7946559297218155
0.009032654582825362,0.7947474377745242
0.009037692315442665,0.7947474377745242
0.009037692315442665,0.7948389458272328
0.00905784324591188,0.7948389458272328
0.00905784324591188,0.7950219619326501
0.009062880978529184,0.7950219619326501
0.009062880978529184,0.7951134699853587
0.009067918711146487,0.7951134699853587
0.009067918711146487,0.7952049780380673
0.009072956443763791,0.7952049780380673
0.009072956443763791,0.795296486090776
0.009083031908998397,0.795296486090776
0.009083031908998397,0.7953879941434846
0.009098145106850308,0.7953879941434846
0.009098145106850308,0.7954795021961932
0.00911325830470222,0.7954795021961932
0.00911325830470222,0.7955710102489019
0.009118296037319524,0.7955710102489019
0.009118296037319524,0.7956625183016105
0.009123333769936827,0.7956625183016105
0.009123333769936827,0.7957540263543191
0.009133409235171435,0.7957540263543191
0.009133409235171435,0.7960285505124451
0.009138446967788738,0.7960285505124451
0.009138446967788738,0.7962115666178624
0.00914348470040604,0.7962115666178624
0.00914348470040604,0.796303074670571
0.009148522433023346,0.796303074670571
0.009148522433023346,0.7963945827232797
0.009153560165640649,0.7963945827232797
0.009153560165640649,0.7964860907759883
0.009158597898257952,0.7964860907759883
0.009158597898257952,0.7965775988286969
0.009163635630875256,0.7965775988286969
0.009163635630875256,0.7966691068814056
0.00916867336349256,0.7966691068814056
0.00916867336349256,0.7967606149341142
0.009173711096109862,0.7967606149341142
0.009173711096109862,0.7969436310395315
0.009178748828727167,0.7969436310395315
0.009178748828727167,0.7975841874084919
0.009208975224430989,0.7975841874084919
0.009208975224430989,0.7976756954612005
0.0092240884222829,0.7976756954612005
0.0092240884222829,0.7977672035139092
0.009274465748455935,0.7977672035139092
0.009274465748455935,0.7978587115666179
0.009279503481073238,0.7978587115666179
0.009279503481073238,0.7979502196193266
0.009289578946307846,0.7979502196193266
0.009289578946307846,0.7980417276720352
0.009294616678925149,0.7980417276720352
0.009294616678925149,0.7982247437774525
0.009304692144159757,0.7982247437774525
0.009304692144159757,0.7983162518301611
0.00930972987677706,0.7983162518301611
0.00930972987677706,0.7984077598828697
0.0093651449355674,0.7984077598828697
0.0093651449355674,0.7987737920937042
0.009370182668184703,0.7987737920937042
0.009370182668184703,0.7988653001464129
0.009375220400802006,0.7988653001464129
0.009375220400802006,0.7990483162518301
0.009380258133419311,0.7990483162518301
0.009380258133419311,0.7991398243045388
0.009405446796505828,0.7991398243045388
0.009405446796505828,0.7992313323572474
0.009415522261740436,0.7992313323572474
0.009415522261740436,0.799322840409956
0.009430635459592347,0.799322840409956
0.009430635459592347,0.7994143484626647
0.00943567319220965,0.7994143484626647
0.00943567319220965,0.7995058565153733
0.009475975053148079,0.7995058565153733
0.009475975053148079,0.799597364568082
0.009481012785765382,0.799597364568082
0.009481012785765382,0.7996888726207906
0.009486050518382687,0.7996888726207906
0.009486050518382687,0.799871888726208
0.00949108825099999,0.799871888726208
0.00949108825099999,0.8001464128843339
0.0095062014488519,0.8001464128843339
0.0095062014488519,0.8002379209370425
0.009526352379321115,0.8002379209370425
0.009526352379321115,0.8003294289897511
0.009541465577173025,0.8003294289897511
0.009541465577173025,0.8004209370424598
0.00954650330979033,0.8004209370424598
0.00954650330979033,0.800603953147877
0.009556578775024936,0.800603953147877
0.009556578775024936,0.8008784773060029
0.009566654240259544,0.8008784773060029
0.009566654240259544,0.8010614934114202
0.009581767438111455,0.8010614934114202
0.009581767438111455,0.8011530014641288
0.00963214476428449,0.8011530014641288
0.00963214476428449,0.8013360175695461
0.009642220229519098,0.8013360175695461
0.009642220229519098,0.8014275256222547
0.009647257962136401,0.8014275256222547
0.009647257962136401,0.8019765739385066
0.009657333427371009,0.8019765739385066
0.009657333427371009,0.8020680819912153
0.009667408892605617,0.8020680819912153
0.009667408892605617,0.8022510980966325
0.009677484357840223,0.8022510980966325
0.009677484357840223,0.8023426061493412
0.00971274848616135,0.8023426061493412
0.00971274848616135,0.8025256222547584
0.009732899416630563,0.8025256222547584
0.009732899416630563,0.8026171303074671
0.009737937149247866,0.8026171303074671
0.009737937149247866,0.8027086383601757
0.009753050347099777,0.8027086383601757
0.009753050347099777,0.802891654465593
0.009773201277568993,0.802891654465593
0.009773201277568993,0.8030746705710102
0.009793352208038206,0.8030746705710102
0.009793352208038206,0.8033491947291361
0.009803427673272814,0.8033491947291361
0.009803427673272814,0.8034407027818448
0.009808465405890117,0.8034407027818448
0.009808465405890117,0.803623718887262
0.009838691801593939,0.803623718887262
0.009838691801593939,0.8038067349926794
0.009848767266828545,0.8038067349926794
0.009848767266828545,0.803898243045388
0.009873955929915064,0.803898243045388
0.009873955929915064,0.8039897510980967
0.009878993662532367,0.8039897510980967
0.009878993662532367,0.8040812591508053
0.009884031395149671,0.8040812591508053
0.009884031395149671,0.8041727672035139
0.009889069127766974,0.8041727672035139
0.009889069127766974,0.8042642752562226
0.009914257790853493,0.8042642752562226
0.009914257790853493,0.8043557833089312
0.009929370988705404,0.8043557833089312
0.009929370988705404,0.8044472913616398
0.009934408721322707,0.8044472913616398
0.009934408721322707,0.8045387994143485
0.009944484186557315,0.8045387994143485
0.009944484186557315,0.8046303074670571
0.009999899245347653,0.8046303074670571
0.009999899245347653,0.8049963396778916
0.010004936977964958,0.8049963396778916
0.010004936977964958,0.8050878477306003
0.010015012443199564,0.8050878477306003
0.010015012443199564,0.8052708638360175
0.010030125641051475,0.8052708638360175
0.010030125641051475,0.8053623718887262
0.01003516337366878,0.8053623718887262
0.01003516337366878,0.8054538799414348
0.010040201106286083,0.8054538799414348
0.010040201106286083,0.8055453879941434
0.010055314304137994,0.8055453879941434
0.010055314304137994,0.8056368960468521
0.010080502967224512,0.8056368960468521
0.010080502967224512,0.8057284040995608
0.010085540699841815,0.8057284040995608
0.010085540699841815,0.8059114202049781
0.010090578432459118,0.8059114202049781
0.010090578432459118,0.8060944363103953
0.01013591802601485,0.8060944363103953
0.01013591802601485,0.806185944363104
0.010166144421718672,0.806185944363104
0.010166144421718672,0.8063689604685212
0.010186295352187888,0.8063689604685212
0.010186295352187888,0.8065519765739385
0.010201408550039799,0.8065519765739385
0.010201408550039799,0.8067349926793558
0.010206446282657102,0.8067349926793558
0.010206446282657102,0.806918008784773
0.010226597213126316,0.806918008784773
0.010226597213126316,0.8074670571010248
0.01023163494574362,0.8074670571010248
0.01023163494574362,0.8075585651537335
0.010261861341447442,0.8075585651537335
0.010261861341447442,0.8077415812591509
0.010266899074064745,0.8077415812591509
0.010266899074064745,0.8078330893118595
0.010271936806682048,0.8078330893118595
0.010271936806682048,0.8079245973645681
0.010282012271916656,0.8079245973645681
0.010282012271916656,0.8080161054172768
0.010297125469768567,0.8080161054172768
0.010297125469768567,0.808199121522694
0.010332389598089691,0.808199121522694
0.010332389598089691,0.8084736456808199
0.010337427330706996,0.8084736456808199
0.010337427330706996,0.8086566617862372
0.01035757826117621,0.8086566617862372
0.01035757826117621,0.8087481698389458
0.010392842389497335,0.8087481698389458
0.010392842389497335,0.8088396778916545
0.010397880122114638,0.8088396778916545
0.010397880122114638,0.8089311859443631
0.010412993319966549,0.8089311859443631
0.010412993319966549,0.8090226939970717
0.010423068785201156,0.8090226939970717
0.010423068785201156,0.8093887262079063
0.01042810651781846,0.8093887262079063
0.01042810651781846,0.8096632503660323
0.010438181983053067,0.8096632503660323
0.010438181983053067,0.8097547584187409
0.010518785704929924,0.8097547584187409
0.010518785704929924,0.8098462664714495
0.010528861170164532,0.8098462664714495
0.010528861170164532,0.8099377745241582
0.010564125298485657,0.8099377745241582
0.010564125298485657,0.8100292825768668
0.01060946489204139,0.8100292825768668
0.01060946489204139,0.8101207906295754
0.010619540357275997,0.8101207906295754
0.010619540357275997,0.8103038067349927
0.010629615822510605,0.8103038067349927
0.010629615822510605,0.8103953147877013
0.010634653555127908,0.8103953147877013
0.010634653555127908,0.81048682284041
0.010654804485597122,0.81048682284041
0.010654804485597122,0.8105783308931186
0.010669917683449033,0.8105783308931186
0.010669917683449033,0.8106698389458272
0.01067999314868364,0.8106698389458272
0.01067999314868364,0.8110358711566618
0.010690068613918248,0.8110358711566618
0.010690068613918248,0.8111273792093704
0.010700144079152854,0.8111273792093704
0.010700144079152854,0.811218887262079
0.010750521405325892,0.811218887262079
0.010750521405325892,0.8114019033674963
0.010770672335795105,0.8114019033674963
0.010770672335795105,0.8114934114202049
0.010785785533647016,0.8114934114202049
0.010785785533647016,0.8115849194729137
0.010795860998881624,0.8115849194729137
0.010795860998881624,0.8116764275256223
0.01080593646411623,0.8116764275256223
0.01080593646411623,0.8117679355783309
0.010831125127202749,0.8117679355783309
0.010831125127202749,0.8118594436310396
0.010841200592437357,0.8118594436310396
0.010841200592437357,0.8120424597364568
0.010856313790289267,0.8120424597364568
0.010856313790289267,0.8121339677891655
0.010871426988141178,0.8121339677891655
0.010871426988141178,0.8123169838945827
0.01093187977954882,0.8123169838945827
0.01093187977954882,0.8124084919472914
0.010936917512166125,0.8124084919472914
0.010936917512166125,0.8125
0.010941955244783428,0.8125
0.010941955244783428,0.8125915080527086
0.010952030710018035,0.8125915080527086
0.010952030710018035,0.8126830161054173
0.010957068442635338,0.8126830161054173
0.010957068442635338,0.8127745241581259
0.01098729483833916,0.8127745241581259
0.01098729483833916,0.8129575402635432
0.011012483501425679,0.8129575402635432
0.011012483501425679,0.8131405563689604
0.011017521234042982,0.8131405563689604
0.011017521234042982,0.8133235724743777
0.01102759669927759,0.8133235724743777
0.01102759669927759,0.8134150805270863
0.0110427098971295,0.8134150805270863
0.0110427098971295,0.8135065885797951
0.011047747629746803,0.8135065885797951
0.011047747629746803,0.8135980966325037
0.011062860827598714,0.8135980966325037
0.011062860827598714,0.8136896046852123
0.011083011758067928,0.8136896046852123
0.011083011758067928,0.813781112737921
0.011098124955919839,0.813781112737921
0.011098124955919839,0.8142386530014641
0.011138426816858268,0.8142386530014641
0.011138426816858268,0.8143301610541728
0.011173690945179393,0.8143301610541728
0.011173690945179393,0.8144216691068814
0.011188804143031304,0.8144216691068814
0.011188804143031304,0.8146046852122987
0.011198879608265912,0.8146046852122987
0.011198879608265912,0.8147877013177159
0.01120895507350052,0.8147877013177159
0.01120895507350052,0.8148792093704246
0.011229106003969733,0.8148792093704246
0.011229106003969733,0.8151537335285505
0.011234143736587036,0.8151537335285505
0.011234143736587036,0.8152452415812591
0.011239181469204341,0.8152452415812591
0.011239181469204341,0.8157027818448024
0.011244219201821644,0.8157027818448024
0.011244219201821644,0.815794289897511
0.011269407864908163,0.815794289897511
0.011269407864908163,0.8158857979502196
0.011274445597525466,0.8158857979502196
0.011274445597525466,0.8159773060029283
0.011314747458463895,0.8159773060029283
0.011314747458463895,0.8160688140556369
0.011355049319402323,0.8160688140556369
0.011355049319402323,0.8161603221083455
0.011375200249871539,0.8161603221083455
0.011375200249871539,0.8162518301610542
0.01139031344772345,0.8162518301610542
0.01139031344772345,0.8163433382137628
0.011395351180340752,0.8163433382137628
0.011395351180340752,0.8165263543191801
0.011400388912958056,0.8165263543191801
0.011400388912958056,0.8167093704245973
0.011420539843427271,0.8167093704245973
0.011420539843427271,0.8169838945827232
0.01143565304127918,0.8169838945827232
0.01143565304127918,0.8170754026354319
0.011440690773896485,0.8170754026354319
0.011440690773896485,0.8171669106881405
0.011460841704365699,0.8171669106881405
0.011460841704365699,0.8172584187408491
0.011465879436983002,0.8172584187408491
0.011465879436983002,0.8174414348462665
0.011480992634834913,0.8174414348462665
0.011480992634834913,0.8175329428989752
0.011506181297921431,0.8175329428989752
0.011506181297921431,0.8176244509516838
0.011511219030538734,0.8176244509516838
0.011511219030538734,0.8178989751098097
0.011526332228390645,0.8178989751098097
0.011526332228390645,0.818081991215227
0.01153136996100795,0.818081991215227
0.01153136996100795,0.8181734992679356
0.011536407693625253,0.8181734992679356
0.011536407693625253,0.8182650073206442
0.011556558624094467,0.8182650073206442
0.011556558624094467,0.8183565153733529
0.011581747287180985,0.8183565153733529
0.011581747287180985,0.8184480234260615
0.0116018982176502,0.8184480234260615
0.0116018982176502,0.8186310395314788
0.011611973682884807,0.8186310395314788
0.011611973682884807,0.8187225475841874
0.01161701141550211,0.8187225475841874
0.01161701141550211,0.8189055636896047
0.011622049148119415,0.8189055636896047
0.011622049148119415,0.8190885797950219
0.011627086880736718,0.8190885797950219
0.011627086880736718,0.8191800878477306
0.011637162345971326,0.8191800878477306
0.011637162345971326,0.8192715959004392
0.01165731327644054,0.8192715959004392
0.01165731327644054,0.8193631039531479
0.011662351009057843,0.8193631039531479
0.011662351009057843,0.8194546120058566
0.01167242647429245,0.8194546120058566
0.01167242647429245,0.8195461200585652
0.011692577404761664,0.8195461200585652
0.011692577404761664,0.8196376281112738
0.01172784153308279,0.8196376281112738
0.01172784153308279,0.8197291361639825
0.011732879265700094,0.8197291361639825
0.011732879265700094,0.8199121522693997
0.011742954730934702,0.8199121522693997
0.011742954730934702,0.8200036603221084
0.011753030196169308,0.8200036603221084
0.011753030196169308,0.820095168374817
0.011788294324490434,0.820095168374817
0.011788294324490434,0.8201866764275256
0.011793332057107737,0.8201866764275256
0.011793332057107737,0.8203696925329429
0.011808445254959648,0.8203696925329429
0.011808445254959648,0.8205527086383602
0.011813482987576951,0.8205527086383602
0.011813482987576951,0.8206442166910688
0.011818520720194256,0.8206442166910688
0.011818520720194256,0.8207357247437774
0.011843709383280773,0.8207357247437774
0.011843709383280773,0.8210102489019033
0.011848747115898077,0.8210102489019033
0.011848747115898077,0.821101756954612
0.01185378484851538,0.821101756954612
0.01185378484851538,0.8211932650073206
0.011863860313749988,0.8211932650073206
0.011863860313749988,0.8212847730600292
0.011884011244219202,0.8212847730600292
0.011884011244219202,0.821376281112738
0.011899124442071113,0.821376281112738
0.011899124442071113,0.8214677891654466
0.011919275372540327,0.8214677891654466
0.011919275372540327,0.8216508052708639
0.011939426303009542,0.8216508052708639
0.011939426303009542,0.8217423133235725
0.011954539500861453,0.8217423133235725
0.011954539500861453,0.8218338213762811
0.011974690431330667,0.8218338213762811
0.011974690431330667,0.8220168374816984
0.01197972816394797,0.8220168374816984
0.01197972816394797,0.822108345534407
0.012025067757503703,0.822108345534407
0.012025067757503703,0.8221998535871157
0.012085520548911346,0.8221998535871157
0.012085520548911346,0.8225658857979502
0.012090558281528649,0.8225658857979502
0.012090558281528649,0.8226573938506588
0.012095596014145954,0.8226573938506588
0.012095596014145954,0.8228404099560761
0.012115746944615167,0.8228404099560761
0.012115746944615167,0.8230234260614934
0.012135897875084381,0.8230234260614934
0.012135897875084381,0.823114934114202
0.012151011072936292,0.823114934114202
0.012151011072936292,0.823389458272328
0.0121610865381709,0.823389458272328
0.0121610865381709,0.8235724743777453
0.012166124270788203,0.8235724743777453
0.012166124270788203,0.8236639824304539
0.012191312933874722,0.8236639824304539
0.012191312933874722,0.8237554904831625
0.012196350666492025,0.8237554904831625
0.012196350666492025,0.8242130307467057
0.01220138839910933,0.8242130307467057
0.01220138839910933,0.8243045387994143
0.012226577062195846,0.8243045387994143
0.012226577062195846,0.824396046852123
0.012251765725282365,0.824396046852123
0.012251765725282365,0.8244875549048316
0.012256803457899668,0.8244875549048316
0.012256803457899668,0.8246705710102489
0.012261841190516973,0.8246705710102489
0.012261841190516973,0.8247620790629575
0.012266878923134276,0.8247620790629575
0.012266878923134276,0.8248535871156661
0.012281992120986187,0.8248535871156661
0.012281992120986187,0.8249450951683748
0.01228702985360349,0.8249450951683748
0.01228702985360349,0.8250366032210834
0.012292067586220794,0.8250366032210834
0.012292067586220794,0.825128111273792
0.012317256249307311,0.825128111273792
0.012317256249307311,0.8252196193265008
0.012347482645011133,0.8252196193265008
0.012347482645011133,0.8253111273792094
0.012367633575480349,0.8253111273792094
0.012367633575480349,0.825402635431918
0.012377709040714955,0.825402635431918
0.012377709040714955,0.8254941434846267
0.012387784505949562,0.8254941434846267
0.012387784505949562,0.8255856515373353
0.012392822238566865,0.8255856515373353
0.012392822238566865,0.825677159590044
0.012402897703801473,0.825677159590044
0.012402897703801473,0.8257686676427526
0.012428086366887992,0.8257686676427526
0.012428086366887992,0.8259516837481699
0.012433124099505295,0.8259516837481699
0.012433124099505295,0.8260431918008785
0.012458312762591814,0.8260431918008785
0.012458312762591814,0.8261346998535871
0.012473425960443724,0.8261346998535871
0.012473425960443724,0.8262262079062958
0.012478463693061027,0.8262262079062958
0.012478463693061027,0.8263177159590044
0.012493576890912938,0.8263177159590044
0.012493576890912938,0.826409224011713
0.012513727821382152,0.826409224011713
0.012513727821382152,0.8265007320644217
0.01253891648446867,0.8265007320644217
0.01253891648446867,0.8265922401171303
0.012584256078024403,0.8265922401171303
0.012584256078024403,0.8266837481698389
0.012589293810641706,0.8266837481698389
0.012589293810641706,0.8267752562225475
0.012604407008493617,0.8267752562225475
0.012604407008493617,0.8268667642752562
0.012614482473728225,0.8268667642752562
0.012614482473728225,0.8269582723279648
0.012624557938962831,0.8269582723279648
0.012624557938962831,0.8270497803806734
0.01264974660204935,0.8270497803806734
0.01264974660204935,0.8271412884333821
0.012654784334666653,0.8271412884333821
0.012654784334666653,0.8275073206442167
0.012685010730370474,0.8275073206442167
0.012685010730370474,0.827690336749634
0.012700123928222385,0.827690336749634
0.012700123928222385,0.8277818448023426
0.012725312591308904,0.8277818448023426
0.012725312591308904,0.8278733528550513
0.012740425789160814,0.8278733528550513
0.012740425789160814,0.8279648609077599
0.012770652184864636,0.8279648609077599
0.012770652184864636,0.8281478770131772
0.012785765382716547,0.8281478770131772
0.012785765382716547,0.8282393850658858
0.012795840847951155,0.8282393850658858
0.012795840847951155,0.8283308931185944
0.01283110497627228,0.8283308931185944
0.01283110497627228,0.8284224011713031
0.012891557767679923,0.8284224011713031
0.012891557767679923,0.8285139092240117
0.01290163323291453,0.8285139092240117
0.01290163323291453,0.8286054172767203
0.012906670965531834,0.8286054172767203
0.012906670965531834,0.828696925329429
0.012957048291704869,0.828696925329429
0.012957048291704869,0.8287884333821376
0.012962086024322174,0.8287884333821376
0.012962086024322174,0.8288799414348462
0.012997350152643299,0.8288799414348462
0.012997350152643299,0.8289714494875549
0.013017501083112512,0.8289714494875549
0.013017501083112512,0.8290629575402635
0.013022538815729815,0.8290629575402635
0.013022538815729815,0.8291544655929722
0.013052765211433637,0.8291544655929722
0.013052765211433637,0.8292459736456809
0.013082991607137459,0.8292459736456809
0.013082991607137459,0.8294289897510981
0.01311321800284128,0.8294289897510981
0.01311321800284128,0.8295204978038068
0.013128331200693191,0.8295204978038068
0.013128331200693191,0.8296120058565154
0.013148482131162407,0.8296120058565154
0.013148482131162407,0.8298865300146413
0.01315351986377971,0.8298865300146413
0.01315351986377971,0.8299780380673499
0.013158557596397013,0.8299780380673499
0.013158557596397013,0.8300695461200586
0.013163595329014318,0.8300695461200586
0.013163595329014318,0.8301610541727672
0.013173670794248924,0.8301610541727672
0.013173670794248924,0.8302525622254758
0.013219010387804656,0.8302525622254758
0.013219010387804656,0.8303440702781845
0.013229085853039264,0.8303440702781845
0.013229085853039264,0.8304355783308931
0.013234123585656567,0.8304355783308931
0.013234123585656567,0.8306185944363104
0.013274425446594997,0.8306185944363104
0.013274425446594997,0.8308016105417276
0.0132794631792123,0.8308016105417276
0.0132794631792123,0.8308931185944363
0.01329457637706421,0.8308931185944363
0.01329457637706421,0.8310761346998536
0.013339915970619943,0.8310761346998536
0.013339915970619943,0.8311676427525623
0.013360066901089158,0.8311676427525623
0.013360066901089158,0.8312591508052709
0.01337518009894107,0.8312591508052709
0.01337518009894107,0.8313506588579795
0.013385255564175675,0.8313506588579795
0.013385255564175675,0.8314421669106882
0.01339029329679298,0.8314421669106882
0.01339029329679298,0.8320827232796486
0.013395331029410283,0.8320827232796486
0.013395331029410283,0.8322657393850659
0.013430595157731408,0.8322657393850659
0.013430595157731408,0.8324487554904831
0.013455783820817926,0.8324487554904831
0.013455783820817926,0.8325402635431918
0.01346082155343523,0.8325402635431918
0.01346082155343523,0.8326317715959004
0.01347593475128714,0.8326317715959004
0.01347593475128714,0.832723279648609
0.013480972483904445,0.832723279648609
0.013480972483904445,0.8328147877013177
0.013506161146990962,0.8328147877013177
0.013506161146990962,0.8329062957540263
0.013526312077460178,0.8329062957540263
0.013526312077460178,0.8329978038067349
0.013541425275312088,0.8329978038067349
0.013541425275312088,0.8330893118594437
0.013546463007929391,0.8330893118594437
0.013546463007929391,0.833272327964861
0.013561576205781302,0.833272327964861
0.013561576205781302,0.8334553440702782
0.013622028997188946,0.8334553440702782
0.013622028997188946,0.8335468521229868
0.013627066729806249,0.8335468521229868
0.013627066729806249,0.8337298682284041
0.013637142195040856,0.8337298682284041
0.013637142195040856,0.8338213762811127
0.013647217660275462,0.8338213762811127
0.013647217660275462,0.83400439238653
0.013672406323361981,0.83400439238653
0.013672406323361981,0.8340959004392386
0.013692557253831195,0.8340959004392386
0.013692557253831195,0.8341874084919473
0.013702632719065803,0.8341874084919473
0.013702632719065803,0.8342789165446559
0.013707670451683106,0.8342789165446559
0.013707670451683106,0.8344619326500732
0.013717745916917714,0.8344619326500732
0.013717745916917714,0.8345534407027818
0.013763085510473446,0.8345534407027818
0.013763085510473446,0.8347364568081991
0.013833613767115697,0.8347364568081991
0.013833613767115697,0.8348279648609077
0.013838651499733,0.8348279648609077
0.013838651499733,0.8349194729136163
0.013848726964967608,0.8349194729136163
0.013848726964967608,0.8350109809663251
0.013853764697584911,0.8350109809663251
0.013853764697584911,0.8351939970717424
0.013934368419461768,0.8351939970717424
0.013934368419461768,0.8353770131771596
0.01400489667610402,0.8353770131771596
0.01400489667610402,0.8354685212298683
0.014025047606573233,0.8354685212298683
0.014025047606573233,0.8355600292825769
0.014035123071807841,0.8355600292825769
0.014035123071807841,0.8356515373352855
0.014040160804425144,0.8356515373352855
0.014040160804425144,0.8357430453879942
0.014055274002277055,0.8357430453879942
0.014055274002277055,0.8358345534407028
0.014065349467511663,0.8358345534407028
0.014065349467511663,0.8359260614934114
0.014070387200128966,0.8359260614934114
0.014070387200128966,0.83601756954612
0.01407542493274627,0.83601756954612
0.01407542493274627,0.8361090775988287
0.014095575863215484,0.8361090775988287
0.014095575863215484,0.8362005856515373
0.014115726793684698,0.8362005856515373
0.014115726793684698,0.8364751098096632
0.014120764526302001,0.8364751098096632
0.014120764526302001,0.8365666178623719
0.014135877724153912,0.8365666178623719
0.014135877724153912,0.8366581259150805
0.01416106638724043,0.8366581259150805
0.01416106638724043,0.8367496339677891
0.014176179585092341,0.8367496339677891
0.014176179585092341,0.8368411420204978
0.014181217317709644,0.8368411420204978
0.014181217317709644,0.8369326500732065
0.014191292782944252,0.8369326500732065
0.014191292782944252,0.8370241581259151
0.01420136824817886,0.8370241581259151
0.01420136824817886,0.8371156661786238
0.014246707841734593,0.8371156661786238
0.014246707841734593,0.8373901903367497
0.014266858772203806,0.8373901903367497
0.014266858772203806,0.8374816983894583
0.014297085167907628,0.8374816983894583
0.014297085167907628,0.8375732064421669
0.014307160633142236,0.8375732064421669
0.014307160633142236,0.8377562225475842
0.01432731156361145,0.8377562225475842
0.01432731156361145,0.8378477306002928
0.01434242476146336,0.8378477306002928
0.01434242476146336,0.8379392386530015
0.014362575691932574,0.8379392386530015
0.014362575691932574,0.8380307467057101
0.014387764355019093,0.8380307467057101
0.014387764355019093,0.8382137628111274
0.014407915285488307,0.8382137628111274
0.014407915285488307,0.8383967789165446
0.014412953018105612,0.8383967789165446
0.014412953018105612,0.8384882869692533
0.014417990750722915,0.8384882869692533
0.014417990750722915,0.8385797950219619
0.014443179413809433,0.8385797950219619
0.014443179413809433,0.8388543191800878
0.014458292611661344,0.8388543191800878
0.014458292611661344,0.8389458272327965
0.014478443542130558,0.8389458272327965
0.014478443542130558,0.8390373352855052
0.014483481274747861,0.8390373352855052
0.014483481274747861,0.8391288433382138
0.014488519007365166,0.8391288433382138
0.014488519007365166,0.8392203513909224
0.014498594472599772,0.8392203513909224
0.014498594472599772,0.8393118594436311
0.014518745403068987,0.8393118594436311
0.014518745403068987,0.8394033674963397
0.014528820868303594,0.8394033674963397
0.014528820868303594,0.8394948755490483
0.014533858600920898,0.8394948755490483
0.014533858600920898,0.8398609077598829
0.014554009531390112,0.8398609077598829
0.014554009531390112,0.8400439238653001
0.01456408499662472,0.8400439238653001
0.01456408499662472,0.8401354319180088
0.014569122729242023,0.8401354319180088
0.014569122729242023,0.8402269399707174
0.014599349124945845,0.8402269399707174
0.014599349124945845,0.840318448023426
0.014629575520649666,0.840318448023426
0.014629575520649666,0.8404099560761347
0.014644688718501577,0.8404099560761347
0.014644688718501577,0.8405014641288433
0.014659801916353488,0.8405014641288433
0.014659801916353488,0.8405929721815519
0.01469002831205731,0.8405929721815519
0.01469002831205731,0.8406844802342606
0.014710179242526523,0.8406844802342606
0.014710179242526523,0.8407759882869692
0.014715216975143827,0.8407759882869692
0.014715216975143827,0.8409590043923866
0.014750481103464953,0.8409590043923866
0.014750481103464953,0.8410505124450952
0.014755518836082256,0.8410505124450952
0.014755518836082256,0.8411420204978038
0.014765594301316864,0.8411420204978038
0.014765594301316864,0.8412335285505125
0.014780707499168775,0.8412335285505125
0.014780707499168775,0.8413250366032211
0.014785745231786078,0.8413250366032211
0.014785745231786078,0.841599560761347
0.014810933894872596,0.841599560761347
0.014810933894872596,0.8418740849194729
0.014821009360107202,0.8418740849194729
0.014821009360107202,0.8419655929721815
0.014826047092724507,0.8419655929721815
0.014826047092724507,0.8421486090775988
0.014846198023193721,0.8421486090775988
0.014846198023193721,0.8424231332357247
0.014866348953662935,0.8424231332357247
0.014866348953662935,0.8425146412884333
0.014906650814601364,0.8425146412884333
0.014906650814601364,0.8427891654465594
0.014911688547218667,0.8427891654465594
0.014911688547218667,0.842880673499268
0.014916726279835972,0.842880673499268
0.014916726279835972,0.8429721815519766
0.014926801745070578,0.8429721815519766
0.014926801745070578,0.8430636896046853
0.014982216803860918,0.8430636896046853
0.014982216803860918,0.8431551976573939
0.014987254536478221,0.8431551976573939
0.014987254536478221,0.8432467057101025
0.015002367734330132,0.8432467057101025
0.015002367734330132,0.8433382137628112
0.01501244319956474,0.8433382137628112
0.01501244319956474,0.8437957540263543
0.015027556397416651,0.8437957540263543
0.015027556397416651,0.843887262079063
0.015047707327885865,0.843887262079063
0.015047707327885865,0.8441617862371888
0.015072895990972383,0.8441617862371888
0.015072895990972383,0.8442532942898975
0.015163575178083848,0.8442532942898975
0.015163575178083848,0.8443448023426061
0.015168612910701151,0.8443448023426061
0.015168612910701151,0.8445278184480234
0.015188763841170365,0.8445278184480234
0.015188763841170365,0.844619326500732
0.01520891477163958,0.844619326500732
0.01520891477163958,0.8447108345534406
0.015213952504256884,0.8447108345534406
0.015213952504256884,0.844893850658858
0.015274405295664527,0.844893850658858
0.015274405295664527,0.8449853587115667
0.01527944302828183,0.8449853587115667
0.01527944302828183,0.8450768667642753
0.015289518493516438,0.8450768667642753
0.015289518493516438,0.8451683748169839
0.015324782621837563,0.8451683748169839
0.015324782621837563,0.8452598828696926
0.015344933552306778,0.8452598828696926
0.015344933552306778,0.8453513909224012
0.015365084482775992,0.8453513909224012
0.015365084482775992,0.8454428989751098
0.015385235413245206,0.8454428989751098
0.015385235413245206,0.8455344070278185
0.015435612739418243,0.8455344070278185
0.015435612739418243,0.8457174231332357
0.01544568820465285,0.8457174231332357
0.01544568820465285,0.8458089311859444
0.015470876867739368,0.8458089311859444
0.015470876867739368,0.8460834553440703
0.015475914600356671,0.8460834553440703
0.015475914600356671,0.8461749633967789
0.01550110326344319,0.8461749633967789
0.01550110326344319,0.8463579795021962
0.015511178728677797,0.8463579795021962
0.015511178728677797,0.8464494875549048
0.0155162164612951,0.8464494875549048
0.0155162164612951,0.8465409956076134
0.015536367391764314,0.8465409956076134
0.015536367391764314,0.8466325036603221
0.015546442856998922,0.8466325036603221
0.015546442856998922,0.8467240117130308
0.015566593787468136,0.8467240117130308
0.015566593787468136,0.8468155197657394
0.015576669252702744,0.8468155197657394
0.015576669252702744,0.8469070278184481
0.015581706985320047,0.8469070278184481
0.015581706985320047,0.8469985358711567
0.015611933381023868,0.8469985358711567
0.015611933381023868,0.8470900439238653
0.015692537102900726,0.8470900439238653
0.015692537102900726,0.847181551976574
0.015702612568135335,0.847181551976574
0.015702612568135335,0.8472730600292826
0.015707650300752638,0.8472730600292826
0.015707650300752638,0.8473645680819912
0.01572780123122185,0.8473645680819912
0.01572780123122185,0.8474560761346999
0.015732838963839157,0.8474560761346999
0.015732838963839157,0.8475475841874085
0.015747952161691066,0.8475475841874085
0.015747952161691066,0.8476390922401171
0.01575298989430837,0.8476390922401171
0.01575298989430837,0.8477306002928258
0.01576306535954298,0.8477306002928258
0.01576306535954298,0.8478221083455344
0.015778178557394888,0.8478221083455344
0.015778178557394888,0.8480966325036603
0.015798329487864103,0.8480966325036603
0.015798329487864103,0.8482796486090776
0.015803367220481406,0.8482796486090776
0.015803367220481406,0.8483711566617862
0.01580840495309871,0.8483711566617862
0.01580840495309871,0.8484626647144948
0.015828555883567925,0.8484626647144948
0.015828555883567925,0.8485541727672035
0.015899084140210174,0.8485541727672035
0.015899084140210174,0.8487371888726208
0.0159343482685313,0.8487371888726208
0.0159343482685313,0.8488286969253295
0.015944423733765905,0.8488286969253295
0.015944423733765905,0.8489202049780381
0.016004876525173548,0.8489202049780381
0.016004876525173548,0.8490117130307467
0.016025027455642764,0.8490117130307467
0.016025027455642764,0.8491032210834554
0.0160754047818158,0.8491032210834554
0.0160754047818158,0.8492862371888726
0.01609051797966771,0.8492862371888726
0.01609051797966771,0.8494692532942899
0.016105631177519623,0.8494692532942899
0.016105631177519623,0.8495607613469985
0.016110668910136926,0.8495607613469985
0.016110668910136926,0.8496522693997072
0.016135857573223444,0.8496522693997072
0.016135857573223444,0.8497437774524158
0.016150970771075353,0.8497437774524158
0.016150970771075353,0.8498352855051244
0.016166083968927266,0.8498352855051244
0.016166083968927266,0.8500183016105417
0.016181197166779175,0.8500183016105417
0.016181197166779175,0.8501098096632503
0.0162164612951003,0.8501098096632503
0.0162164612951003,0.850201317715959
0.01627187635389064,0.850201317715959
0.01627187635389064,0.8502928257686676
0.01632729141268098,0.8502928257686676
0.01632729141268098,0.8503843338213762
0.01642300833240975,0.8503843338213762
0.01642300833240975,0.8504758418740849
0.01643812153026166,0.8504758418740849
0.01643812153026166,0.8505673499267935
0.01645323472811357,0.8505673499267935
0.01645323472811357,0.8506588579795022
0.016468347925965483,0.8506588579795022
0.016468347925965483,0.8507503660322109
0.01647842339120009,0.8507503660322109
0.01647842339120009,0.8508418740849195
