fpr,tpr
0.0,0.0
0.0,0.00018301610541727673
0.0,0.0009150805270863836
0.0,0.0010980966325036604
0.0,0.012719619326500732
5.037732617303604e-06,0.012719619326500732
5.037732617303604e-06,0.03495607613469985
5.037732617303604e-06,0.03513909224011713
5.037732617303604e-06,0.04026354319180088
5.037732617303604e-06,0.04044655929721815
5.037732617303604e-06,0.04987188872620791
5.037732617303604e-06,0.05005490483162518
5.037732617303604e-06,0.08180819912152269
5.037732617303604e-06,0.08199121522693997
5.037732617303604e-06,0.08217423133235725
1.0075465234607208e-05,0.08217423133235725
1.0075465234607208e-05,0.116398243045388
1.0075465234607208e-05,0.11658125915080528
1.0075465234607208e-05,0.11905197657393851
1.0075465234607208e-05,0.11923499267935578
1.0075465234607208e-05,0.12234626647144949
1.0075465234607208e-05,0.12252928257686677
1.0075465234607208e-05,0.1380856515373353
1.5113197851910811e-05,0.1380856515373353
1.5113197851910811e-05,0.1431185944363104
2.0150930469214415e-05,0.1431185944363104
2.0150930469214415e-05,0.16370790629575402
2.0150930469214415e-05,0.1638909224011713
2.0150930469214415e-05,0.1927159590043924
2.0150930469214415e-05,0.19289897510980966
2.0150930469214415e-05,0.20598462664714495
2.0150930469214415e-05,0.20616764275256222
2.0150930469214415e-05,0.25054904831625185
2.518866308651802e-05,0.25054904831625185
2.518866308651802e-05,0.2739751098096633
3.0226395703821623e-05,0.2739751098096633
3.0226395703821623e-05,0.2834919472913616
3.526412832112523e-05,0.2834919472913616
3.526412832112523e-05,0.2890739385065886
4.030186093842883e-05,0.2890739385065886
4.030186093842883e-05,0.29685212298682284
4.030186093842883e-05,0.2970351390922401
4.030186093842883e-05,0.3115849194729136
4.533959355573244e-05,0.3115849194729136
4.533959355573244e-05,0.3196376281112738
5.037732617303604e-05,0.3196376281112738
5.037732617303604e-05,0.32247437774524157
5.5415058790339646e-05,0.32247437774524157
5.5415058790339646e-05,0.3257686676427526
6.0452791407643246e-05,0.3257686676427526
6.0452791407643246e-05,0.3292459736456808
6.549052402494685e-05,0.3292459736456808
6.549052402494685e-05,0.34288067349926793
7.052825664225046e-05,0.34288067349926793
7.052825664225046e-05,0.3519399707174231
7.556598925955406e-05,0.3519399707174231
7.556598925955406e-05,0.3537701317715959
8.060372187685766e-05,0.3537701317715959
8.060372187685766e-05,0.35770497803806733
8.564145449416126e-05,0.35770497803806733
8.564145449416126e-05,0.3632869692532943
8.564145449416126e-05,0.36346998535871156
8.564145449416126e-05,0.3636530014641288
9.067918711146488e-05,0.3636530014641288
9.067918711146488e-05,0.3658491947291362
9.571691972876848e-05,0.3658491947291362
9.571691972876848e-05,0.3773792093704246
0.00010075465234607208,0.3773792093704246
0.00010075465234607208,0.37774524158125916
0.00010579238496337569,0.37774524158125916
0.00010579238496337569,0.3783857979502196
0.00011083011758067929,0.3783857979502196
0.00011083011758067929,0.37893484626647145
0.00011586785019798289,0.37893484626647145
0.00011586785019798289,0.3840592972181552
0.00012090558281528649,0.3840592972181552
0.00012090558281528649,0.3885431918008785
0.0001259433154325901,0.3885431918008785
0.0001259433154325901,0.3886346998535871
0.0001309810480498937,0.3886346998535871
0.0001309810480498937,0.388909224011713
0.00013601878066719732,0.388909224011713
0.00013601878066719732,0.3923865300146413
0.00014105651328450092,0.3923865300146413
0.00014105651328450092,0.39412518301610544
0.00014609424590180452,0.39412518301610544
0.00014609424590180452,0.39705344070278187
0.00015113197851910812,0.39705344070278187
0.00015113197851910812,0.3981515373352855
0.00015616971113641172,0.3981515373352855
0.00015616971113641172,0.3990666178623719
0.00016120744375371532,0.3990666178623719
0.00016120744375371532,0.40043923865300146
0.00016624517637101892,0.40043923865300146
0.00016624517637101892,0.40107979502196195
0.00017128290898832252,0.40107979502196195
0.00017128290898832252,0.4015373352855051
0.00017632064160562615,0.4015373352855051
0.00017632064160562615,0.4059297218155198
0.00018135837422292975,0.4059297218155198
0.00018135837422292975,0.4062957540263543
0.00018639610684023335,0.4062957540263543
0.00018639610684023335,0.41645314787701315
0.00019143383945753695,0.41645314787701315
0.00019143383945753695,0.41810029282576866
0.00019647157207484055,0.41810029282576866
0.00019647157207484055,0.4188323572474378
0.00020150930469214415,0.4188323572474378
0.00020150930469214415,0.41901537335285505
0.00020654703730944775,0.41901537335285505
0.00020654703730944775,0.42020497803806733
0.00021158476992675138,0.42020497803806733
0.00021158476992675138,0.42313323572474376
0.00021662250254405498,0.42313323572474376
0.00021662250254405498,0.42331625183016103
0.00022166023516135858,0.42331625183016103
0.00022166023516135858,0.4238653001464129
0.00022669796777866218,0.4238653001464129
0.00022669796777866218,0.42780014641288433
0.00023173570039596578,0.42780014641288433
0.00023173570039596578,0.4343887262079063
0.00023677343301326938,0.4343887262079063
0.00023677343301326938,0.43667642752562225
0.00024181116563057298,0.43667642752562225
0.00024181116563057298,0.44015373352855053
0.0002468488982478766,0.44015373352855053
0.0002468488982478766,0.444088579795022
0.0002518866308651802,0.444088579795022
0.0002518866308651802,0.4444546120058565
0.0002569243634824838,0.4444546120058565
0.0002569243634824838,0.4470168374816984
0.0002619620960997874,0.4470168374816984
0.0002619620960997874,0.4472913616398243
0.000266999828717091,0.4472913616398243
0.000266999828717091,0.45049414348462663
0.00027203756133439464,0.45049414348462663
0.00027203756133439464,0.452690336749634
0.0002770752939516982,0.452690336749634
0.0002770752939516982,0.4530563689604685
0.00028211302656900184,0.4530563689604685
0.00028211302656900184,0.45433748169838944
0.0002871507591863054,0.45433748169838944
0.0002871507591863054,0.45699121522694
0.00029218849180360904,0.45699121522694
0.00029218849180360904,0.4570827232796486
0.0002972262244209126,0.4570827232796486
0.0002972262244209126,0.4578147877013177
0.0003073016896555198,0.4578147877013177
0.0003073016896555198,0.45937042459736455
0.00031233942227282344,0.45937042459736455
0.00031233942227282344,0.4594619326500732
0.00031737715489012707,0.4594619326500732
0.00031737715489012707,0.4605600292825769
0.00032241488750743065,0.4605600292825769
0.00032241488750743065,0.46531844802342603
0.00032745262012473427,0.46531844802342603
0.00032745262012473427,0.4658674963396779
0.00033249035274203785,0.4658674963396779
0.00033249035274203785,0.4662335285505124
0.0003375280853593415,0.4662335285505124
0.0003375280853593415,0.46760614934114203
0.00034256581797664505,0.46760614934114203
0.00034256581797664505,0.4677891654465593
0.0003476035505939487,0.4677891654465593
0.0003476035505939487,0.47620790629575405
0.0003526412832112523,0.47620790629575405
0.0003526412832112523,0.4796852122986823
0.0003576790158285559,0.4796852122986823
0.0003576790158285559,0.4799597364568082
0.0003627167484458595,0.4799597364568082
0.0003627167484458595,0.4806918008784773
0.0003677544810631631,0.4806918008784773
0.0003677544810631631,0.48096632503660325
0.0003727922136804667,0.48096632503660325
0.0003727922136804667,0.483803074670571
0.0003778299462977703,0.483803074670571
0.0003778299462977703,0.4847181551976574
0.0003828676789150739,0.4847181551976574
0.0003828676789150739,0.48554172767203513
0.00038790541153237753,0.48554172767203513
0.00038790541153237753,0.4867313323572474
0.0003929431441496811,0.4867313323572474
0.0003929431441496811,0.48718887262079064
0.0004030186093842883,0.48718887262079064
0.0004030186093842883,0.4873718887262079
0.00040805634200159193,0.4873718887262079
0.00040805634200159193,0.4892935578330893
0.0004130940746188955,0.4892935578330893
0.0004130940746188955,0.4921303074670571
0.00041813180723619913,0.4921303074670571
0.00041813180723619913,0.4927708638360176
0.00042316953985350276,0.4927708638360176
0.00042316953985350276,0.49322840409956076
0.00042316953985350276,0.493411420204978
0.00042316953985350276,0.49487554904831627
0.00042820727247080634,0.49487554904831627
0.00042820727247080634,0.49515007320644217
0.00043324500508810996,0.49515007320644217
0.00043324500508810996,0.5010980966325037
0.00043828273770541354,0.5010980966325037
0.00043828273770541354,0.501281112737921
0.00044332047032271716,0.501281112737921
0.00044332047032271716,0.5013726207906296
0.00044835820294002074,0.5013726207906296
0.00044835820294002074,0.5024707174231332
0.00045843366817462794,0.5024707174231332
0.00045843366817462794,0.5034773060029283
0.00046347140079193157,0.5034773060029283
0.00046347140079193157,0.5048499267935578
0.0004685091334092352,0.5048499267935578
0.0004685091334092352,0.5085102489019033
0.00047354686602653877,0.5085102489019033
0.00047354686602653877,0.508876281112738
0.0004785845986438424,0.508876281112738
0.0004785845986438424,0.509608345534407
0.00048362233126114597,0.509608345534407
0.00048362233126114597,0.5096998535871157
0.0004886600638784495,0.5096998535871157
0.0004886600638784495,0.5109809663250366
0.0004936977964957532,0.5109809663250366
0.0004936977964957532,0.511896046852123
0.000508810994347664,0.511896046852123
0.000508810994347664,0.5128111273792094
0.0005138487269649676,0.5128111273792094
0.0005138487269649676,0.5150073206442167
0.0005188864595822712,0.5150073206442167
0.0005188864595822712,0.5154648609077599
0.0005289619248168785,0.5154648609077599
0.0005289619248168785,0.5164714494875549
0.000533999657434182,0.5164714494875549
0.000533999657434182,0.5180270863836017
0.0005390373900514856,0.5180270863836017
0.0005390373900514856,0.5181185944363104
0.0005440751226687893,0.5181185944363104
0.0005440751226687893,0.5187591508052709
0.0005491128552860929,0.5187591508052709
0.0005491128552860929,0.5191251830161054
0.0005541505879033964,0.5191251830161054
0.0005541505879033964,0.5195827232796486
0.0005591883205207,0.5195827232796486
0.0005591883205207,0.5241581259150805
0.0005642260531380037,0.5241581259150805
0.0005642260531380037,0.5242496339677891
0.0005692637857553073,0.5242496339677891
0.0005692637857553073,0.5250732064421669
0.0005793392509899145,0.5250732064421669
0.0005793392509899145,0.5252562225475842
0.0005843769836072181,0.5252562225475842
0.0005843769836072181,0.5254392386530015
0.0005944524488418252,0.5254392386530015
0.0005944524488418252,0.5266288433382138
0.0005994901814591289,0.5266288433382138
0.0005994901814591289,0.5272693997071742
0.0006045279140764325,0.5272693997071742
0.0006045279140764325,0.527818448023426
0.0006095656466937361,0.527818448023426
0.0006095656466937361,0.5284590043923866
0.0006146033793110396,0.5284590043923866
0.0006146033793110396,0.5288250366032211
0.0006196411119283433,0.5288250366032211
0.0006196411119283433,0.5289165446559297
0.0006246788445456469,0.5289165446559297
0.0006246788445456469,0.5292825768667643
0.0006297165771629505,0.5292825768667643
0.0006297165771629505,0.5302891654465594
0.0006347543097802541,0.5302891654465594
0.0006347543097802541,0.530380673499268
0.0006397920423975577,0.530380673499268
0.0006397920423975577,0.5306551976573939
0.0006448297750148613,0.5306551976573939
0.0006448297750148613,0.5319363103953147
0.0006498675076321649,0.5319363103953147
0.0006498675076321649,0.5326683748169839
0.0006599429728667721,0.5326683748169839
0.0006599429728667721,0.5327598828696926
0.0006649807054840757,0.5327598828696926
0.0006649807054840757,0.5333089311859444
0.0006700184381013794,0.5333089311859444
0.0006700184381013794,0.5349560761346999
0.000675056170718683,0.5349560761346999
0.000675056170718683,0.5351390922401171
0.0006800939033359865,0.5351390922401171
0.0006800939033359865,0.5355051244509517
0.0006851316359532901,0.5355051244509517
0.0006851316359532901,0.5356881405563689
0.0006952071011878973,0.5356881405563689
0.0006952071011878973,0.5357796486090776
0.0007002448338052009,0.5357796486090776
0.0007002448338052009,0.5366032210834554
0.0007052825664225046,0.5366032210834554
0.0007052825664225046,0.5372437774524158
0.0007103202990398082,0.5372437774524158
0.0007103202990398082,0.5380673499267935
0.0007153580316571118,0.5380673499267935
0.0007153580316571118,0.5385248901903368
0.0007203957642744153,0.5385248901903368
0.0007203957642744153,0.5391654465592972
0.000725433496891719,0.5391654465592972
0.000725433496891719,0.5406295754026355
0.0007304712295090226,0.5406295754026355
0.0007304712295090226,0.5407210834553441
0.0007355089621263262,0.5407210834553441
0.0007355089621263262,0.5421852122986823
0.0007405466947436298,0.5421852122986823
0.0007405466947436298,0.5433748169838946
0.0007455844273609334,0.5433748169838946
0.0007455844273609334,0.5436493411420205
0.0007556598925955406,0.5436493411420205
0.0007556598925955406,0.5439238653001464
0.0007606976252128442,0.5439238653001464
0.0007606976252128442,0.5445644216691069
0.0007758108230647551,0.5445644216691069
0.0007758108230647551,0.5459370424597365
0.0007808485556820586,0.5459370424597365
0.0007808485556820586,0.5460285505124451
0.0007858862882993622,0.5460285505124451
0.0007858862882993622,0.5474926793557833
0.0007909240209166658,0.5474926793557833
0.0007909240209166658,0.5481332357247438
0.0007959617535339695,0.5481332357247438
0.0007959617535339695,0.549597364568082
0.000800999486151273,0.549597364568082
0.000800999486151273,0.5496888726207906
0.0008060372187685766,0.5496888726207906
0.0008060372187685766,0.5506954612005857
0.0008110749513858803,0.5506954612005857
0.0008110749513858803,0.5517020497803806
0.0008161126840031839,0.5517020497803806
0.0008161126840031839,0.5528001464128843
0.0008211504166204874,0.5528001464128843
0.0008211504166204874,0.5532576866764275
0.000826188149237791,0.5532576866764275
0.000826188149237791,0.5547218155197657
0.0008312258818550947,0.5547218155197657
0.0008312258818550947,0.5560029282576867
0.0008362636144723983,0.5560029282576867
0.0008362636144723983,0.5564604685212299
0.0008413013470897018,0.5564604685212299
0.0008413013470897018,0.5565519765739385
0.0008513768123243091,0.5565519765739385
0.0008513768123243091,0.5571925329428989
0.0008564145449416127,0.5571925329428989
0.0008564145449416127,0.5572840409956076
0.0008614522775589162,0.5572840409956076
0.0008614522775589162,0.5578330893118595
0.0008664900101762199,0.5578330893118595
0.0008664900101762199,0.5580161054172768
0.0008715277427935235,0.5580161054172768
0.0008715277427935235,0.5582906295754027
0.0008765654754108271,0.5582906295754027
0.0008765654754108271,0.5588396778916545
0.0008816032080281306,0.5588396778916545
0.0008816032080281306,0.5589311859443631
0.0008866409406454343,0.5589311859443631
0.0008866409406454343,0.5592972181551976
0.0008916786732627379,0.5592972181551976
0.0008916786732627379,0.5595717423133236
0.0009017541384973452,0.5595717423133236
0.0009017541384973452,0.5603953147877013
0.0009067918711146487,0.5603953147877013
0.0009067918711146487,0.5607613469985359
0.0009118296037319523,0.5607613469985359
0.0009118296037319523,0.5621339677891655
0.0009168673363492559,0.5621339677891655
0.0009168673363492559,0.5641471449487555
0.0009219050689665596,0.5641471449487555
0.0009219050689665596,0.5657027818448024
0.0009269428015838631,0.5657027818448024
0.0009269428015838631,0.5664348462664714
0.0009319805342011667,0.5664348462664714
0.0009319805342011667,0.5665263543191801
0.0009370182668184704,0.5665263543191801
0.0009370182668184704,0.5666178623718887
0.000942055999435774,0.5666178623718887
0.000942055999435774,0.5667093704245973
0.0009470937320530775,0.5667093704245973
0.0009470937320530775,0.566800878477306
0.0009521314646703811,0.566800878477306
0.0009521314646703811,0.5683565153733529
0.0009571691972876848,0.5683565153733529
0.0009571691972876848,0.5690885797950219
0.0009672446625222919,0.5690885797950219
0.0009672446625222919,0.5693631039531479
0.0009722823951395956,0.5693631039531479
0.0009722823951395956,0.5697291361639825
0.0009873955929915064,0.5697291361639825
0.0009873955929915064,0.570095168374817
0.00099243332560881,0.570095168374817
0.00099243332560881,0.5701866764275256
0.0009974710582261136,0.5701866764275256
0.0009974710582261136,0.5702781844802343
0.0009974710582261136,0.5704612005856515
0.0009974710582261136,0.5705527086383602
0.0010025087908434173,0.5705527086383602
0.0010025087908434173,0.5707357247437774
0.001017621988695328,0.5707357247437774
0.001017621988695328,0.5728404099560761
0.0010226597213126316,0.5728404099560761
0.0010226597213126316,0.5730234260614934
0.0010276974539299352,0.5730234260614934
0.0010276974539299352,0.5732979502196194
0.0010327351865472387,0.5732979502196194
0.0010327351865472387,0.5737554904831625
0.0010377729191645424,0.5737554904831625
0.0010377729191645424,0.5744875549048316
0.001042810651781846,0.5744875549048316
0.001042810651781846,0.5758601756954612
0.0010528861170164532,0.5758601756954612
0.0010528861170164532,0.5765922401171303
0.0010629615822510604,0.5765922401171303
0.0010629615822510604,0.5767752562225475
0.001067999314868364,0.5767752562225475
0.001067999314868364,0.5775988286969254
0.0010730370474856677,0.5775988286969254
0.0010730370474856677,0.577690336749634
0.0010780747801029712,0.577690336749634
0.0010780747801029712,0.5778733528550513
0.0010831125127202749,0.5778733528550513
0.0010831125127202749,0.5781478770131772
0.0010881502453375786,0.5781478770131772
0.0010881502453375786,0.5783308931185944
0.0010982257105721857,0.5783308931185944
0.0010982257105721857,0.5786054172767203
0.0011032634431894892,0.5786054172767203
0.0011032634431894892,0.5789714494875549
0.0011083011758067929,0.5789714494875549
0.0011083011758067929,0.5790629575402635
0.0011133389084240965,0.5790629575402635
0.0011133389084240965,0.5794289897510981
0.0011183766410414,0.5794289897510981
0.0011183766410414,0.5800695461200586
0.0011284521062760074,0.5800695461200586
0.0011284521062760074,0.5805270863836017
0.0011334898388933108,0.5805270863836017
0.0011334898388933108,0.5808016105417276
0.0011385275715106145,0.5808016105417276
0.0011385275715106145,0.5809846266471449
0.0011435653041279182,0.5809846266471449
0.0011435653041279182,0.5810761346998536
0.0011486030367452217,0.5810761346998536
0.0011486030367452217,0.5821742313323572
0.0011536407693625253,0.5821742313323572
0.0011536407693625253,0.5823572474377745
0.001158678501979829,0.5823572474377745
0.001158678501979829,0.5829978038067349
0.0011637162345971325,0.5829978038067349
0.0011637162345971325,0.5847364568081991
0.0011687539672144362,0.5847364568081991
0.0011687539672144362,0.5856515373352855
0.0011737916998317396,0.5856515373352855
0.0011737916998317396,0.5861090775988287
0.0011788294324490433,0.5861090775988287
0.0011788294324490433,0.586292093704246
0.001183867165066347,0.586292093704246
0.001183867165066347,0.5866581259150805
0.0011889048976836505,0.5866581259150805
0.0011889048976836505,0.5868411420204978
0.0011939426303009541,0.5868411420204978
0.0011939426303009541,0.5875732064421669
0.0011989803629182578,0.5875732064421669
0.0011989803629182578,0.5878477306002928
0.0012040180955355613,0.5878477306002928
0.0012040180955355613,0.5879392386530015
0.0012140935607701687,0.5879392386530015
0.0012140935607701687,0.588305270863836
0.0012191312933874721,0.588305270863836
0.0012191312933874721,0.5884882869692533
0.0012292067586220793,0.5884882869692533
0.0012292067586220793,0.5893118594436311
0.001234244491239383,0.5893118594436311
0.001234244491239383,0.5894948755490483
0.0012392822238566866,0.5894948755490483
0.0012392822238566866,0.5901354319180088
0.00124431995647399,0.5901354319180088
0.00124431995647399,0.5910505124450952
0.0012493576890912938,0.5910505124450952
0.0012493576890912938,0.5917825768667643
0.0012543954217085975,0.5917825768667643
0.0012543954217085975,0.5918740849194729
0.0012695086195605083,0.5918740849194729
0.0012695086195605083,0.5922401171303074
0.0012745463521778118,0.5922401171303074
0.0012745463521778118,0.5926976573938506
0.0012795840847951154,0.5926976573938506
0.0012795840847951154,0.5927891654465594
0.0012846218174124191,0.5927891654465594
0.0012846218174124191,0.5934297218155198
0.0012896595500297226,0.5934297218155198
0.0012896595500297226,0.5939787701317716
0.0012946972826470263,0.5939787701317716
0.0012946972826470263,0.5940702781844802
0.0013047727478816334,0.5940702781844802
0.0013047727478816334,0.5948023426061494
0.001309810480498937,0.5948023426061494
0.001309810480498937,0.5950768667642753
0.0013148482131162406,0.5950768667642753
0.0013148482131162406,0.5953513909224012
0.0013198859457335442,0.5953513909224012
0.0013198859457335442,0.5954428989751098
0.001334999143585455,0.5954428989751098
0.001334999143585455,0.5969985358711567
0.0013400368762027587,0.5969985358711567
0.0013400368762027587,0.5973645680819912
0.0013450746088200622,0.5973645680819912
0.0013450746088200622,0.5977306002928258
0.001350112341437366,0.5977306002928258
0.001350112341437366,0.5995607613469985
0.0013551500740546696,0.5995607613469985
0.0013551500740546696,0.5997437774524158
0.0013652255392892767,0.5997437774524158
0.0013652255392892767,0.5998352855051244
0.0013702632719065802,0.5998352855051244
0.0013702632719065802,0.600201317715959
0.0013803387371411876,0.600201317715959
0.0013803387371411876,0.6006588579795022
0.001385376469758491,0.6006588579795022
0.001385376469758491,0.6013909224011713
0.0013904142023757947,0.6013909224011713
0.0013904142023757947,0.6017569546120058
0.0013954519349930984,0.6017569546120058
0.0013954519349930984,0.6021229868228404
0.0014055274002277055,0.6021229868228404
0.0014055274002277055,0.6023060029282576
0.0014105651328450092,0.6023060029282576
0.0014105651328450092,0.6023975109809663
0.0014156028654623127,0.6023975109809663
0.0014156028654623127,0.6032210834553441
0.0014206405980796164,0.6032210834553441
0.0014206405980796164,0.60349560761347
0.0014307160633142235,0.60349560761347
0.0014307160633142235,0.6036786237188873
0.0014357537959315272,0.6036786237188873
0.0014357537959315272,0.6041361639824304
0.0014407915285488306,0.6041361639824304
0.0014407915285488306,0.6044106881405563
0.0014458292611661343,0.6044106881405563
0.0014458292611661343,0.6056002928257687
0.001450866993783438,0.6056002928257687
0.001450866993783438,0.6056918008784773
0.0014559047264007415,0.6056918008784773
0.0014559047264007415,0.6062408491947291
0.0014609424590180452,0.6062408491947291
0.0014609424590180452,0.6064238653001464
0.0014659801916353488,0.6064238653001464
0.0014659801916353488,0.6066983894582724
0.0014710179242526523,0.6066983894582724
0.0014710179242526523,0.6074304538799414
0.001476055656869956,0.6074304538799414
0.001476055656869956,0.6077049780380673
0.0014810933894872597,0.6077049780380673
0.0014810933894872597,0.607796486090776
0.0014962065873391703,0.607796486090776
0.0014962065873391703,0.6078879941434846
0.001501244319956474,0.6078879941434846
0.001501244319956474,0.6082540263543191
0.0015062820525737776,0.6082540263543191
0.0015062820525737776,0.6085285505124451
0.0015213952504256885,0.6085285505124451
0.0015213952504256885,0.608803074670571
0.001526432983042992,0.608803074670571
0.001526432983042992,0.6089860907759883
0.0015314707156602956,0.6089860907759883
0.0015314707156602956,0.6094436310395315
0.0015365084482775993,0.6094436310395315
0.0015365084482775993,0.6096266471449487
0.0015415461808949028,0.6096266471449487
0.0015415461808949028,0.6099011713030746
0.0015465839135122064,0.6099011713030746
0.0015465839135122064,0.6101756954612005
0.0015516216461295101,0.6101756954612005
0.0015516216461295101,0.6102672035139092
0.0015616971113641173,0.6102672035139092
0.0015616971113641173,0.6103587115666179
0.0015667348439814207,0.6103587115666179
0.0015667348439814207,0.6104502196193266
0.0015868857744506353,0.6104502196193266
0.0015868857744506353,0.6106332357247438
0.001591923507067939,0.6106332357247438
0.001591923507067939,0.6116398243045388
0.001601998972302546,0.6116398243045388
0.001601998972302546,0.6117313323572474
0.0016070367049198498,0.6117313323572474
0.0016070367049198498,0.6122803806734992
0.001617112170154457,0.6122803806734992
0.001617112170154457,0.6124633967789166
0.0016221499027717606,0.6124633967789166
0.0016221499027717606,0.6126464128843339
0.001627187635389064,0.6126464128843339
0.001627187635389064,0.6132869692532943
0.0016322253680063677,0.6132869692532943
0.0016322253680063677,0.6135614934114202
0.0016372631006236712,0.6135614934114202
0.0016372631006236712,0.6140190336749634
0.0016423008332409749,0.6140190336749634
0.0016423008332409749,0.6147510980966325
0.0016473385658582786,0.6147510980966325
0.0016473385658582786,0.6153001464128843
0.0016624517637101894,0.6153001464128843
0.0016624517637101894,0.6156661786237189
0.0016674894963274929,0.6156661786237189
0.0016674894963274929,0.616398243045388
0.0016725272289447965,0.616398243045388
0.0016725272289447965,0.6164897510980967
0.0016775649615621002,0.6164897510980967
0.0016775649615621002,0.6169472913616398
0.0016876404267967074,0.6169472913616398
0.0016876404267967074,0.6170387994143485
0.001692678159414011,0.6170387994143485
0.001692678159414011,0.6184114202049781
0.0016977158920313145,0.6184114202049781
0.0016977158920313145,0.6185029282576867
0.0017077913572659217,0.6185029282576867
0.0017077913572659217,0.6189604685212299
0.0017128290898832253,0.6189604685212299
0.0017128290898832253,0.6193265007320644
0.001717866822500529,0.6193265007320644
0.001717866822500529,0.6195095168374817
0.0017229045551178325,0.6195095168374817
0.0017229045551178325,0.6200585651537335
0.0017279422877351362,0.6200585651537335
0.0017279422877351362,0.6204245973645681
0.0017329800203524399,0.6204245973645681
0.0017329800203524399,0.6206076134699854
0.0017380177529697433,0.6206076134699854
0.0017380177529697433,0.6210651537335286
0.001743055485587047,0.6210651537335286
0.001743055485587047,0.6216142020497804
0.0017480932182043507,0.6216142020497804
0.0017480932182043507,0.6227122986822841
0.0017581686834389578,0.6227122986822841
0.0017581686834389578,0.6244509516837482
0.0017632064160562613,0.6244509516837482
0.0017632064160562613,0.6246339677891655
0.001768244148673565,0.6246339677891655
0.001768244148673565,0.6247254758418741
0.0017732818812908687,0.6247254758418741
0.0017732818812908687,0.6257320644216691
0.0017783196139081721,0.6257320644216691
0.0017783196139081721,0.6261896046852123
0.0017833573465254758,0.6261896046852123
0.0017833573465254758,0.6265556368960469
0.0017883950791427795,0.6265556368960469
0.0017883950791427795,0.62701317715959
0.001793432811760083,0.62701317715959
0.001793432811760083,0.6274707174231332
0.0018085460096119938,0.6274707174231332
0.0018085460096119938,0.6281112737920937
0.0018135837422292975,0.6281112737920937
0.0018135837422292975,0.6282027818448024
0.0018186214748466011,0.6282027818448024
0.0018186214748466011,0.628294289897511
0.0018286969400812083,0.628294289897511
0.0018286969400812083,0.6293923865300146
0.0018337346726985118,0.6293923865300146
0.0018337346726985118,0.6295754026354319
0.0018387724053158154,0.6295754026354319
0.0018387724053158154,0.630581991215227
0.0018538856031677263,0.630581991215227
0.0018538856031677263,0.6308565153733529
0.00185892333578503,0.6308565153733529
0.00185892333578503,0.6318631039531479
0.0018639610684023334,0.6318631039531479
0.0018639610684023334,0.6328696925329429
0.001868998801019637,0.6328696925329429
0.001868998801019637,0.6329612005856515
0.0018740365336369408,0.6329612005856515
0.0018740365336369408,0.6335102489019033
0.0018790742662542442,0.6335102489019033
0.0018790742662542442,0.633876281112738
0.001884111998871548,0.633876281112738
0.001884111998871548,0.6339677891654466
0.0018992251967234587,0.6339677891654466
0.0018992251967234587,0.6342423133235725
0.0019042629293407622,0.6342423133235725
0.0019042629293407622,0.6344253294289898
0.001909300661958066,0.6344253294289898
0.001909300661958066,0.6345168374816984
0.0019143383945753696,0.6345168374816984
0.0019143383945753696,0.634608345534407
0.001919376127192673,0.634608345534407
0.001919376127192673,0.6351573938506588
0.0019244138598099767,0.6351573938506588
0.0019244138598099767,0.6352489019033675
0.0019294515924272804,0.6352489019033675
0.0019294515924272804,0.6357979502196194
0.0019344893250445839,0.6357979502196194
0.0019344893250445839,0.6360724743777453
0.0019445647902791912,0.6360724743777453
0.0019445647902791912,0.6361639824304539
0.001954640255513798,0.6361639824304539
0.001954640255513798,0.6362554904831625
0.001959677988131102,0.6362554904831625
0.001959677988131102,0.6366215226939971
0.0019647157207484055,0.6366215226939971
0.0019647157207484055,0.6368045387994143
0.001969753453365709,0.6368045387994143
0.001969753453365709,0.6373535871156661
0.001974791185983013,0.6373535871156661
0.001974791185983013,0.6379941434846267
0.00198486665121762,0.6379941434846267
0.00198486665121762,0.6383601756954612
0.0019899043838349237,0.6383601756954612
0.0019899043838349237,0.6386346998535871
0.001994942116452227,0.6386346998535871
0.001994942116452227,0.6392752562225475
0.0019999798490695306,0.6392752562225475
0.0019999798490695306,0.6393667642752562
0.002010055314304138,0.6393667642752562
0.002010055314304138,0.6396412884333821
0.002025168512156049,0.6396412884333821
0.002025168512156049,0.6398243045387995
0.0020302062447733523,0.6398243045387995
0.0020302062447733523,0.6409224011713031
0.0020402817100079597,0.6409224011713031
0.0020402817100079597,0.6410139092240117
0.002050357175242567,0.6410139092240117
0.002050357175242567,0.6411054172767203
0.002075545838329085,0.6411054172767203
0.002075545838329085,0.6413799414348462
0.002085621303563692,0.6413799414348462
0.002085621303563692,0.6416544655929722
0.0020906590361809956,0.6416544655929722
0.0020906590361809956,0.6417459736456809
0.002095696768798299,0.6417459736456809
0.002095696768798299,0.6418374816983895
0.002100734501415603,0.6418374816983895
0.002100734501415603,0.6420204978038068
0.00211080996665021,0.6420204978038068
0.00211080996665021,0.6426610541727672
0.0021208854318848173,0.6426610541727672
0.0021208854318848173,0.6429355783308931
0.002135998629736728,0.6429355783308931
0.002135998629736728,0.643210102489019
0.0021410363623540316,0.643210102489019
0.0021410363623540316,0.6434846266471449
0.0021460740949713355,0.6434846266471449
0.0021460740949713355,0.6436676427525623
0.002151111827588639,0.6436676427525623
0.002151111827588639,0.6438506588579795
0.0021561495602059424,0.6438506588579795
0.0021561495602059424,0.6440336749633968
0.0021611872928232463,0.6440336749633968
0.0021611872928232463,0.64449121522694
0.0021662250254405498,0.64449121522694
0.0021662250254405498,0.6446742313323572
0.0021712627580578532,0.6446742313323572
0.0021712627580578532,0.6449487554904831
0.002176300490675157,0.6449487554904831
0.002176300490675157,0.645223279648609
0.0021813382232924606,0.645223279648609
0.0021813382232924606,0.6453147877013177
0.002186375955909764,0.6453147877013177
0.002186375955909764,0.6454062957540263
0.0021964514211443714,0.6454062957540263
0.0021964514211443714,0.645772327964861
0.002201489153761675,0.645772327964861
0.002201489153761675,0.6458638360175696
0.0022065268863789783,0.6458638360175696
0.0022065268863789783,0.6461383601756955
0.0022115646189962822,0.6461383601756955
0.0022115646189962822,0.6462298682284041
0.0022166023516135857,0.6462298682284041
0.0022166023516135857,0.64650439238653
0.002221640084230889,0.64650439238653
0.002221640084230889,0.6468704245973645
0.002226677816848193,0.6468704245973645
0.002226677816848193,0.6469619326500732
0.0022367532820828,0.6469619326500732
0.0022367532820828,0.6472364568081991
0.002241791014700104,0.6472364568081991
0.002241791014700104,0.6476939970717424
0.0022468287473174074,0.6476939970717424
0.0022468287473174074,0.6482430453879942
0.002251866479934711,0.6482430453879942
0.002251866479934711,0.6489751098096632
0.0022569042125520147,0.6489751098096632
0.0022569042125520147,0.6493411420204978
0.002261941945169318,0.6493411420204978
0.002261941945169318,0.6496156661786238
0.0022669796777866217,0.6496156661786238
0.0022669796777866217,0.6502562225475842
0.0022720174104039256,0.6502562225475842
0.0022720174104039256,0.650805270863836
0.0022820928756385325,0.650805270863836
0.0022820928756385325,0.6509882869692533
0.0022871306082558364,0.6509882869692533
0.0022871306082558364,0.6515373352855052
0.00229216834087314,0.6515373352855052
0.00229216834087314,0.6516288433382138
0.0022972060734904433,0.6516288433382138
0.0022972060734904433,0.6517203513909224
0.0023022438061077472,0.6517203513909224
0.0023022438061077472,0.6518118594436311
0.0023072815387250507,0.6518118594436311
0.0023072815387250507,0.6521778916544656
0.002317357003959658,0.6521778916544656
0.002317357003959658,0.6530014641288433
0.0023223947365769615,0.6530014641288433
0.0023223947365769615,0.6533674963396779
0.002327432469194265,0.6533674963396779
0.002327432469194265,0.6539165446559297
0.0023324702018115684,0.6539165446559297
0.0023324702018115684,0.6540080527086384
0.0023375079344288723,0.6540080527086384
0.0023375079344288723,0.6541910688140556
0.002352621132280783,0.6541910688140556
0.002352621132280783,0.6544655929721815
0.0023576588648980866,0.6544655929721815
0.0023576588648980866,0.6550146412884333
0.00236269659751539,0.6550146412884333
0.00236269659751539,0.6555636896046853
0.002367734330132694,0.6555636896046853
0.002367734330132694,0.6556551976573939
0.002377809795367301,0.6556551976573939
0.002377809795367301,0.6557467057101025
0.002382847527984605,0.6557467057101025
0.002382847527984605,0.6569363103953147
0.0023878852606019083,0.6569363103953147
0.0023878852606019083,0.657119326500732
0.0023929229932192118,0.657119326500732
0.0023929229932192118,0.6572108345534406
0.002402998458453819,0.6572108345534406
0.002402998458453819,0.6573023426061494
0.0024130739236884265,0.6573023426061494
0.0024130739236884265,0.657393850658858
0.00241811165630573,0.657393850658858
0.00241811165630573,0.6576683748169839
0.0024231493889230334,0.6576683748169839
0.0024231493889230334,0.6578513909224012
0.0024281871215403373,0.6578513909224012
0.0024281871215403373,0.6579428989751098
0.002443300319392248,0.6579428989751098
0.002443300319392248,0.6582174231332357
0.002453375784626855,0.6582174231332357
0.002453375784626855,0.658400439238653
0.0024584135172441585,0.658400439238653
0.0024584135172441585,0.6592240117130308
0.0024634512498614624,0.6592240117130308
0.0024634512498614624,0.6594070278184481
0.002468488982478766,0.6594070278184481
0.002468488982478766,0.6595900439238653
0.0024735267150960694,0.6595900439238653
0.0024735267150960694,0.6598645680819912
0.0024785644477133733,0.6598645680819912
0.0024785644477133733,0.6601390922401171
0.0024836021803306767,0.6601390922401171
0.0024836021803306767,0.6602306002928258
0.00248863991294798,0.6602306002928258
0.00248863991294798,0.6605051244509517
0.002493677645565284,0.6605051244509517
0.002493677645565284,0.6607796486090776
0.002503753110799891,0.6607796486090776
0.002503753110799891,0.6612371888726208
0.002518866308651802,0.6612371888726208
0.002518866308651802,0.6614202049780381
0.0025239040412691057,0.6614202049780381
0.0025239040412691057,0.6615117130307467
0.0025339795065037127,0.6615117130307467
0.0025339795065037127,0.6619692532942899
0.0025390172391210166,0.6619692532942899
0.0025390172391210166,0.6624267935578331
0.00254405497173832,0.6624267935578331
0.00254405497173832,0.6626098096632503
0.0025490927043556235,0.6626098096632503
0.0025490927043556235,0.6627928257686676
0.0025541304369729274,0.6627928257686676
0.0025541304369729274,0.6628843338213762
0.002559168169590231,0.6628843338213762
0.002559168169590231,0.6629758418740849
0.002584356832676749,0.6629758418740849
0.002584356832676749,0.6632503660322109
0.002594432297911356,0.6632503660322109
0.002594432297911356,0.6635248901903368
0.0026045077631459634,0.6635248901903368
0.0026045077631459634,0.663707906295754
0.002609545495763267,0.663707906295754
0.002609545495763267,0.6638909224011713
0.0026145832283805703,0.6638909224011713
0.0026145832283805703,0.6640739385065886
0.0026246586936151776,0.6640739385065886
0.0026246586936151776,0.6642569546120058
0.002634734158849785,0.6642569546120058
0.002634734158849785,0.664714494875549
0.0026397718914670885,0.664714494875549
0.0026397718914670885,0.6651720351390923
0.002649847356701696,0.6651720351390923
0.002649847356701696,0.6655380673499268
0.0026548850893189993,0.6655380673499268
0.0026548850893189993,0.6656295754026355
0.0026649605545536067,0.6656295754026355
0.0026649605545536067,0.6659040995607614
0.00266999828717091,0.6659040995607614
0.00266999828717091,0.66599560761347
0.0026750360197882136,0.66599560761347
0.0026750360197882136,0.6661786237188873
0.002685111485022821,0.6661786237188873
0.002685111485022821,0.6663616398243045
0.0026901492176401244,0.6663616398243045
0.0026901492176401244,0.6669106881405563
0.0026951869502574283,0.6669106881405563
0.0026951869502574283,0.6670021961932651
0.002700224682874732,0.6670021961932651
0.002700224682874732,0.6681918008784773
0.0027153378807266426,0.6681918008784773
0.0027153378807266426,0.6682833089311859
0.002720375613343946,0.6682833089311859
0.002720375613343946,0.6683748169838946
0.0027254133459612495,0.6683748169838946
0.0027254133459612495,0.6684663250366032
0.0027304510785785534,0.6684663250366032
0.0027304510785785534,0.6688323572474377
0.002735488811195857,0.6688323572474377
0.002735488811195857,0.6691983894582724
0.0027506020090477677,0.6691983894582724
0.0027506020090477677,0.6698389458272328
0.002755639741665071,0.6698389458272328
0.002755639741665071,0.6700219619326501
0.002760677474282375,0.6700219619326501
0.002760677474282375,0.6701134699853587
0.0027657152068996786,0.6701134699853587
0.0027657152068996786,0.6704795021961932
0.002770752939516982,0.6704795021961932
0.002770752939516982,0.6706625183016105
0.002775790672134286,0.6706625183016105
0.002775790672134286,0.6708455344070278
0.002785866137368893,0.6708455344070278
0.002785866137368893,0.6711200585651538
0.0027909038699861968,0.6711200585651538
0.0027909038699861968,0.6713945827232797
0.0027959416026035002,0.6713945827232797
0.0027959416026035002,0.6714860907759883
0.0028211302656900184,0.6714860907759883
0.0028211302656900184,0.6716691068814056
0.002826167998307322,0.6716691068814056
0.002826167998307322,0.6719436310395315
0.0028312057309246253,0.6719436310395315
0.0028312057309246253,0.6724011713030746
0.0028362434635419292,0.6724011713030746
0.0028362434635419292,0.6729502196193266
0.0028412811961592327,0.6729502196193266
0.0028412811961592327,0.6730417276720352
0.002846318928776536,0.6730417276720352
0.002846318928776536,0.6732247437774525
0.00285135666139384,0.6732247437774525
0.00285135666139384,0.6741398243045388
0.002861432126628447,0.6741398243045388
0.002861432126628447,0.674322840409956
0.0028664698592457505,0.674322840409956
0.0028664698592457505,0.6744143484626647
0.0028715075918630544,0.6744143484626647
0.0028715075918630544,0.6745058565153733
0.002876545324480358,0.6745058565153733
0.002876545324480358,0.674597364568082
0.0028815830570976613,0.674597364568082
0.0028815830570976613,0.6747803806734992
0.002886620789714965,0.6747803806734992
0.002886620789714965,0.6756954612005857
0.0028916585223322687,0.6756954612005857
0.0028916585223322687,0.6757869692532943
0.002896696254949572,0.6757869692532943
0.002896696254949572,0.6763360175695461
0.002901733987566876,0.6763360175695461
0.002901733987566876,0.676885065885798
0.0029067717201841795,0.676885065885798
0.0029067717201841795,0.6769765739385066
0.002911809452801483,0.6769765739385066
0.002911809452801483,0.6774341142020498
0.002916847185418787,0.6774341142020498
0.002916847185418787,0.6777086383601757
0.0029218849180360903,0.6777086383601757
0.0029218849180360903,0.677891654465593
0.0029319603832706977,0.677891654465593
0.0029319603832706977,0.6785322108345534
0.0029420358485053046,0.6785322108345534
0.0029420358485053046,0.6788067349926794
0.0029470735811226085,0.6788067349926794
0.0029470735811226085,0.6791727672035139
0.0029571490463572154,0.6791727672035139
0.0029571490463572154,0.6792642752562226
0.0029621867789745193,0.6792642752562226
0.0029621867789745193,0.679904831625183
0.0029722622442091263,0.679904831625183
0.0029722622442091263,0.6805453879941434
0.002987375442061037,0.6805453879941434
0.002987375442061037,0.6807284040995608
0.0029924131746783406,0.6807284040995608
0.0029924131746783406,0.6815519765739385
0.003002488639912948,0.6815519765739385
0.003002488639912948,0.6817349926793558
0.0030075263725302514,0.6817349926793558
0.0030075263725302514,0.6818265007320644
0.0030125641051475553,0.6818265007320644
0.0030125641051475553,0.6821010248901903
0.003022639570382162,0.6821010248901903
0.003022639570382162,0.6821925329428989
0.0030327150356167696,0.6821925329428989
0.0030327150356167696,0.6822840409956076
0.003037752768234073,0.6822840409956076
0.003037752768234073,0.6823755490483162
0.003042790500851377,0.6823755490483162
0.003042790500851377,0.6824670571010248
0.0030478282334686804,0.6824670571010248
0.0030478282334686804,0.6825585651537335
0.003052865966085984,0.6825585651537335
0.003052865966085984,0.6831076134699854
0.0030579036987032878,0.6831076134699854
0.0030579036987032878,0.683199121522694
0.0030629414313205912,0.683199121522694
0.0030629414313205912,0.6835651537335286
0.0030730168965551986,0.6835651537335286
0.0030730168965551986,0.6837481698389458
0.003078054629172502,0.6837481698389458
0.003078054629172502,0.684205710102489
0.0030881300944071094,0.684205710102489
0.0030881300944071094,0.6842972181551976
0.003093167827024413,0.6842972181551976
0.003093167827024413,0.6846632503660323
0.0031032432922590203,0.6846632503660323
0.0031032432922590203,0.6847547584187409
0.003118356490110931,0.6847547584187409
0.003118356490110931,0.68548682284041
0.0031233942227282346,0.68548682284041
0.0031233942227282346,0.6858528550512445
0.0031334696879628415,0.6858528550512445
0.0031334696879628415,0.6868594436310396
0.0031385074205801454,0.6868594436310396
0.0031385074205801454,0.6869509516837482
0.0031586583510493597,0.6869509516837482
0.0031586583510493597,0.6870424597364568
0.003168733816283967,0.6870424597364568
0.003168733816283967,0.6872254758418741
0.0031737715489012705,0.6872254758418741
0.0031737715489012705,0.6876830161054173
0.003178809281518574,0.6876830161054173
0.003178809281518574,0.6877745241581259
0.0031888847467531813,0.6877745241581259
0.0031888847467531813,0.6880490483162518
0.003193922479370485,0.6880490483162518
0.003193922479370485,0.6885065885797951
0.0031989602119877887,0.6885065885797951
0.0031989602119877887,0.6886896046852123
0.003203997944605092,0.6886896046852123
0.003203997944605092,0.688781112737921
0.0032090356772223956,0.688781112737921
0.0032090356772223956,0.6888726207906296
0.0032140734098396995,0.6888726207906296
0.0032140734098396995,0.6899707174231332
0.003219111142457003,0.6899707174231332
0.003219111142457003,0.6906112737920937
0.0032291866076916103,0.6906112737920937
0.0032291866076916103,0.6910688140556369
0.003234224340308914,0.6910688140556369
0.003234224340308914,0.6911603221083455
0.0032392620729262173,0.6911603221083455
0.0032392620729262173,0.6913433382137628
0.0032493375381608246,0.6913433382137628
0.0032493375381608246,0.6915263543191801
0.0032594130033954316,0.6915263543191801
0.0032594130033954316,0.6917093704245973
0.003269488468630039,0.6917093704245973
0.003269488468630039,0.6918923865300146
0.0032745262012473424,0.6918923865300146
0.0032745262012473424,0.6921669106881405
0.0032846016664819498,0.6921669106881405
0.0032846016664819498,0.6923499267935578
0.003304752596951164,0.6923499267935578
0.003304752596951164,0.6927159590043924
0.0033148280621857714,0.6927159590043924
0.0033148280621857714,0.6928989751098097
0.003319865794803075,0.6928989751098097
0.003319865794803075,0.6933565153733529
0.0033299412600376822,0.6933565153733529
0.0033299412600376822,0.6936310395314788
0.0033349789926549857,0.6936310395314788
0.0033349789926549857,0.6939055636896047
0.0033400167252722896,0.6939055636896047
0.0033400167252722896,0.6942715959004392
0.0033500921905068965,0.6942715959004392
0.0033500921905068965,0.6943631039531479
0.0033551299231242004,0.6943631039531479
0.0033551299231242004,0.6945461200585652
0.003360167655741504,0.6945461200585652
0.003360167655741504,0.6948206442166911
0.0033702431209761113,0.6948206442166911
0.0033702431209761113,0.6949121522693997
0.0033752808535934147,0.6949121522693997
0.0033752808535934147,0.6950036603221084
0.0034004695166799325,0.6950036603221084
0.0034004695166799325,0.6951866764275256
0.0034055072492972364,0.6951866764275256
0.0034055072492972364,0.6952781844802343
0.00341054498191454,0.6952781844802343
0.00341054498191454,0.6956442166910688
0.0034155827145318433,0.6956442166910688
0.0034155827145318433,0.6959187408491947
0.0034206204471491472,0.6959187408491947
0.0034206204471491472,0.696101756954612
0.0034256581797664507,0.696101756954612
0.0034256581797664507,0.6961932650073206
0.003430695912383754,0.6961932650073206
0.003430695912383754,0.696376281112738
0.003435733645001058,0.696376281112738
0.003435733645001058,0.6966508052708639
0.003445809110235665,0.6966508052708639
0.003445809110235665,0.6967423133235725
0.0034558845754702723,0.6967423133235725
0.0034558845754702723,0.6969253294289898
0.003460922308087576,0.6969253294289898
0.003460922308087576,0.6970168374816984
0.003470997773322183,0.6970168374816984
0.003470997773322183,0.6973828696925329
0.0034760355059394866,0.6973828696925329
0.0034760355059394866,0.6976573938506588
0.003486110971174094,0.6976573938506588
0.003486110971174094,0.6979319180087847
0.003501224169026005,0.6979319180087847
0.003501224169026005,0.6980234260614934
0.0035163373668779157,0.6980234260614934
0.0035163373668779157,0.6986639824304539
0.003521375099495219,0.6986639824304539
0.003521375099495219,0.6988469985358712
0.0035264128321125226,0.6988469985358712
0.0035264128321125226,0.6993045387994143
0.0035314505647298265,0.6993045387994143
0.0035314505647298265,0.6996705710102489
0.0035415260299644334,0.6996705710102489
0.0035415260299644334,0.6998535871156661
0.0035465637625817373,0.6998535871156661
0.0035465637625817373,0.7002196193265008
0.003561676960433648,0.7002196193265008
0.003561676960433648,0.7003111273792094
0.0035667146930509516,0.7003111273792094
0.0035667146930509516,0.700402635431918
0.003571752425668255,0.700402635431918
0.003571752425668255,0.700677159590044
0.003576790158285559,0.700677159590044
0.003576790158285559,0.7008601756954612
0.00359190335613747,0.7008601756954612
0.00359190335613747,0.7012262079062958
0.0036070165539893806,0.7012262079062958
0.0036070165539893806,0.7013177159590044
0.003612054286606684,0.7013177159590044
0.003612054286606684,0.701409224011713
0.0036170920192239876,0.701409224011713
0.0036170920192239876,0.7015922401171303
0.0036221297518412915,0.7015922401171303
0.0036221297518412915,0.7016837481698389
0.003627167484458595,0.7016837481698389
0.003627167484458595,0.7020497803806734
0.003652356147545113,0.7020497803806734
0.003652356147545113,0.7023243045387995
0.00366243161277972,0.7023243045387995
0.00366243161277972,0.7024158125915081
0.0036674693453970235,0.7024158125915081
0.0036674693453970235,0.7025073206442167
0.0036725070780143274,0.7025073206442167
0.0036725070780143274,0.7025988286969254
0.003677544810631631,0.7025988286969254
0.003677544810631631,0.702690336749634
0.0036876202758662382,0.702690336749634
0.0036876202758662382,0.7033308931185944
0.003697695741100845,0.7033308931185944
0.003697695741100845,0.7034224011713031
0.003702733473718149,0.7034224011713031
0.003702733473718149,0.7040629575402635
0.003727922136804667,0.7040629575402635
0.003727922136804667,0.7042459736456809
0.003737997602039274,0.7042459736456809
0.003737997602039274,0.704703513909224
0.0037430353346565776,0.704703513909224
0.0037430353346565776,0.7047950219619327
0.0037480730672738815,0.7047950219619327
0.0037480730672738815,0.7048865300146413
0.003753110799891185,0.7048865300146413
0.003753110799891185,0.7049780380673499
0.0037631862651257924,0.7049780380673499
0.0037631862651257924,0.7050695461200586
0.003768223997743096,0.7050695461200586
0.003768223997743096,0.7056185944363104
0.0037833371955950067,0.7056185944363104
0.0037833371955950067,0.7065336749633968
0.00378837492821231,0.7065336749633968
0.00378837492821231,0.70699121522694
0.003803488126064221,0.70699121522694
0.003803488126064221,0.7071742313323572
0.0038085258586815244,0.7071742313323572
0.0038085258586815244,0.7075402635431918
0.003818601323916132,0.7075402635431918
0.003818601323916132,0.7076317715959004
0.0038236390565334353,0.7076317715959004
0.0038236390565334353,0.707723279648609
0.003828676789150739,0.707723279648609
0.003828676789150739,0.7079978038067349
0.0038337145217680426,0.7079978038067349
0.0038337145217680426,0.7081808199121523
0.003838752254385346,0.7081808199121523
0.003838752254385346,0.7086383601756955
0.00384378998700265,0.7086383601756955
0.00384378998700265,0.7088213762811127
0.003858903184854561,0.7088213762811127
0.003858903184854561,0.7094619326500732
0.003879054115323775,0.7094619326500732
0.003879054115323775,0.7095534407027818
0.0038891295805583825,0.7095534407027818
0.0038891295805583825,0.7100109809663251
0.0039042427784102933,0.7100109809663251
0.0039042427784102933,0.7101024890190337
0.003919355976262204,0.7101024890190337
0.003919355976262204,0.7103770131771596
0.003924393708879507,0.7103770131771596
0.003924393708879507,0.71101756954612
0.003929431441496811,0.71101756954612
0.003929431441496811,0.7112005856515373
0.003934469174114115,0.7112005856515373
0.003934469174114115,0.7118411420204978
0.003944544639348722,0.7118411420204978
0.003944544639348722,0.7123901903367497
0.003949582371966026,0.7123901903367497
0.003949582371966026,0.7127562225475842
0.00396973330243524,0.7127562225475842
0.00396973330243524,0.7129392386530015
0.003989884232904454,0.7129392386530015
0.003989884232904454,0.7134882869692533
0.003994921965521758,0.7134882869692533
0.003994921965521758,0.7135797950219619
0.003999959698139061,0.7135797950219619
0.003999959698139061,0.7136713030746705
0.004004997430756365,0.7136713030746705
0.004004997430756365,0.7138543191800878
0.004015072895990972,0.7138543191800878
0.004015072895990972,0.7140373352855052
0.004020110628608276,0.7140373352855052
0.004020110628608276,0.7141288433382138
0.004030186093842883,0.7141288433382138
0.004030186093842883,0.7144033674963397
0.004035223826460187,0.7144033674963397
0.004035223826460187,0.7152269399707174
0.004040261559077491,0.7152269399707174
0.004040261559077491,0.715318448023426
0.004055374756929402,0.715318448023426
0.004055374756929402,0.7154099560761347
0.0040654502221640085,0.7154099560761347
0.0040654502221640085,0.7155014641288433
0.004070487954781312,0.7155014641288433
0.004070487954781312,0.7155929721815519
0.004080563420015919,0.7155929721815519
0.004080563420015919,0.7156844802342606
0.004090638885250526,0.7156844802342606
0.004090638885250526,0.7157759882869692
0.00409567661786783,0.7157759882869692
0.00409567661786783,0.7161420204978038
0.004100714350485134,0.7161420204978038
0.004100714350485134,0.7165080527086384
0.004105752083102437,0.7165080527086384
0.004105752083102437,0.7168740849194729
0.004120865280954348,0.7168740849194729
0.004120865280954348,0.7169655929721815
0.004135978478806259,0.7169655929721815
0.004135978478806259,0.7171486090775988
0.004146053944040866,0.7171486090775988
0.004146053944040866,0.7173316251830161
0.0041561294092754735,0.7173316251830161
0.0041561294092754735,0.7176976573938506
0.004171242607127384,0.7176976573938506
0.004171242607127384,0.7184297218155198
0.004176280339744687,0.7184297218155198
0.004176280339744687,0.7191617862371888
0.004181318072361991,0.7191617862371888
0.004181318072361991,0.7194363103953147
0.004186355804979295,0.7194363103953147
0.004186355804979295,0.7198023426061494
0.004191393537596598,0.7198023426061494
0.004191393537596598,0.719893850658858
0.004201469002831206,0.719893850658858
0.004201469002831206,0.7206259150805271
0.004206506735448509,0.7206259150805271
0.004206506735448509,0.7209919472913616
0.004236733131152331,0.7209919472913616
0.004236733131152331,0.7210834553440703
0.0042518463290042415,0.7210834553440703
0.0042518463290042415,0.7211749633967789
0.004256884061621545,0.7211749633967789
0.004256884061621545,0.7215409956076134
0.004261921794238849,0.7215409956076134
0.004261921794238849,0.722181551976574
0.00427703499209076,0.722181551976574
0.00427703499209076,0.7222730600292826
0.004282072724708063,0.7222730600292826
0.004282072724708063,0.7223645680819912
0.004287110457325367,0.7223645680819912
0.004287110457325367,0.7224560761346999
0.004292148189942671,0.7224560761346999
0.004292148189942671,0.7230966325036603
0.004322374585646493,0.7230966325036603
0.004322374585646493,0.7239202049780381
0.004327412318263796,0.7239202049780381
0.004327412318263796,0.724194729136164
0.0043324500508810995,0.724194729136164
0.0043324500508810995,0.7242862371888726
0.0043425255161157065,0.7242862371888726
0.0043425255161157065,0.7244692532942899
0.00434756324873301,0.7244692532942899
0.00434756324873301,0.7245607613469985
0.004352600981350314,0.7245607613469985
0.004352600981350314,0.7246522693997072
0.004362676446584921,0.7246522693997072
0.004362676446584921,0.725201317715959
0.004377789644436832,0.725201317715959
0.004377789644436832,0.7252928257686676
0.004382827377054136,0.7252928257686676
0.004382827377054136,0.7255673499267935
0.004397940574906046,0.7255673499267935
0.004397940574906046,0.7256588579795022
0.00440297830752335,0.7256588579795022
0.00440297830752335,0.7259333821376281
0.0044231292379925645,0.7259333821376281
0.0044231292379925645,0.7260248901903368
0.0044281669706098675,0.7260248901903368
0.0044281669706098675,0.726207906295754
0.004448317901079082,0.726207906295754
0.004448317901079082,0.7263909224011713
0.004453355633696386,0.7263909224011713
0.004453355633696386,0.7265739385065886
0.004458393366313689,0.7265739385065886
0.004458393366313689,0.7267569546120058
0.004463431098930993,0.7267569546120058
0.004463431098930993,0.7271229868228404
0.004468468831548297,0.7271229868228404
0.004468468831548297,0.7276720351390923
0.004478544296782904,0.7276720351390923
0.004478544296782904,0.7278550512445096
0.004483582029400208,0.7278550512445096
0.004483582029400208,0.7280380673499268
0.004488619762017511,0.7280380673499268
0.004488619762017511,0.7282210834553441
0.004498695227252119,0.7282210834553441
0.004498695227252119,0.7283125915080527
0.004523883890338636,0.7283125915080527
0.004523883890338636,0.7285871156661786
0.00452892162295594,0.7285871156661786
0.00452892162295594,0.7289531478770132
0.004538997088190547,0.7289531478770132
0.004538997088190547,0.729227672035139
0.004544034820807851,0.729227672035139
0.004544034820807851,0.7293191800878477
0.004549072553425154,0.7293191800878477
0.004549072553425154,0.7294106881405563
0.004574261216511673,0.7294106881405563
0.004574261216511673,0.7295021961932651
0.00458433668174628,0.7295021961932651
0.00458433668174628,0.7295937042459737
0.004594412146980887,0.7295937042459737
0.004594412146980887,0.7296852122986823
0.0045994498795981905,0.7296852122986823
0.0045994498795981905,0.7301427525622255
0.0046095253448327975,0.7301427525622255
0.0046095253448327975,0.7303257686676428
0.004624638542684708,0.7303257686676428
0.004624638542684708,0.7306002928257687
0.004629676275302012,0.7306002928257687
0.004629676275302012,0.7307833089311859
0.004639751740536619,0.7307833089311859
0.004639751740536619,0.7308748169838946
0.004649827205771226,0.7308748169838946
0.004649827205771226,0.7310578330893118
0.00465486493838853,0.7310578330893118
0.00465486493838853,0.7311493411420205
0.004680053601475048,0.7311493411420205
0.004680053601475048,0.7312408491947291
0.004685091334092352,0.7312408491947291
0.004685091334092352,0.7314238653001464
0.0046901290667096555,0.7314238653001464
0.0046901290667096555,0.7316068814055637
0.0046951667993269585,0.7316068814055637
0.0046951667993269585,0.7318814055636896
0.004720355462413477,0.7318814055636896
0.004720355462413477,0.7320644216691069
0.004735468660265388,0.7320644216691069
0.004735468660265388,0.7321559297218155
0.004740506392882691,0.7321559297218155
0.004740506392882691,0.7322474377745242
0.004745544125499995,0.7322474377745242
0.004745544125499995,0.732796486090776
0.004755619590734602,0.732796486090776
0.004755619590734602,0.7329795021961932
0.004760657323351906,0.7329795021961932
0.004760657323351906,0.7331625183016105
0.00476569505596921,0.7331625183016105
0.00476569505596921,0.7336200585651538
0.004770732788586513,0.7336200585651538
0.004770732788586513,0.733803074670571
0.004775770521203817,0.733803074670571
0.004775770521203817,0.7338945827232797
0.0047808082538211205,0.7338945827232797
0.0047808082538211205,0.7339860907759883
0.0047858459864384235,0.7339860907759883
0.0047858459864384235,0.7341691068814056
0.004790883719055727,0.7341691068814056
0.004790883719055727,0.7342606149341142
0.004831185579994156,0.7342606149341142
0.004831185579994156,0.7343521229868228
0.004841261045228764,0.7343521229868228
0.004841261045228764,0.7346266471449487
0.004846298777846067,0.7346266471449487
0.004846298777846067,0.734809663250366
0.004856374243080675,0.734809663250366
0.004856374243080675,0.7349926793557833
0.004861411975697978,0.7349926793557833
0.004861411975697978,0.7350841874084919
0.0048664497083152815,0.7350841874084919
0.0048664497083152815,0.7353587115666179
0.0048714874409325854,0.7353587115666179
0.0048714874409325854,0.7354502196193266
0.004886600638784496,0.7354502196193266
0.004886600638784496,0.7359077598828697
0.004896676104019103,0.7359077598828697
0.004896676104019103,0.736090775988287
0.004901713836636407,0.736090775988287
0.004901713836636407,0.7362737920937042
0.00490675156925371,0.7362737920937042
0.00490675156925371,0.7363653001464129
0.004911789301871014,0.7363653001464129
0.004911789301871014,0.7364568081991215
0.004926902499722925,0.7364568081991215
0.004926902499722925,0.7367313323572474
0.004931940232340228,0.7367313323572474
0.004931940232340228,0.7369143484626647
0.004936977964957532,0.7369143484626647
0.004936977964957532,0.7370058565153733
0.004947053430192139,0.7370058565153733
0.004947053430192139,0.737097364568082
0.004952091162809443,0.737097364568082
0.004952091162809443,0.7372803806734992
0.0049571288954267465,0.7372803806734992
0.0049571288954267465,0.7378294289897511
0.0049672043606613535,0.7378294289897511
0.0049672043606613535,0.7381954612005857
0.004972242093278657,0.7381954612005857
0.004972242093278657,0.7383784773060029
0.004982317558513264,0.7383784773060029
0.004982317558513264,0.7386530014641288
0.004992393023747871,0.7386530014641288
0.004992393023747871,0.7387445095168375
0.005002468488982479,0.7387445095168375
0.005002468488982479,0.7388360175695461
0.005007506221599782,0.7388360175695461
0.005007506221599782,0.7390190336749634
0.00501758168683439,0.7390190336749634
0.00501758168683439,0.739385065885798
0.005022619419451693,0.739385065885798
0.005022619419451693,0.7394765739385066
0.005027657152068997,0.7394765739385066
0.005027657152068997,0.7396595900439239
0.0050478080825382115,0.7396595900439239
0.0050478080825382115,0.7402086383601757
0.005057883547772818,0.7402086383601757
0.005057883547772818,0.7403001464128843
0.005067959013007425,0.7403001464128843
0.005067959013007425,0.7406661786237189
0.005072996745624729,0.7406661786237189
0.005072996745624729,0.7409407027818448
0.00508810994347664,0.7409407027818448
0.00508810994347664,0.7410322108345534
0.005093147676093944,0.7410322108345534
0.005093147676093944,0.7413067349926794
0.005098185408711247,0.7413067349926794
0.005098185408711247,0.741398243045388
0.005113298606563158,0.741398243045388
0.005113298606563158,0.7414897510980967
0.0051384872696496765,0.7414897510980967
0.0051384872696496765,0.7415812591508053
0.0051435250022669795,0.7415812591508053
0.0051435250022669795,0.7416727672035139
0.005148562734884283,0.7416727672035139
0.005148562734884283,0.7417642752562226
0.005153600467501587,0.7417642752562226
0.005153600467501587,0.7418557833089312
0.00515863820011889,0.7418557833089312
0.00515863820011889,0.7420387994143485
0.005163675932736194,0.7420387994143485
0.005163675932736194,0.7422218155197657
0.005178789130588105,0.7422218155197657
0.005178789130588105,0.7423133235724744
0.005183826863205408,0.7423133235724744
0.005183826863205408,0.7425878477306003
0.005188864595822712,0.7425878477306003
0.005188864595822712,0.7427708638360175
0.005193902328440016,0.7427708638360175
0.005193902328440016,0.7430453879941434
0.005198940061057319,0.7430453879941434
0.005198940061057319,0.7431368960468521
0.005209015526291927,0.7431368960468521
0.005209015526291927,0.7433199121522694
0.00521405325890923,0.7433199121522694
0.00521405325890923,0.7438689604685212
0.005219090991526534,0.7438689604685212
0.005219090991526534,0.7440519765739385
0.0052241287241438375,0.7440519765739385
0.0052241287241438375,0.7447840409956076
0.005239241921995748,0.7447840409956076
0.005239241921995748,0.7449670571010248
0.005244279654613051,0.7449670571010248
0.005244279654613051,0.7450585651537335
0.005249317387230355,0.7450585651537335
0.005249317387230355,0.7454245973645681
0.005254355119847659,0.7454245973645681
0.005254355119847659,0.7455161054172768
0.005259392852464962,0.7455161054172768
0.005259392852464962,0.7456076134699854
0.005274506050316873,0.7456076134699854
0.005274506050316873,0.745699121522694
0.005284581515551481,0.745699121522694
0.005284581515551481,0.7458821376281113
0.005294656980786088,0.7458821376281113
0.005294656980786088,0.7459736456808199
0.005299694713403392,0.7459736456808199
0.005299694713403392,0.7465226939970717
0.005304732446020695,0.7465226939970717
0.005304732446020695,0.7467972181551976
0.0053148079112553025,0.7467972181551976
0.0053148079112553025,0.7468887262079063
0.0053198456438726055,0.7468887262079063
0.0053198456438726055,0.7470717423133236
0.0053248833764899094,0.7470717423133236
0.0053248833764899094,0.7472547584187409
0.005329921109107213,0.7472547584187409
0.005329921109107213,0.7473462664714495
0.00533999657434182,0.7473462664714495
0.00533999657434182,0.7474377745241582
0.005345034306959124,0.7474377745241582
0.005345034306959124,0.7476207906295754
0.005350072039576427,0.7476207906295754
0.005350072039576427,0.7478038067349927
0.005355109772193731,0.7478038067349927
0.005355109772193731,0.7478953147877013
0.005365185237428338,0.7478953147877013
0.005365185237428338,0.7481698389458272
0.005370222970045642,0.7481698389458272
0.005370222970045642,0.7483528550512445
0.005380298435280249,0.7483528550512445
0.005380298435280249,0.7485358711566618
0.005390373900514857,0.7485358711566618
0.005390373900514857,0.7486273792093704
0.00539541163313216,0.7486273792093704
0.00539541163313216,0.7488103953147877
0.005400449365749464,0.7488103953147877
0.005400449365749464,0.7489934114202049
0.005415562563601374,0.7489934114202049
0.005415562563601374,0.7490849194729137
0.005420600296218678,0.7490849194729137
0.005420600296218678,0.7496339677891655
0.005430675761453285,0.7496339677891655
0.005430675761453285,0.7498169838945827
0.005445788959305196,0.7498169838945827
0.005445788959305196,0.7499084919472914
0.005460902157157107,0.7499084919472914
0.005460902157157107,0.75
0.005476015355009018,0.75
0.005476015355009018,0.7501830161054173
0.005481053087626321,0.7501830161054173
0.005481053087626321,0.7502745241581259
0.0055012040180955355,0.7502745241581259
0.0055012040180955355,0.7504575402635432
0.005506241750712839,0.7504575402635432
0.005506241750712839,0.7505490483162518
0.005516317215947446,0.7505490483162518
0.005516317215947446,0.7509150805270863
0.005526392681182053,0.7509150805270863
0.005526392681182053,0.7510065885797951
0.005531430413799357,0.7510065885797951
0.005531430413799357,0.7510980966325037
0.005546543611651268,0.7510980966325037
0.005546543611651268,0.7511896046852123
0.005551581344268572,0.7511896046852123
0.005551581344268572,0.7513726207906296
0.005556619076885875,0.7513726207906296
0.005556619076885875,0.7514641288433382
0.005566694542120483,0.7514641288433382
0.005566694542120483,0.7516471449487555
0.0055818077399723935,0.7516471449487555
0.0055818077399723935,0.7519216691068814
0.005601958670441607,0.7519216691068814
0.005601958670441607,0.7521046852122987
0.005622109600910822,0.7521046852122987
0.005622109600910822,0.7521961932650073
0.005627147333528126,0.7521961932650073
0.005627147333528126,0.7522877013177159
0.005642260531380037,0.7522877013177159
0.005642260531380037,0.7523792093704246
0.005667449194466555,0.7523792093704246
0.005667449194466555,0.7524707174231332
0.0056775246597011615,0.7524707174231332
0.0056775246597011615,0.7526537335285505
0.005682562392318465,0.7526537335285505
0.005682562392318465,0.7532027818448024
0.005692637857553072,0.7532027818448024
0.005692637857553072,0.753294289897511
0.005697675590170376,0.753294289897511
0.005697675590170376,0.7533857979502196
0.00570271332278768,0.7533857979502196
0.00570271332278768,0.7534773060029283
0.005707751055404983,0.7534773060029283
0.005707751055404983,0.7536603221083455
0.00571782652063959,0.7536603221083455
0.00571782652063959,0.7537518301610542
0.005722864253256894,0.7537518301610542
0.005722864253256894,0.7539348462664714
0.005727901985874198,0.7539348462664714
0.005727901985874198,0.7540263543191801
0.005743015183726109,0.7540263543191801
0.005743015183726109,0.7546669106881405
0.005753090648960716,0.7546669106881405
0.005753090648960716,0.7550329428989752
0.005788354777281841,0.7550329428989752
0.005788354777281841,0.7552159590043924
0.005793392509899144,0.7552159590043924
0.005793392509899144,0.755581991215227
0.005798430242516448,0.755581991215227
0.005798430242516448,0.7557650073206442
0.005803467975133752,0.7557650073206442
0.005803467975133752,0.7559480234260615
0.005808505707751055,0.7559480234260615
0.005808505707751055,0.7561310395314788
0.00582865663822027,0.7561310395314788
0.00582865663822027,0.7562225475841874
0.005833694370837574,0.7562225475841874
0.005833694370837574,0.756314055636896
0.0058488075686894845,0.756314055636896
0.0058488075686894845,0.7565885797950219
0.0058538453013067876,0.7565885797950219
0.0058538453013067876,0.7569546120058566
0.005863920766541395,0.7569546120058566
0.005863920766541395,0.7571376281112738
0.005894147162245217,0.7571376281112738
0.005894147162245217,0.7572291361639825
0.00589918489486252,0.7572291361639825
0.00589918489486252,0.7573206442166911
0.005904222627479824,0.7573206442166911
0.005904222627479824,0.7574121522693997
0.005909260360097128,0.7574121522693997
0.005909260360097128,0.7577781844802343
0.005929411290566342,0.7577781844802343
0.005929411290566342,0.7580527086383602
0.00595459995365286,0.7580527086383602
0.00595459995365286,0.7582357247437774
0.005959637686270163,0.7582357247437774
0.005959637686270163,0.7583272327964861
0.005974750884122074,0.7583272327964861
0.005974750884122074,0.7585102489019033
0.005984826349356681,0.7585102489019033
0.005984826349356681,0.7586932650073206
0.006004977279825896,0.7586932650073206
0.006004977279825896,0.758876281112738
0.006030165942912414,0.758876281112738
0.006030165942912414,0.7593338213762811
0.006050316873381628,0.7593338213762811
0.006050316873381628,0.7598828696925329
0.006075505536468146,0.7598828696925329
0.006075505536468146,0.7599743777452416
0.006085581001702754,0.7599743777452416
0.006085581001702754,0.7600658857979502
0.006090618734320057,0.7600658857979502
0.006090618734320057,0.7601573938506588
0.006095656466937361,0.7601573938506588
0.006095656466937361,0.7602489019033675
0.006100694199554665,0.7602489019033675
0.006100694199554665,0.7603404099560761
0.006105731932171968,0.7603404099560761
0.006105731932171968,0.7604319180087847
0.0061258828626411825,0.7604319180087847
0.0061258828626411825,0.7605234260614934
0.006135958327875789,0.7605234260614934
0.006135958327875789,0.760614934114202
0.006146033793110397,0.760614934114202
0.006146033793110397,0.7607064421669106
0.006161146990962308,0.7607064421669106
0.006161146990962308,0.7607979502196194
0.006166184723579611,0.7607979502196194
0.006166184723579611,0.760889458272328
0.006181297921431522,0.760889458272328
0.006181297921431522,0.7609809663250366
0.0062115243171353435,0.7609809663250366
0.0062115243171353435,0.7611639824304539
0.006236712980221862,0.7611639824304539
0.006236712980221862,0.7612554904831625
0.006241750712839165,0.7613469985358712
0.006256863910691076,0.7613469985358712
0.006256863910691076,0.7614385065885798
0.006266939375925683,0.7614385065885798
0.006266939375925683,0.7617130307467057
0.006287090306394898,0.7617130307467057
0.006287090306394898,0.7618045387994143
0.006297165771629505,0.7618045387994143
0.006297165771629505,0.761896046852123
0.0063022035042468085,0.761896046852123
0.0063022035042468085,0.7619875549048316
0.006307241236864112,0.7619875549048316
0.006307241236864112,0.7620790629575402
0.0063122789694814154,0.7620790629575402
0.0063122789694814154,0.7621705710102489
0.006337467632567934,0.7621705710102489
0.006337467632567934,0.7624450951683748
0.006342505365185237,0.7624450951683748
0.006342505365185237,0.7628111273792094
0.006347543097802541,0.7628111273792094
0.006347543097802541,0.762902635431918
0.006352580830419845,0.762902635431918
0.006352580830419845,0.7629941434846267
0.006357618563037148,0.7629941434846267
0.006357618563037148,0.7630856515373353
0.006362656295654452,0.7630856515373353
0.006362656295654452,0.7632686676427526
0.006367694028271756,0.7632686676427526
0.006367694028271756,0.7637262079062958
0.006372731760889059,0.7637262079062958
0.006372731760889059,0.763909224011713
0.006377769493506363,0.763909224011713
0.006377769493506363,0.7640007320644217
0.0063828072261236666,0.7640007320644217
0.0063828072261236666,0.7640922401171303
0.00638784495874097,0.7640922401171303
0.00638784495874097,0.7642752562225475
0.006407995889210184,0.7642752562225475
0.006407995889210184,0.7645497803806734
0.006413033621827488,0.7645497803806734
0.006413033621827488,0.7648243045387995
0.006418071354444791,0.7648243045387995
0.006418071354444791,0.7649158125915081
0.006428146819679399,0.7649158125915081
0.006428146819679399,0.7650073206442167
0.006438222284914006,0.7650073206442167
0.006438222284914006,0.765190336749634
0.00644326001753131,0.765190336749634
0.00644326001753131,0.7653733528550513
0.006448297750148613,0.7653733528550513
0.006448297750148613,0.7654648609077599
0.006458373215383221,0.7654648609077599
0.006458373215383221,0.7656478770131772
0.006463410948000524,0.7656478770131772
0.006463410948000524,0.7659224011713031
0.006468448680617828,0.7659224011713031
0.006468448680617828,0.7661054172767203
0.0064734864132351315,0.7661054172767203
0.0064734864132351315,0.766196925329429
0.0064785241458524346,0.766196925329429
0.0064785241458524346,0.7662884333821376
0.006493637343704345,0.7662884333821376
0.006493637343704345,0.7664714494875549
0.006503712808938953,0.7664714494875549
0.006503712808938953,0.7666544655929722
0.006508750541556256,0.7666544655929722
0.006508750541556256,0.7669289897510981
0.006518826006790863,0.7669289897510981
0.006518826006790863,0.7670204978038068
0.006538976937260078,0.7670204978038068
0.006538976937260078,0.7672950219619327
0.006544014669877382,0.7672950219619327
0.006544014669877382,0.7673865300146413
0.006549052402494685,0.7673865300146413
0.006549052402494685,0.7676610541727672
0.006559127867729293,0.7676610541727672
0.006559127867729293,0.7677525622254758
0.0065692033329638995,0.7677525622254758
0.0065692033329638995,0.7678440702781845
0.006574241065581203,0.7678440702781845
0.006574241065581203,0.7679355783308931
0.006589354263433114,0.7679355783308931
0.006589354263433114,0.768210102489019
0.006594391996050417,0.768210102489019
0.006594391996050417,0.7683016105417276
0.006609505193902328,0.7683016105417276
0.006609505193902328,0.7685761346998536
0.006619580659136936,0.7685761346998536
0.006619580659136936,0.7686676427525623
0.006624618391754239,0.7686676427525623
0.006624618391754239,0.7687591508052709
0.006629656124371543,0.7687591508052709
0.006629656124371543,0.7688506588579795
0.006634693856988847,0.7688506588579795
0.006634693856988847,0.7689421669106882
0.00663973158960615,0.7689421669106882
0.00663973158960615,0.7693997071742313
0.006644769322223454,0.7693997071742313
0.006644769322223454,0.7696742313323572
0.006649807054840758,0.7696742313323572
0.006649807054840758,0.7701317715959004
0.006654844787458061,0.7701317715959004
0.006654844787458061,0.770223279648609
0.006664920252692668,0.770223279648609
0.006664920252692668,0.7705893118594437
0.006680033450544579,0.7705893118594437
0.006680033450544579,0.7709553440702782
0.006690108915779186,0.7709553440702782
0.006690108915779186,0.7711383601756955
0.00669514664839649,0.7711383601756955
0.00669514664839649,0.7712298682284041
0.006700184381013793,0.7712298682284041
0.006700184381013793,0.7713213762811127
0.006705222113631097,0.7713213762811127
0.006705222113631097,0.7714128843338214
0.006710259846248401,0.7714128843338214
0.006710259846248401,0.77150439238653
0.0067404862419522225,0.77150439238653
0.0067404862419522225,0.7715959004392386
0.006760637172421436,0.7715959004392386
0.006760637172421436,0.7716874084919473
0.006775750370273347,0.7716874084919473
0.006775750370273347,0.7717789165446559
0.006780788102890651,0.7717789165446559
0.006780788102890651,0.7720534407027818
0.006785825835507954,0.7720534407027818
0.006785825835507954,0.7725109809663251
0.006790863568125258,0.7725109809663251
0.006790863568125258,0.7726024890190337
0.006800939033359865,0.7726024890190337
0.006800939033359865,0.772785505124451
0.006826127696446384,0.772785505124451
0.006826127696446384,0.7728770131771596
0.0068462786269155975,0.7728770131771596
0.0068462786269155975,0.7732430453879942
0.006861391824767508,0.7732430453879942
0.006861391824767508,0.7733345534407028
0.006871467290002116,0.7733345534407028
0.006871467290002116,0.7734260614934114
0.006876505022619419,0.7734260614934114
0.006876505022619419,0.7736090775988287
0.006886580487854027,0.7736090775988287
0.006886580487854027,0.7737005856515373
0.00689161822047133,0.7737005856515373
0.00689161822047133,0.773792093704246
0.006896655953088634,0.773792093704246
0.006896655953088634,0.7744326500732065
0.006901693685705938,0.7744326500732065
0.006901693685705938,0.7746156661786238
0.006906731418323241,0.7746156661786238
0.006906731418323241,0.7747071742313324
0.006911769150940545,0.7747071742313324
0.006911769150940545,0.774798682284041
0.006921844616175152,0.774798682284041
0.006921844616175152,0.7748901903367497
0.006931920081409759,0.7748901903367497
0.006931920081409759,0.7751647144948756
0.0069369578140270624,0.7751647144948756
0.0069369578140270624,0.7752562225475842
0.006941995546644366,0.7752562225475842
0.006941995546644366,0.7753477306002928
0.00694703327926167,0.7753477306002928
0.00694703327926167,0.7756222547584187
0.006967184209730884,0.7756222547584187
0.006967184209730884,0.7757137628111274
0.006972221942348188,0.7757137628111274
0.006972221942348188,0.775805270863836
0.006992372872817403,0.775805270863836
0.006992372872817403,0.7758967789165446
0.006997410605434706,0.7758967789165446
0.006997410605434706,0.7762628111273792
0.0070074860706693136,0.7762628111273792
0.0070074860706693136,0.7764458272327965
0.007022599268521224,0.7764458272327965
0.007022599268521224,0.7768118594436311
0.007032674733755831,0.7768118594436311
0.007032674733755831,0.7769948755490483
0.007037712466373135,0.7769948755490483
0.007037712466373135,0.777086383601757
0.007057863396842349,0.777086383601757
0.007057863396842349,0.7771778916544656
0.007067938862076956,0.7771778916544656
0.007067938862076956,0.7773609077598829
0.007083052059928867,0.7773609077598829
0.007083052059928867,0.7776354319180088
0.007098165257780778,0.7776354319180088
0.007098165257780778,0.777818448023426
0.0071082407230153855,0.777818448023426
0.0071082407230153855,0.7779099560761347
0.0071132784556326885,0.7779099560761347
0.0071132784556326885,0.7780929721815519
0.007128391653484599,0.7780929721815519
0.007128391653484599,0.7784590043923866
0.007133429386101903,0.7784590043923866
0.007133429386101903,0.7785505124450952
0.00714350485133651,0.7785505124450952
0.00714350485133651,0.7786420204978038
0.007153580316571118,0.7786420204978038
0.007153580316571118,0.7791910688140556
0.007173731247040332,0.7791910688140556
0.007173731247040332,0.7792825768667643
0.0071938821775095465,0.7792825768667643
0.0071938821775095465,0.7797401171303074
0.00719891991012685,0.7797401171303074
0.00719891991012685,0.7798316251830161
0.007208995375361457,0.7798316251830161
0.007208995375361457,0.7800146412884333
0.007219070840596064,0.7800146412884333
0.007219070840596064,0.780106149341142
0.007224108573213368,0.780106149341142
0.007224108573213368,0.7801976573938506
0.007229146305830672,0.7801976573938506
0.007229146305830672,0.780380673499268
0.007244259503682583,0.780380673499268
0.007244259503682583,0.7807467057101025
0.007249297236299886,0.7807467057101025
0.007249297236299886,0.7808382137628112
0.007274485899386405,0.7808382137628112
0.007274485899386405,0.7810212298682284
0.0072845613646210115,0.7810212298682284
0.0072845613646210115,0.781112737920937
0.007294636829855618,0.781112737920937
0.007294636829855618,0.7812957540263543
0.007329900958176744,0.7812957540263543
0.007329900958176744,0.7814787701317716
0.007334938690794047,0.7814787701317716
0.007334938690794047,0.7815702781844802
0.007339976423411351,0.7815702781844802
0.007339976423411351,0.7816617862371888
0.007360127353880566,0.7816617862371888
0.007360127353880566,0.7818448023426061
0.0073752405517324765,0.7818448023426061
0.0073752405517324765,0.7819363103953147
0.007385316016967083,0.7819363103953147
0.007385316016967083,0.7820278184480234
0.007390353749584387,0.7820278184480234
0.007390353749584387,0.782119326500732
0.007450806540992031,0.782119326500732
0.007450806540992031,0.782393850658858
0.007455844273609334,0.782393850658858
0.007455844273609334,0.7828513909224012
0.0074659197388439414,0.7828513909224012
0.0074659197388439414,0.7830344070278185
0.007501183867165066,0.7830344070278185
0.007501183867165066,0.7833089311859444
0.007511259332399674,0.7833089311859444
0.007511259332399674,0.7834919472913616
0.007516297065016977,0.7834919472913616
0.007516297065016977,0.7835834553440703
0.007526372530251585,0.7835834553440703
0.007526372530251585,0.7836749633967789
0.007536447995486192,0.7836749633967789
0.007536447995486192,0.7838579795021962
0.007556598925955406,0.7838579795021962
0.007556598925955406,0.7839494875549048
0.0075616366585727094,0.7839494875549048
0.0075616366585727094,0.7841325036603221
0.007566674391190013,0.7841325036603221
0.007566674391190013,0.7844070278184481
0.00757674985642462,0.7844070278184481
0.00757674985642462,0.7844985358711567
0.007586825321659227,0.7844985358711567
0.007586825321659227,0.784681551976574
0.007591863054276531,0.784681551976574
0.007591863054276531,0.7847730600292826
0.007596900786893835,0.7847730600292826
0.007596900786893835,0.7848645680819912
0.007606976252128442,0.7848645680819912
0.007606976252128442,0.7849560761346999
0.007617051717363049,0.7849560761346999
0.007617051717363049,0.7850475841874085
0.007622089449980353,0.7850475841874085
0.007622089449980353,0.7852306002928258
0.007637202647832264,0.7852306002928258
0.007637202647832264,0.7853221083455344
0.0076422403804495675,0.7853221083455344
0.0076422403804495675,0.7855051244509517
0.007677504508770692,0.7855051244509517
0.007677504508770692,0.7856881405563689
0.007692617706622603,0.7856881405563689
0.007692617706622603,0.7857796486090776
0.007697655439239907,0.7857796486090776
0.007697655439239907,0.7860541727672035
0.007712768637091818,0.7860541727672035
0.007712768637091818,0.7861456808199122
0.007722844102326425,0.7861456808199122
0.007722844102326425,0.7865117130307467
0.0077278818349437286,0.7865117130307467
0.0077278818349437286,0.786694729136164
0.0077329195675610325,0.786694729136164
0.0077329195675610325,0.7867862371888726
0.0077379573001783355,0.7867862371888726
0.0077379573001783355,0.7868777452415813
0.007742995032795639,0.7868777452415813
0.007742995032795639,0.7869692532942899
0.00775810823064755,0.7869692532942899
0.00775810823064755,0.7870607613469985
0.007763145963264854,0.7870607613469985
0.007763145963264854,0.7871522693997072
0.007778259161116765,0.7871522693997072
0.007778259161116765,0.7872437774524158
0.007798410091585979,0.7872437774524158
0.007798410091585979,0.7873352855051244
0.007803447824203283,0.7873352855051244
0.007803447824203283,0.7874267935578331
0.007818561022055193,0.7874267935578331
0.007818561022055193,0.7876098096632503
0.007823598754672497,0.7876098096632503
0.007823598754672497,0.7880673499267935
0.0078286364872898,0.7880673499267935
0.0078286364872898,0.7881588579795022
0.007833674219907103,0.7881588579795022
0.007833674219907103,0.7882503660322109
0.007838711952524408,0.7882503660322109
0.007838711952524408,0.7884333821376281
0.007843749685141711,0.7884333821376281
0.007843749685141711,0.7886163982430454
0.007848787417759014,0.7886163982430454
0.007848787417759014,0.7887994143484627
0.00786893834822823,0.7887994143484627
0.00786893834822823,0.7888909224011713
0.007873976080845533,0.7888909224011713
0.007873976080845533,0.78898243045388
0.00788405154608014,0.78898243045388
0.00788405154608014,0.7890739385065886
0.007889089278697444,0.7890739385065886
0.007889089278697444,0.7891654465592972
0.007899164743932052,0.7891654465592972
0.007899164743932052,0.7892569546120058
0.007904202476549355,0.7892569546120058
0.007904202476549355,0.7894399707174231
0.007909240209166658,0.7894399707174231
0.007909240209166658,0.7895314787701317
0.007914277941783962,0.7895314787701317
0.007914277941783962,0.789714494875549
0.00793946660487048,0.789714494875549
0.00793946660487048,0.7898975109809663
0.007964655267956998,0.7898975109809663
0.007964655267956998,0.7899890190336749
0.007969693000574301,0.7899890190336749
0.007969693000574301,0.7900805270863837
0.007979768465808909,0.7900805270863837
0.007979768465808909,0.7903550512445096
0.007989843931043517,0.7903550512445096
0.007989843931043517,0.7906295754026355
0.008004957128895427,0.7906295754026355
0.008004957128895427,0.7909040995607614
0.00800999486151273,0.7909040995607614
0.00800999486151273,0.79099560761347
0.008015032594130033,0.79099560761347
0.008015032594130033,0.7912701317715959
0.008025108059364641,0.7912701317715959
0.008025108059364641,0.7913616398243045
0.008035183524599249,0.7913616398243045
0.008035183524599249,0.7918191800878477
0.00805029672245116,0.7918191800878477
0.00805029672245116,0.7919106881405563
0.008055334455068463,0.7919106881405563
0.008055334455068463,0.7921852122986823
0.008090598583389588,0.7921852122986823
0.008090598583389588,0.792276720351391
0.008095636316006892,0.792276720351391
0.008095636316006892,0.7923682284040996
0.008105711781241498,0.7923682284040996
0.008105711781241498,0.7925512445095169
0.008130900444328017,0.7925512445095169
0.008130900444328017,0.7926427525622255
0.008156089107414536,0.7926427525622255
0.008156089107414536,0.7927342606149341
0.00817624003788375,0.7927342606149341
0.00817624003788375,0.7931002928257687
0.008216541898822179,0.7931002928257687
0.008216541898822179,0.7932833089311859
0.008241730561908696,0.7932833089311859
0.008241730561908696,0.7934663250366032
0.008246768294525999,0.7934663250366032
0.008246768294525999,0.7935578330893118
0.008251806027143304,0.7935578330893118
0.008251806027143304,0.7936493411420205
0.008256843759760607,0.7936493411420205
0.008256843759760607,0.7938323572474377
0.00826188149237791,0.7938323572474377
0.00826188149237791,0.7939238653001464
0.008266919224995214,0.7939238653001464
0.008266919224995214,0.7940153733528551
0.00830218335331634,0.7940153733528551
0.00830218335331634,0.7941068814055637
0.008307221085933642,0.7941068814055637
0.008307221085933642,0.794289897510981
0.00831729655116825,0.794289897510981
0.00831729655116825,0.7943814055636896
0.008322334283785553,0.7943814055636896
0.008322334283785553,0.7944729136163983
0.008327372016402858,0.7944729136163983
0.008327372016402858,0.7945644216691069
0.00833240974902016,0.7945644216691069
0.00833240974902016,0.7952049780380673
0.008337447481637464,0.7952049780380673
0.008337447481637464,0.795296486090776
0.008342485214254769,0.795296486090776
0.008342485214254769,0.7953879941434846
0.008347522946872072,0.7953879941434846
0.008347522946872072,0.7954795021961932
0.008362636144723982,0.7954795021961932
0.008362636144723982,0.7956625183016105
0.008377749342575893,0.7956625183016105
0.008377749342575893,0.7957540263543191
0.008392862540427804,0.7957540263543191
0.008392862540427804,0.7962115666178624
0.008402938005662412,0.7962115666178624
0.008402938005662412,0.7964860907759883
0.008407975738279715,0.7964860907759883
0.008407975738279715,0.7967606149341142
0.008413013470897018,0.7967606149341142
0.008413013470897018,0.7968521229868228
0.00844323986660084,0.7968521229868228
0.00844323986660084,0.7971266471449487
0.008453315331835447,0.7971266471449487
0.008453315331835447,0.7972181551976574
0.008463390797070055,0.7972181551976574
0.008463390797070055,0.797309663250366
0.008468428529687358,0.797309663250366
0.008468428529687358,0.7974011713030746
0.008483541727539269,0.7974011713030746
0.008483541727539269,0.7975841874084919
0.008488579460156572,0.7975841874084919
0.008488579460156572,0.7979502196193266
0.008493617192773877,0.7979502196193266
0.008493617192773877,0.7981332357247438
0.00849865492539118,0.7981332357247438
0.00849865492539118,0.7982247437774525
0.008503692658008483,0.7982247437774525
0.008503692658008483,0.7984992679355783
0.008508730390625788,0.7984992679355783
0.008508730390625788,0.798590775988287
0.00851376812324309,0.798590775988287
0.00851376812324309,0.7986822840409956
0.008523843588477699,0.7986822840409956
0.008523843588477699,0.7987737920937042
0.008533919053712305,0.7987737920937042
0.008533919053712305,0.7990483162518301
0.00853895678632961,0.7990483162518301
0.00853895678632961,0.7991398243045388
0.008543994518946912,0.7991398243045388
0.008543994518946912,0.7992313323572474
0.00855406998418152,0.7992313323572474
0.00855406998418152,0.799322840409956
0.008559107716798823,0.799322840409956
0.008559107716798823,0.7994143484626647
0.008564145449416126,0.7994143484626647
0.008564145449416126,0.799871888726208
0.008574220914650734,0.799871888726208
0.008574220914650734,0.8000549048316252
0.008584296379885342,0.8000549048316252
0.008584296379885342,0.8001464128843339
0.008589334112502645,0.8001464128843339
0.008589334112502645,0.8003294289897511
0.008594371845119948,0.8003294289897511
0.008594371845119948,0.8004209370424598
0.008599409577737253,0.8004209370424598
0.008599409577737253,0.800603953147877
0.008609485042971859,0.800603953147877
0.008609485042971859,0.8008784773060029
0.008659862369144896,0.8008784773060029
0.008659862369144896,0.8009699853587116
0.008690088764848718,0.8009699853587116
0.008690088764848718,0.8010614934114202
0.008705201962700629,0.8010614934114202
0.008705201962700629,0.8011530014641288
0.008745503823639056,0.8011530014641288
0.008745503823639056,0.8013360175695461
0.008755579288873664,0.8013360175695461
0.008755579288873664,0.8014275256222547
0.008765654754108272,0.8014275256222547
0.008765654754108272,0.8015190336749634
0.008780767951960181,0.8015190336749634
0.008780767951960181,0.801610541727672
0.008785805684577486,0.801610541727672
0.008785805684577486,0.8017020497803806
0.008795881149812092,0.8017020497803806
0.008795881149812092,0.8017935578330894
0.008800918882429397,0.8017935578330894
0.008800918882429397,0.801885065885798
0.008810994347664003,0.801885065885798
0.008810994347664003,0.8019765739385066
0.00882106981289861,0.8019765739385066
0.00882106981289861,0.8021595900439239
0.008846258475985129,0.8021595900439239
0.008846258475985129,0.8022510980966325
0.008881522604306254,0.8022510980966325
0.008881522604306254,0.8023426061493412
0.008891598069540861,0.8023426061493412
0.008891598069540861,0.8026171303074671
0.008911749000010075,0.8026171303074671
0.008911749000010075,0.802891654465593
0.008941975395713897,0.802891654465593
0.008941975395713897,0.8038067349926794
0.0089470131283312,0.8038067349926794
0.0089470131283312,0.8040812591508053
0.008967164058800416,0.8040812591508053
0.008967164058800416,0.8043557833089312
0.008982277256652326,0.8043557833089312
0.008982277256652326,0.8044472913616398
0.00898731498926963,0.8044472913616398
0.00898731498926963,0.8045387994143485
0.009007465919738843,0.8045387994143485
0.009007465919738843,0.8046303074670571
0.009012503652356148,0.8046303074670571
0.009012503652356148,0.8047218155197657
0.009017541384973451,0.8047218155197657
0.009017541384973451,0.8048133235724744
0.009022579117590754,0.8048133235724744
0.009022579117590754,0.804904831625183
0.009037692315442665,0.804904831625183
0.009037692315442665,0.8049963396778916
0.00904273004805997,0.8049963396778916
0.00904273004805997,0.8050878477306003
0.009062880978529184,0.8050878477306003
0.009062880978529184,0.8051793557833089
0.009077994176381094,0.8051793557833089
0.009077994176381094,0.8052708638360175
0.009098145106850308,0.8052708638360175
0.009098145106850308,0.8054538799414348
0.009103182839467613,0.8054538799414348
0.009103182839467613,0.8056368960468521
0.009133409235171435,0.8056368960468521
0.009133409235171435,0.8058199121522694
0.00914348470040604,0.8058199121522694
0.00914348470040604,0.8060029282576867
0.009158597898257952,0.8060029282576867
0.009158597898257952,0.8060944363103953
0.009163635630875256,0.8060944363103953
0.009163635630875256,0.806185944363104
0.009173711096109862,0.806185944363104
0.009173711096109862,0.8062774524158126
0.00918378656134447,0.8062774524158126
0.00918378656134447,0.8064604685212299
0.009193862026579078,0.8064604685212299
0.009193862026579078,0.8066434846266471
0.009208975224430989,0.8066434846266471
0.009208975224430989,0.8067349926793558
0.009214012957048292,0.8067349926793558
0.009214012957048292,0.806918008784773
0.0092240884222829,0.806918008784773
0.0092240884222829,0.8070095168374817
0.009234163887517506,0.8070095168374817
0.009234163887517506,0.8071010248901903
0.009264390283221327,0.8071010248901903
0.009264390283221327,0.8071925329428989
0.009269428015838632,0.8071925329428989
0.009269428015838632,0.8072840409956076
0.009274465748455935,0.8072840409956076
0.009274465748455935,0.8073755490483162
0.009279503481073238,0.8073755490483162
0.009279503481073238,0.8075585651537335
0.009294616678925149,0.8075585651537335
0.009294616678925149,0.8077415812591509
0.00930972987677706,0.8077415812591509
0.00930972987677706,0.8078330893118595
0.009314767609394363,0.8078330893118595
0.009314767609394363,0.8079245973645681
0.009319805342011668,0.8079245973645681
0.009319805342011668,0.8080161054172768
0.00932484307462897,0.8080161054172768
0.00932484307462897,0.8081076134699854
0.009339956272480882,0.8081076134699854
0.009339956272480882,0.8084736456808199
0.00935003173771549,0.8084736456808199
0.00935003173771549,0.8086566617862372
0.009360107202950095,0.8086566617862372
0.009360107202950095,0.8087481698389458
0.0093651449355674,0.8087481698389458
0.0093651449355674,0.8089311859443631
0.009370182668184703,0.8089311859443631
0.009370182668184703,0.8090226939970717
0.009395371331271222,0.8090226939970717
0.009395371331271222,0.8091142020497804
0.009415522261740436,0.8091142020497804
0.009415522261740436,0.8092972181551976
0.009425597726975043,0.8092972181551976
0.009425597726975043,0.8094802342606149
0.009430635459592347,0.8094802342606149
0.009430635459592347,0.8096632503660323
0.00943567319220965,0.8096632503660323
0.00943567319220965,0.8097547584187409
0.009440710924826954,0.8097547584187409
0.009440710924826954,0.8098462664714495
0.009455824122678865,0.8098462664714495
0.009455824122678865,0.8101207906295754
0.009460861855296168,0.8101207906295754
0.009460861855296168,0.8103038067349927
0.009475975053148079,0.8103038067349927
0.009475975053148079,0.8103953147877013
0.009486050518382687,0.8103953147877013
0.009486050518382687,0.8105783308931186
0.009496125983617293,0.8105783308931186
0.009496125983617293,0.8106698389458272
0.009501163716234598,0.8106698389458272
0.009501163716234598,0.8107613469985359
0.0095062014488519,0.8107613469985359
0.0095062014488519,0.8108528550512445
0.009541465577173025,0.8108528550512445
0.009541465577173025,0.8111273792093704
0.009576729705494152,0.8111273792093704
0.009576729705494152,0.8113103953147877
0.009601918368580669,0.8113103953147877
0.009601918368580669,0.8114019033674963
0.009611993833815276,0.8114019033674963
0.009611993833815276,0.8114934114202049
0.00961703156643258,0.8114934114202049
0.00961703156643258,0.8116764275256223
0.009677484357840223,0.8116764275256223
0.009677484357840223,0.8117679355783309
0.009697635288309438,0.8117679355783309
0.009697635288309438,0.8118594436310396
0.009707710753544044,0.8118594436310396
0.009707710753544044,0.8121339677891655
0.009722823951395955,0.8121339677891655
0.009722823951395955,0.8122254758418741
0.009732899416630563,0.8122254758418741
0.009732899416630563,0.8123169838945827
0.009742974881865171,0.8123169838945827
0.009742974881865171,0.8124084919472914
0.009748012614482474,0.8124084919472914
0.009748012614482474,0.8125
0.009763125812334385,0.8125
0.009763125812334385,0.8125915080527086
0.009768163544951688,0.8125915080527086
0.009768163544951688,0.8126830161054173
0.009783276742803599,0.8126830161054173
0.009783276742803599,0.8128660322108345
0.009793352208038206,0.8128660322108345
0.009793352208038206,0.8131405563689604
0.00981350313850742,0.8131405563689604
0.00981350313850742,0.8132320644216691
0.009828616336359331,0.8132320644216691
0.009828616336359331,0.8133235724743777
0.009838691801593939,0.8133235724743777
0.009838691801593939,0.8134150805270863
0.009843729534211242,0.8134150805270863
0.009843729534211242,0.8135065885797951
0.009848767266828545,0.8135065885797951
0.009848767266828545,0.8135980966325037
0.00986891819729776,0.8135980966325037
0.00986891819729776,0.813781112737921
0.009884031395149671,0.813781112737921
0.009884031395149671,0.8138726207906296
0.009899144593001582,0.8138726207906296
0.009899144593001582,0.8140556368960469
0.009914257790853493,0.8140556368960469
0.009914257790853493,0.8142386530014641
0.009919295523470796,0.8142386530014641
0.009919295523470796,0.8144216691068814
0.009934408721322707,0.8144216691068814
0.009934408721322707,0.8146046852122987
0.009949521919174618,0.8146046852122987
0.009949521919174618,0.8146961932650073
0.009964635117026529,0.8146961932650073
0.009964635117026529,0.8148792093704246
0.00997974831487844,0.8148792093704246
0.00997974831487844,0.8149707174231332
0.00999486151273035,0.8149707174231332
0.00999486151273035,0.8150622254758418
0.010009974710582261,0.8150622254758418
0.010009974710582261,0.8151537335285505
0.010020050175816869,0.8151537335285505
0.010020050175816869,0.8153367496339677
0.01003516337366878,0.8153367496339677
0.01003516337366878,0.8154282576866764
0.01005027657152069,0.8154282576866764
0.01005027657152069,0.8155197657393851
0.010055314304137994,0.8155197657393851
0.010055314304137994,0.8157027818448024
0.010070427501989904,0.8157027818448024
0.010070427501989904,0.8158857979502196
0.010085540699841815,0.8158857979502196
0.010085540699841815,0.8160688140556369
0.010095616165076423,0.8160688140556369
0.010095616165076423,0.8161603221083455
0.010115767095545637,0.8161603221083455
0.010115767095545637,0.8163433382137628
0.010125842560780245,0.8163433382137628
0.010125842560780245,0.8165263543191801
0.010130880293397548,0.8165263543191801
0.010130880293397548,0.8166178623718887
0.010145993491249458,0.8166178623718887
0.010145993491249458,0.8167093704245973
0.010151031223866762,0.8167093704245973
0.010151031223866762,0.816800878477306
0.01016110668910137,0.816800878477306
0.01016110668910137,0.8168923865300146
0.010171182154335977,0.8168923865300146
0.010171182154335977,0.8169838945827232
0.010186295352187888,0.8169838945827232
0.010186295352187888,0.8170754026354319
0.010191333084805191,0.8170754026354319
0.010191333084805191,0.8171669106881405
0.010196370817422494,0.8171669106881405
0.010196370817422494,0.8172584187408491
0.010211484015274405,0.8172584187408491
0.010211484015274405,0.8173499267935578
0.01021652174789171,0.8173499267935578
0.01021652174789171,0.8174414348462665
0.010221559480509013,0.8174414348462665
0.010221559480509013,0.8175329428989752
0.010226597213126316,0.8175329428989752
0.010226597213126316,0.8176244509516838
0.010241710410978227,0.8176244509516838
0.010241710410978227,0.8177159590043924
0.010246748143595531,0.8177159590043924
0.010246748143595531,0.8178074670571011
0.010256823608830137,0.8178074670571011
0.010256823608830137,0.8178989751098097
0.010276974539299353,0.8178989751098097
0.010276974539299353,0.8179904831625183
0.01030216320238587,0.8179904831625183
0.01030216320238587,0.8181734992679356
0.010307200935003175,0.8181734992679356
0.010307200935003175,0.8185395314787701
0.010347502795941602,0.8185395314787701
0.010347502795941602,0.8187225475841874
0.010352540528558907,0.8187225475841874
0.010352540528558907,0.818814055636896
0.010372691459028121,0.818814055636896
0.010372691459028121,0.8189055636896047
0.010377729191645424,0.8189055636896047
0.010377729191645424,0.8189970717423133
0.010387804656880032,0.8189970717423133
0.010387804656880032,0.8190885797950219
0.010407955587349246,0.8190885797950219
0.010407955587349246,0.8191800878477306
0.010418031052583853,0.8191800878477306
0.010418031052583853,0.8192715959004392
0.010423068785201156,0.8192715959004392
0.010423068785201156,0.8193631039531479
0.010438181983053067,0.8193631039531479
0.010438181983053067,0.8195461200585652
0.01044321971567037,0.8195461200585652
0.01044321971567037,0.8196376281112738
0.010458332913522281,0.8196376281112738
0.010458332913522281,0.8197291361639825
0.010468408378756889,0.8197291361639825
0.010468408378756889,0.8198206442166911
0.010478483843991497,0.8198206442166911
0.010478483843991497,0.8199121522693997
0.010488559309226103,0.8199121522693997
0.010488559309226103,0.8200036603221084
0.010493597041843408,0.8200036603221084
0.010493597041843408,0.8206442166910688
0.010503672507078014,0.8206442166910688
0.010503672507078014,0.8207357247437774
0.010513747972312621,0.8207357247437774
0.010513747972312621,0.8210102489019033
0.01052382343754723,0.8210102489019033
0.01052382343754723,0.821101756954612
0.010549012100633746,0.821101756954612
0.010549012100633746,0.8211932650073206
0.010579238496337568,0.8211932650073206
0.010579238496337568,0.8212847730600292
0.010599389426806783,0.8212847730600292
0.010599389426806783,0.8214677891654466
0.01060946489204139,0.8214677891654466
0.01060946489204139,0.8215592972181552
0.010614502624658694,0.8215592972181552
0.010614502624658694,0.8216508052708639
0.010629615822510605,0.8216508052708639
0.010629615822510605,0.8218338213762811
0.010644729020362516,0.8218338213762811
0.010644729020362516,0.8221998535871157
0.010669917683449033,0.8221998535871157
0.010669917683449033,0.8222913616398243
0.01067999314868364,0.8222913616398243
0.01067999314868364,0.8224743777452416
0.010685030881300944,0.8224743777452416
0.010685030881300944,0.8225658857979502
0.010690068613918248,0.8225658857979502
0.010690068613918248,0.8226573938506588
0.010740445940091284,0.8226573938506588
0.010740445940091284,0.8227489019033675
0.010745483672708587,0.8227489019033675
0.010745483672708587,0.8228404099560761
0.010750521405325892,0.8228404099560761
0.010750521405325892,0.8229319180087847
0.010775710068412409,0.8229319180087847
0.010775710068412409,0.8230234260614934
0.01079082326626432,0.8230234260614934
0.01079082326626432,0.823114934114202
0.010795860998881624,0.823114934114202
0.010795860998881624,0.8232064421669106
0.010816011929350838,0.8232064421669106
0.010816011929350838,0.8232979502196194
0.010866389255523873,0.8232979502196194
0.010866389255523873,0.823389458272328
0.010871426988141178,0.823389458272328
0.010871426988141178,0.8234809663250366
0.010876464720758481,0.8234809663250366
0.010876464720758481,0.8235724743777453
0.010891577918610392,0.8235724743777453
0.010891577918610392,0.8236639824304539
0.010906691116462303,0.8236639824304539
0.010906691116462303,0.8237554904831625
0.010911728849079606,0.8237554904831625
0.010911728849079606,0.8239385065885798
0.010921804314314214,0.8239385065885798
0.010921804314314214,0.8241215226939971
0.010926842046931517,0.8241215226939971
0.010926842046931517,0.8243045387994143
0.010941955244783428,0.8243045387994143
0.010941955244783428,0.824396046852123
0.010952030710018035,0.824396046852123
0.010952030710018035,0.8245790629575402
0.010962106175252641,0.8245790629575402
0.010962106175252641,0.8246705710102489
0.01098729483833916,0.8246705710102489
0.01098729483833916,0.8247620790629575
0.011017521234042982,0.8247620790629575
0.011017521234042982,0.8250366032210834
0.011037672164512196,0.8250366032210834
0.011037672164512196,0.825128111273792
0.011047747629746803,0.825128111273792
0.011047747629746803,0.8255856515373353
0.011072936292833322,0.8255856515373353
0.011072936292833322,0.825677159590044
0.011088049490685233,0.825677159590044
0.011088049490685233,0.8257686676427526
0.011093087223302536,0.8257686676427526
0.011093087223302536,0.8259516837481699
0.011098124955919839,0.8259516837481699
0.011098124955919839,0.8261346998535871
0.011108200421154447,0.8261346998535871
0.011108200421154447,0.8263177159590044
0.011133389084240965,0.8263177159590044
0.011133389084240965,0.8265007320644217
0.011148502282092876,0.8265007320644217
0.011148502282092876,0.8269582723279648
0.01115354001471018,0.8269582723279648
0.01115354001471018,0.8270497803806734
0.011178728677796698,0.8270497803806734
0.011178728677796698,0.8271412884333821
0.011188804143031304,0.8271412884333821
0.011188804143031304,0.8272327964860908
0.01120895507350052,0.8272327964860908
0.01120895507350052,0.8274158125915081
0.011234143736587036,0.8274158125915081
0.011234143736587036,0.8275073206442167
0.011259332399673555,0.8275073206442167
0.011259332399673555,0.8277818448023426
0.011269407864908163,0.8277818448023426
0.011269407864908163,0.8278733528550513
0.011299634260611984,0.8278733528550513
0.011299634260611984,0.8279648609077599
0.01133489838893311,0.8279648609077599
0.01133489838893311,0.8283308931185944
0.011339936121550412,0.8283308931185944
0.011339936121550412,0.8284224011713031
0.011344973854167717,0.8284224011713031
0.011344973854167717,0.8285139092240117
0.011355049319402323,0.8285139092240117
0.011355049319402323,0.828696925329429
0.011360087052019628,0.828696925329429
0.011360087052019628,0.8287884333821376
0.01136512478463693,0.8287884333821376
0.01136512478463693,0.8289714494875549
0.011385275715106145,0.8289714494875549
0.011385275715106145,0.8296120058565154
0.011395351180340752,0.8296120058565154
0.011395351180340752,0.829703513909224
0.011415502110809966,0.829703513909224
0.011415502110809966,0.8299780380673499
0.011425577576044574,0.8299780380673499
0.011425577576044574,0.8300695461200586
0.01143565304127918,0.8300695461200586
0.01143565304127918,0.8301610541727672
0.011445728506513788,0.8301610541727672
0.011445728506513788,0.8302525622254758
0.011450766239131091,0.8302525622254758
0.011450766239131091,0.8303440702781845
0.011455803971748396,0.8303440702781845
0.011455803971748396,0.8304355783308931
0.011465879436983002,0.8304355783308931
0.011465879436983002,0.8305270863836017
0.011470917169600307,0.8305270863836017
0.011470917169600307,0.830710102489019
0.01149106810006952,0.830710102489019
0.01149106810006952,0.8308016105417276
0.011496105832686824,0.8308016105417276
0.011496105832686824,0.8309846266471449
0.011506181297921431,0.8309846266471449
0.011506181297921431,0.8310761346998536
0.011511219030538734,0.8310761346998536
0.011511219030538734,0.8311676427525623
0.011536407693625253,0.8311676427525623
0.011536407693625253,0.8313506588579795
0.011551520891477164,0.8313506588579795
0.011551520891477164,0.8316251830161054
0.011561596356711772,0.8316251830161054
0.011561596356711772,0.8317166910688141
0.011581747287180985,0.8317166910688141
0.011581747287180985,0.8318081991215227
0.011596860485032896,0.8318081991215227
0.011596860485032896,0.8318997071742313
0.011637162345971326,0.8318997071742313
0.011637162345971326,0.83199121522694
0.011647237811205932,0.83199121522694
0.011647237811205932,0.8322657393850659
0.011652275543823237,0.8322657393850659
0.011652275543823237,0.8323572474377745
0.01165731327644054,0.8323572474377745
0.01165731327644054,0.8324487554904831
0.011677464206909753,0.8324487554904831
0.011677464206909753,0.8325402635431918
0.011682501939527058,0.8325402635431918
0.011682501939527058,0.8326317715959004
0.011697615137378969,0.8326317715959004
0.011697615137378969,0.832723279648609
0.011707690602613575,0.832723279648609
0.011707690602613575,0.8328147877013177
0.01171272833523088,0.8328147877013177
0.01171272833523088,0.8329978038067349
0.01172784153308279,0.8329978038067349
0.01172784153308279,0.8330893118594437
0.011753030196169308,0.8330893118594437
0.011753030196169308,0.8333638360175696
0.011758067928786612,0.8333638360175696
0.011758067928786612,0.8334553440702782
0.011768143394021218,0.8334553440702782
0.011768143394021218,0.8335468521229868
0.011803407522342345,0.8335468521229868
0.011803407522342345,0.8336383601756955
0.011823558452811559,0.8336383601756955
0.011823558452811559,0.8337298682284041
0.011833633918046167,0.8337298682284041
0.011833633918046167,0.8339128843338214
0.011843709383280773,0.8339128843338214
0.011843709383280773,0.83400439238653
0.01189408670945381,0.83400439238653
0.01189408670945381,0.8340959004392386
0.011899124442071113,0.8340959004392386
0.011899124442071113,0.8341874084919473
0.011904162174688416,0.8341874084919473
0.011904162174688416,0.8343704245973645
0.011959577233478756,0.8343704245973645
0.011959577233478756,0.8345534407027818
0.011969652698713362,0.8345534407027818
0.011969652698713362,0.8348279648609077
0.011989803629182578,0.8348279648609077
0.011989803629182578,0.8349194729136163
0.012014992292269095,0.8349194729136163
0.012014992292269095,0.8350109809663251
0.012030105490121006,0.8350109809663251
0.012030105490121006,0.8351939970717424
0.012045218687972916,0.8351939970717424
0.012045218687972916,0.835285505124451
0.012050256420590221,0.835285505124451
0.012050256420590221,0.8353770131771596
0.012055294153207524,0.8353770131771596
0.012055294153207524,0.8355600292825769
0.012095596014145954,0.8355600292825769
0.012095596014145954,0.8357430453879942
0.012100633746763257,0.8357430453879942
0.012100633746763257,0.8358345534407028
0.012110709211997864,0.8358345534407028
0.012110709211997864,0.83601756954612
0.012115746944615167,0.83601756954612
0.012115746944615167,0.8362005856515373
0.01212078467723247,0.8362005856515373
0.01212078467723247,0.836292093704246
0.012140935607701686,0.836292093704246
0.012140935607701686,0.8364751098096632
0.01214597334031899,0.8364751098096632
0.01214597334031899,0.8365666178623719
0.012171162003405508,0.8365666178623719
0.012171162003405508,0.8366581259150805
0.012191312933874722,0.8366581259150805
0.012191312933874722,0.8367496339677891
0.012196350666492025,0.8367496339677891
0.012196350666492025,0.8368411420204978
0.012226577062195846,0.8368411420204978
0.012226577062195846,0.8369326500732065
0.012231614794813151,0.8369326500732065
0.012231614794813151,0.8370241581259151
0.012241690260047757,0.8370241581259151
0.012241690260047757,0.8371156661786238
0.012261841190516973,0.8371156661786238
0.012271916655751579,0.8371156661786238
0.012281992120986187,0.8371156661786238
0.012281992120986187,0.8372071742313324
0.012297105318838097,0.8372071742313324
0.012297105318838097,0.837298682284041
0.012312218516690008,0.837298682284041
0.012312218516690008,0.8374816983894583
0.012332369447159222,0.8374816983894583
0.012332369447159222,0.8377562225475842
0.01234244491239383,0.8377562225475842
0.01234244491239383,0.8378477306002928
0.012347482645011133,0.8378477306002928
0.012347482645011133,0.8379392386530015
0.012367633575480349,0.8379392386530015
0.012367633575480349,0.8380307467057101
0.01238274677333226,0.8380307467057101
0.01238274677333226,0.8381222547584187
0.012387784505949562,0.8381222547584187
0.012387784505949562,0.8382137628111274
0.012392822238566865,0.8382137628111274
0.012392822238566865,0.838305270863836
0.01239785997118417,0.838305270863836
0.01239785997118417,0.8384882869692533
0.012407935436418776,0.8384882869692533
0.012407935436418776,0.8385797950219619
0.012412973169036081,0.8385797950219619
0.012412973169036081,0.8387628111273792
0.012418010901653384,0.8387628111273792
0.012418010901653384,0.8388543191800878
0.012428086366887992,0.8388543191800878
0.012428086366887992,0.8389458272327965
0.012438161832122598,0.8389458272327965
0.012438161832122598,0.8390373352855052
0.012448237297357206,0.8390373352855052
0.012448237297357206,0.8391288433382138
0.012453275029974509,0.8391288433382138
0.012453275029974509,0.8392203513909224
0.012458312762591814,0.8392203513909224
0.01246838822782642,0.8392203513909224
0.012478463693061027,0.8392203513909224
0.012478463693061027,0.8393118594436311
0.012493576890912938,0.8393118594436311
0.012493576890912938,0.8394033674963397
0.01252380328661676,0.8394033674963397
0.01252380328661676,0.8396778916544656
0.012554029682320582,0.8396778916544656
0.012554029682320582,0.8397693997071742
0.012574180612789795,0.8397693997071742
0.012574180612789795,0.8398609077598829
0.01259433154325901,0.8398609077598829
0.01259433154325901,0.8400439238653001
0.012599369275876314,0.8400439238653001
0.012599369275876314,0.8401354319180088
0.012604407008493617,0.8401354319180088
0.012604407008493617,0.8402269399707174
0.012624557938962831,0.8402269399707174
0.012624557938962831,0.840318448023426
0.012629595671580136,0.840318448023426
0.012629595671580136,0.8404099560761347
0.012644708869432046,0.8404099560761347
0.012644708869432046,0.8405929721815519
0.012674935265135868,0.8405929721815519
0.012674935265135868,0.8406844802342606
0.012685010730370474,0.8406844802342606
0.012685010730370474,0.8407759882869692
0.012715237126074296,0.8407759882869692
0.012715237126074296,0.8408674963396779
0.0127202748586916,0.8408674963396779
0.0127202748586916,0.8409590043923866
0.012730350323926207,0.8409590043923866
0.012730350323926207,0.8411420204978038
0.012785765382716547,0.8411420204978038
0.012785765382716547,0.8414165446559297
0.012810954045803066,0.8414165446559297
0.012810954045803066,0.8415080527086384
0.012821029511037672,0.8415080527086384
0.012821029511037672,0.841599560761347
0.01283110497627228,0.841599560761347
0.01283110497627228,0.8416910688140556
0.01284621817412419,0.8416910688140556
0.01284621817412419,0.8417825768667643
0.012856293639358798,0.8417825768667643
0.012856293639358798,0.8418740849194729
0.01288652003506262,0.8418740849194729
0.01288652003506262,0.8421486090775988
0.012896595500297226,0.8421486090775988
0.012896595500297226,0.8422401171303074
0.01290163323291453,0.8422401171303074
0.01290163323291453,0.8423316251830161
0.012906670965531834,0.8423316251830161
0.012906670965531834,0.8424231332357247
0.012916746430766441,0.8424231332357247
0.012916746430766441,0.8425146412884333
0.012931859628618352,0.8425146412884333
0.012931859628618352,0.842606149341142
0.012977199222174085,0.842606149341142
0.012977199222174085,0.8426976573938506
0.01298727468740869,0.8426976573938506
0.01298727468740869,0.8427891654465594
0.013002387885260602,0.8427891654465594
0.013002387885260602,0.8431551976573939
0.01302757654834712,0.8431551976573939
0.01302757654834712,0.8432467057101025
0.013032614280964423,0.8432467057101025
0.013032614280964423,0.8433382137628112
0.013047727478816334,0.8433382137628112
0.013047727478816334,0.8434297218155198
0.013103142537606674,0.8434297218155198
0.013103142537606674,0.8435212298682284
0.013123293468075888,0.8435212298682284
0.013123293468075888,0.8437042459736457
0.013163595329014318,0.8437042459736457
0.013163595329014318,0.8437957540263543
0.01316863306163162,0.8437957540263543
0.01316863306163162,0.843887262079063
0.013234123585656567,0.843887262079063
0.013234123585656567,0.8439787701317716
0.013244199050891175,0.8439787701317716
0.013244199050891175,0.8440702781844802
0.013249236783508478,0.8440702781844802
0.013249236783508478,0.8443448023426061
0.013274425446594997,0.8443448023426061
0.013274425446594997,0.8445278184480234
0.013304651842298818,0.8445278184480234
0.013304651842298818,0.8447108345534406
0.013395331029410283,0.8447108345534406
0.013395331029410283,0.844893850658858
0.013420519692496802,0.844893850658858
0.013420519692496802,0.8450768667642753
0.013425557425114105,0.8450768667642753
0.013425557425114105,0.8451683748169839
0.013465859286052534,0.8451683748169839
0.013465859286052534,0.8452598828696926
0.013470897018669837,0.8452598828696926
0.013470897018669837,0.8453513909224012
0.013480972483904445,0.8453513909224012
0.013480972483904445,0.8454428989751098
0.013561576205781302,0.8454428989751098
0.013561576205781302,0.8456259150805271
0.013571651671015908,0.8456259150805271
0.013571651671015908,0.8457174231332357
0.013576689403633213,0.8457174231332357
0.013576689403633213,0.8458089311859444
0.01358676486886782,0.8458089311859444
0.01358676486886782,0.8459919472913616
0.01360187806671973,0.8459919472913616
0.01360187806671973,0.8460834553440703
0.013606915799337035,0.8460834553440703
0.013606915799337035,0.8461749633967789
0.01365729312551007,0.8461749633967789
0.01365729312551007,0.8462664714494875
0.013687519521213892,0.8462664714494875
0.013687519521213892,0.8463579795021962
0.013692557253831195,0.8463579795021962
0.013692557253831195,0.8464494875549048
0.013702632719065803,0.8464494875549048
0.013702632719065803,0.8466325036603221
0.013742934580004232,0.8466325036603221
0.013742934580004232,0.8468155197657394
0.013768123243090749,0.8468155197657394
0.013768123243090749,0.8469070278184481
0.013803387371411876,0.8469070278184481
0.013803387371411876,0.8469985358711567
0.013843689232350303,0.8469985358711567
0.013843689232350303,0.8470900439238653
0.013848726964967608,0.8470900439238653
0.013848726964967608,0.8472730600292826
0.013853764697584911,0.8472730600292826
0.013853764697584911,0.8474560761346999
0.01387895336067143,0.8474560761346999
0.01387895336067143,0.8475475841874085
0.013889028825906036,0.8475475841874085
0.013889028825906036,0.8476390922401171
0.013904142023757947,0.8476390922401171
0.013904142023757947,0.8477306002928258
0.013919255221609857,0.8477306002928258
0.013919255221609857,0.8478221083455344
0.0139797080130175,0.8478221083455344
0.0139797080130175,0.8480966325036603
0.013984745745634805,0.8480966325036603
0.013984745745634805,0.8481881405563689
0.013999858943486716,0.8481881405563689
0.013999858943486716,0.8482796486090776
0.014009934408721322,0.8482796486090776
0.014009934408721322,0.8483711566617862
0.014030085339190538,0.8483711566617862
0.014030085339190538,0.8484626647144948
0.014035123071807841,0.8484626647144948
0.014035123071807841,0.8486456808199122
0.014040160804425144,0.8486456808199122
0.014040160804425144,0.8488286969253295
0.014045198537042449,0.8488286969253295
0.014045198537042449,0.8489202049780381
0.01407542493274627,0.8489202049780381
0.01407542493274627,0.8490117130307467
0.014120764526302001,0.8490117130307467
0.014120764526302001,0.849194729136164
0.014150990922005823,0.849194729136164
0.014150990922005823,0.8492862371888726
0.014156028654623128,0.8492862371888726
0.014156028654623128,0.8493777452415813
0.014196330515561555,0.8493777452415813
0.014196330515561555,0.8494692532942899
0.014281971970055717,0.8494692532942899
0.014281971970055717,0.8496522693997072
0.01428700970267302,0.8496522693997072
0.01428700970267302,0.8497437774524158
0.014292047435290325,0.8497437774524158
0.014292047435290325,0.8498352855051244
0.014312198365759539,0.8498352855051244
0.014312198365759539,0.8499267935578331
0.014337387028846058,0.8499267935578331
0.014337387028846058,0.8501098096632503
0.01434242476146336,0.8501098096632503
0.01434242476146336,0.850201317715959
0.014352500226697968,0.850201317715959
0.014352500226697968,0.8502928257686676
0.014357537959315271,0.8502928257686676
0.014357537959315271,0.8503843338213762
0.01436761342454988,0.8503843338213762
0.01436761342454988,0.8504758418740849
0.014372651157167182,0.8504758418740849
0.014372651157167182,0.8506588579795022
0.014402877552871004,0.8506588579795022
0.014402877552871004,0.8507503660322109
0.014412953018105612,0.8507503660322109
0.014412953018105612,0.8509333821376281
0.014428066215957523,0.8509333821376281
0.014428066215957523,0.8510248901903368
0.01445325487904404,0.8510248901903368
0.01445325487904404,0.8511163982430454
0.014463330344278647,0.8511163982430454
0.014463330344278647,0.851207906295754
0.014473405809513255,0.851207906295754
0.014473405809513255,0.8513909224011713
0.014478443542130558,0.8513909224011713
0.014478443542130558,0.85148243045388
0.01452378313568629,0.85148243045388
0.01452378313568629,0.8515739385065886
0.014528820868303594,0.8515739385065886
0.014528820868303594,0.8516654465592972
0.014543934066155504,0.8516654465592972
0.014543934066155504,0.8517569546120058
0.01454897179877281,0.8517569546120058
0.01454897179877281,0.8518484626647145
0.014569122729242023,0.8518484626647145
0.014569122729242023,0.8519399707174231
0.014604386857563148,0.8519399707174231
0.014604386857563148,0.8520314787701317
0.01463461325326697,0.8520314787701317
0.01463461325326697,0.8521229868228404
0.014664839648970791,0.8521229868228404
0.014664839648970791,0.852214494875549
0.014700103777291916,0.852214494875549
0.014700103777291916,0.8523060029282576
0.014720254707761131,0.8523060029282576
0.014720254707761131,0.8523975109809663
0.014735367905613042,0.8523975109809663
0.014735367905613042,0.8524890190336749
0.014745443370847648,0.8524890190336749
0.014745443370847648,0.8525805270863837
0.014760556568699559,0.8525805270863837
0.014760556568699559,0.8527635431918009
0.01477566976655147,0.8527635431918009
0.01477566976655147,0.8528550512445096
0.014785745231786078,0.8528550512445096
0.014785745231786078,0.8529465592972182
0.01479078296440338,0.8529465592972182
0.01479078296440338,0.8531295754026355
0.014795820697020685,0.8531295754026355
0.014795820697020685,0.8532210834553441
0.0148159716274899,0.8532210834553441
0.0148159716274899,0.8533125915080527
0.014846198023193721,0.8533125915080527
0.014846198023193721,0.8534040995607614
0.014856273488428329,0.8534040995607614
0.014856273488428329,0.85349560761347
0.014901613081984061,0.85349560761347
0.014901613081984061,0.8535871156661786
0.014926801745070578,0.8535871156661786
0.014926801745070578,0.8537701317715959
0.014941914942922489,0.8537701317715959
0.014941914942922489,0.8538616398243045
0.014946952675539794,0.8538616398243045
0.014946952675539794,0.854227672035139
0.015007405466947437,0.854227672035139
0.015007405466947437,0.8543191800878477
0.015032594130033954,0.8543191800878477
0.015032594130033954,0.8544106881405563
0.015062820525737776,0.8544106881405563
0.015062820525737776,0.8545021961932651
0.015077933723589686,0.8545021961932651
0.015077933723589686,0.8545937042459737
0.015082971456206991,0.8545937042459737
0.015082971456206991,0.8546852122986823
0.015098084654058902,0.8546852122986823
0.015098084654058902,0.854776720351391
0.015108160119293508,0.854776720351391
0.015108160119293508,0.8548682284040996
0.015123273317145419,0.8548682284040996
0.015123273317145419,0.8549597364568082
0.015133348782380027,0.8549597364568082
0.015133348782380027,0.8551427525622255
0.01517868837593576,0.8551427525622255
0.01517868837593576,0.8552342606149341
0.015203877039022276,0.8552342606149341
0.015203877039022276,0.8553257686676428
0.01520891477163958,0.8553257686676428
0.01520891477163958,0.8554172767203514
0.015218990236874187,0.8554172767203514
0.015218990236874187,0.85550878477306
0.015224027969491492,0.85550878477306
0.015224027969491492,0.8556002928257687
0.015244178899960706,0.8556002928257687
0.015244178899960706,0.8557833089311859
0.015254254365195313,0.8557833089311859
0.015254254365195313,0.8558748169838946
0.015299593958751046,0.8558748169838946
0.015299593958751046,0.8559663250366032
0.015304631691368349,0.8559663250366032
