fpr,tpr
0.0,0.0
1.6518004625041296e-05,0.0
3.303600925008259e-05,0.0
3.303600925008259e-05,0.01597222222222222
3.303600925008259e-05,0.017361111111111112
3.303600925008259e-05,0.02361111111111111
4.955401387512388e-05,0.02361111111111111
4.955401387512388e-05,0.029861111111111113
4.955401387512388e-05,0.03125
4.955401387512388e-05,0.03263888888888889
6.607201850016519e-05,0.03263888888888889
6.607201850016519e-05,0.049305555555555554
8.259002312520647e-05,0.049305555555555554
8.259002312520647e-05,0.059027777777777776
9.910802775024777e-05,0.059027777777777776
9.910802775024777e-05,0.07013888888888889
0.00011562603237528906,0.07013888888888889
0.00011562603237528906,0.07708333333333334
0.00013214403700033037,0.07708333333333334
0.00013214403700033037,0.08194444444444444
0.00013214403700033037,0.08333333333333333
0.00013214403700033037,0.09097222222222222
0.00014866204162537167,0.09097222222222222
0.00014866204162537167,0.09930555555555555
0.00016518004625041294,0.09930555555555555
0.00016518004625041294,0.10208333333333333
0.00018169805087545423,0.10208333333333333
0.00018169805087545423,0.1076388888888889
0.00019821605550049553,0.1076388888888889
0.00019821605550049553,0.10833333333333334
0.00021473406012553683,0.10833333333333334
0.00021473406012553683,0.11805555555555555
0.00023125206475057812,0.11805555555555555
0.00023125206475057812,0.12361111111111112
0.0002477700693756194,0.12361111111111112
0.0002477700693756194,0.14305555555555555
0.00026428807400066074,0.14305555555555555
0.00026428807400066074,0.1451388888888889
0.000280806078625702,0.1451388888888889
0.000280806078625702,0.15138888888888888
0.00029732408325074334,0.15138888888888888
0.00029732408325074334,0.15486111111111112
0.0003138420878757846,0.15486111111111112
0.0003138420878757846,0.16597222222222222
0.0003303600925008259,0.16597222222222222
0.0003303600925008259,0.17222222222222222
0.0003468780971258672,0.17222222222222222
0.0003468780971258672,0.17569444444444443
0.00036339610175090847,0.17569444444444443
0.00036339610175090847,0.17916666666666667
0.0003799141063759498,0.17916666666666667
0.0003799141063759498,0.1909722222222222
0.00039643211100099106,0.1909722222222222
0.00039643211100099106,0.20416666666666666
0.0004129501156260324,0.20416666666666666
0.0004129501156260324,0.21458333333333332
0.00042946812025107365,0.21458333333333332
0.00042946812025107365,0.22291666666666668
0.000445986124876115,0.22291666666666668
0.000445986124876115,0.22569444444444445
0.00047902213412619757,0.22569444444444445
0.00047902213412619757,0.22708333333333333
0.0004955401387512388,0.22708333333333333
0.0004955401387512388,0.23055555555555557
0.0005285761480013215,0.23055555555555557
0.0005285761480013215,0.2361111111111111
0.0005450941526263627,0.2361111111111111
0.0005450941526263627,0.23680555555555555
0.000561612157251404,0.23680555555555555
0.000561612157251404,0.23819444444444443
0.000561612157251404,0.24097222222222223
0.0005781301618764453,0.24097222222222223
0.0005781301618764453,0.24444444444444444
0.0005946481665014867,0.24444444444444444
0.0005946481665014867,0.26458333333333334
0.0006111661711265279,0.26458333333333334
0.0006111661711265279,0.27152777777777776
0.0006276841757515692,0.27152777777777776
0.0006276841757515692,0.28055555555555556
0.0006607201850016518,0.28055555555555556
0.0006607201850016518,0.2847222222222222
0.0006772381896266931,0.2847222222222222
0.0006772381896266931,0.28680555555555554
0.0006937561942517344,0.2875
0.0006937561942517344,0.2923611111111111
0.0007102741988767757,0.2923611111111111
0.0007102741988767757,0.3034722222222222
0.0007267922035018169,0.3034722222222222
0.0007267922035018169,0.3090277777777778
0.0007433102081268583,0.3090277777777778
0.0007433102081268583,0.31319444444444444
0.0007598282127518996,0.31319444444444444
0.0007598282127518996,0.3229166666666667
0.0007763462173769409,0.3229166666666667
0.0007763462173769409,0.3236111111111111
0.0007928642220019821,0.3236111111111111
0.0007928642220019821,0.325
0.0008093822266270234,0.325
0.0008093822266270234,0.3298611111111111
0.0008424182358771061,0.3298611111111111
0.0008424182358771061,0.33194444444444443
0.0008754542451271886,0.33194444444444443
0.0008754542451271886,0.33958333333333335
0.00089197224975223,0.33958333333333335
0.00089197224975223,0.34097222222222223
0.0009084902543772713,0.34097222222222223
0.0009084902543772713,0.3416666666666667
0.0009250082590023125,0.3416666666666667
0.0009250082590023125,0.3423611111111111
0.0009415262636273538,0.3423611111111111
0.0009415262636273538,0.3458333333333333
0.0009415262636273538,0.3472222222222222
0.0009415262636273538,0.34930555555555554
0.0009580442682523951,0.34930555555555554
0.0009580442682523951,0.35
0.0009580442682523951,0.35138888888888886
0.0009580442682523951,0.3527777777777778
0.0009580442682523951,0.3541666666666667
0.0009580442682523951,0.3548611111111111
0.0009745622728774364,0.3548611111111111
0.0009745622728774364,0.3680555555555556
0.0009745622728774364,0.36944444444444446
0.0009910802775024777,0.36944444444444446
0.0009910802775024777,0.37222222222222223
0.001007598282127519,0.37222222222222223
0.001007598282127519,0.3736111111111111
0.0010241162867525603,0.3736111111111111
0.0010241162867525603,0.3763888888888889
0.0010406342913776017,0.3763888888888889
0.0010406342913776017,0.3798611111111111
0.001057152296002643,0.3798611111111111
0.001057152296002643,0.38333333333333336
0.001073670300627684,0.38333333333333336
0.001073670300627684,0.38819444444444445
0.0010901883052527254,0.38819444444444445
0.0010901883052527254,0.38958333333333334
0.0011067063098777667,0.38958333333333334
0.0011067063098777667,0.39444444444444443
0.001123224314502808,0.39444444444444443
0.001123224314502808,0.39791666666666664
0.0011397423191278494,0.39791666666666664
0.0011397423191278494,0.4048611111111111
0.0011562603237528907,0.4048611111111111
0.0011562603237528907,0.4076388888888889
0.001172778328377932,0.4076388888888889
0.001172778328377932,0.4083333333333333
0.0011892963330029733,0.4083333333333333
0.0011892963330029733,0.4125
0.0012058143376280145,0.4125
0.0012058143376280145,0.4166666666666667
0.0012223323422530558,0.4166666666666667
0.0012223323422530558,0.4173611111111111
0.001238850346878097,0.4173611111111111
0.001238850346878097,0.41805555555555557
0.001288404360753221,0.41805555555555557
0.001288404360753221,0.4215277777777778
0.0013049223653782624,0.4215277777777778
0.0013049223653782624,0.425
0.0013214403700033035,0.425
0.0013214403700033035,0.42777777777777776
0.0013379583746283448,0.42777777777777776
0.0013379583746283448,0.4305555555555556
0.0013544763792533861,0.4305555555555556
0.0013544763792533861,0.4326388888888889
0.0013709943838784275,0.4326388888888889
0.0013709943838784275,0.4340277777777778
0.0013875123885034688,0.4340277777777778
0.0013875123885034688,0.4375
0.0014040303931285101,0.4375
0.0014040303931285101,0.43819444444444444
0.0014205483977535514,0.43819444444444444
0.0014205483977535514,0.4388888888888889
0.0014370664023785928,0.4388888888888889
0.0014370664023785928,0.44166666666666665
0.0014535844070036339,0.44166666666666665
0.0014535844070036339,0.4444444444444444
0.0014701024116286752,0.4444444444444444
0.0014701024116286752,0.44722222222222224
0.0014866204162537165,0.44722222222222224
0.0014866204162537165,0.4534722222222222
0.0015031384208787578,0.4534722222222222
0.0015031384208787578,0.45694444444444443
0.0015196564255037992,0.45694444444444443
0.0015196564255037992,0.4597222222222222
0.0015361744301288405,0.4597222222222222
0.0015361744301288405,0.46041666666666664
0.0015526924347538818,0.46041666666666664
0.0015526924347538818,0.4625
0.0015857284440039642,0.4625
0.0015857284440039642,0.4638888888888889
0.0016022464486290056,0.4638888888888889
0.0016022464486290056,0.46458333333333335
0.001618764453254047,0.46458333333333335
0.001618764453254047,0.4666666666666667
0.0016518004625041295,0.4666666666666667
0.0016518004625041295,0.46805555555555556
0.0016683184671291709,0.46805555555555556
0.0016683184671291709,0.4708333333333333
0.0016848364717542122,0.4708333333333333
0.0016848364717542122,0.4736111111111111
0.0017178724810042946,0.4736111111111111
0.0017178724810042946,0.475
0.001734390485629336,0.475
0.001734390485629336,0.4756944444444444
0.0017509084902543773,0.4756944444444444
0.0017509084902543773,0.47638888888888886
0.0017674264948794186,0.47638888888888886
0.0017674264948794186,0.48194444444444445
0.0018004625041295012,0.48194444444444445
0.0018004625041295012,0.4840277777777778
0.001899570531879749,0.4840277777777778
0.001899570531879749,0.48819444444444443
0.0019160885365047903,0.48819444444444443
0.0019160885365047903,0.4888888888888889
0.0019491245457548727,0.4888888888888889
0.0019491245457548727,0.49444444444444446
0.001965642550379914,0.49444444444444446
0.001965642550379914,0.49930555555555556
0.0019821605550049554,0.49930555555555556
0.0019821605550049554,0.5006944444444444
0.0019986785596299967,0.5006944444444444
0.0019986785596299967,0.5048611111111111
0.002015196564255038,0.5048611111111111
0.002015196564255038,0.5055555555555555
0.0020317145688800793,0.5055555555555555
0.0020317145688800793,0.5083333333333333
0.002064750578130162,0.5083333333333333
0.002064750578130162,0.5118055555555555
0.0020812685827552033,0.5118055555555555
0.0020812685827552033,0.5152777777777777
0.0020977865873802446,0.5152777777777777
0.0020977865873802446,0.5159722222222223
0.002114304592005286,0.5159722222222223
0.002114304592005286,0.5180555555555556
0.0021638586058804095,0.5180555555555556
0.0021638586058804095,0.5208333333333334
0.002196894615130492,0.5208333333333334
0.002196894615130492,0.5229166666666667
0.0022134126197555335,0.5229166666666667
0.0022134126197555335,0.5256944444444445
0.0022629666336306574,0.5256944444444445
0.0022629666336306574,0.5263888888888889
0.0022794846382556988,0.5263888888888889
0.0022794846382556988,0.5270833333333333
0.00229600264288074,0.5270833333333333
0.00229600264288074,0.5284722222222222
0.0023125206475057814,0.5284722222222222
0.0023125206475057814,0.5319444444444444
0.0023290386521308227,0.5319444444444444
0.0023290386521308227,0.5326388888888889
0.002345556656755864,0.5326388888888889
0.002345556656755864,0.5347222222222222
0.0023620746613809054,0.5347222222222222
0.0023620746613809054,0.5375
0.0024446646845061116,0.5375
0.0024446646845061116,0.54375
0.002461182689131153,0.54375
0.002461182689131153,0.5451388888888888
0.002510736703006277,0.5451388888888888
0.002510736703006277,0.5465277777777777
0.0025437727122563595,0.5465277777777777
0.0025437727122563595,0.5486111111111112
0.002560290716881401,0.5486111111111112
0.002560290716881401,0.5506944444444445
0.0025933267261314835,0.5506944444444445
0.0025933267261314835,0.5534722222222223
0.002609844730756525,0.5534722222222223
0.002609844730756525,0.5548611111111111
0.002626362735381566,0.5548611111111111
0.002626362735381566,0.5555555555555556
0.002642880740006607,0.5555555555555556
0.002642880740006607,0.5569444444444445
0.0026593987446316483,0.5569444444444445
0.0026593987446316483,0.5576388888888889
0.002692434753881731,0.5576388888888889
0.002692434753881731,0.5583333333333333
0.0027089527585067723,0.5583333333333333
0.0027089527585067723,0.5597222222222222
0.0027089527585067723,0.5611111111111111
0.0027089527585067723,0.5645833333333333
0.0027254707631318136,0.5645833333333333
0.0027254707631318136,0.5673611111111111
0.0027750247770069376,0.5673611111111111
0.0027750247770069376,0.5680555555555555
0.002791542781631979,0.5680555555555555
0.002791542781631979,0.56875
0.0028080607862570202,0.56875
0.0028080607862570202,0.5694444444444444
0.0028245787908820616,0.5694444444444444
0.0028245787908820616,0.5701388888888889
0.002841096795507103,0.5701388888888889
0.002841096795507103,0.5708333333333333
0.002857614800132144,0.5708333333333333
0.0028741328047571855,0.5715277777777777
0.0028741328047571855,0.5722222222222222
0.0028906508093822264,0.5722222222222222
0.0028906508093822264,0.5729166666666666
0.0029071688140072677,0.5729166666666666
0.0029071688140072677,0.5736111111111111
0.002923686818632309,0.5736111111111111
0.002923686818632309,0.5756944444444444
0.0029897588371324744,0.5756944444444444
0.0029897588371324744,0.5791666666666667
0.0030558308556326397,0.5791666666666667
0.0030558308556326397,0.5833333333333334
0.003072348860257681,0.5833333333333334
0.003072348860257681,0.5861111111111111
0.0030888668648827223,0.5861111111111111
0.0030888668648827223,0.5868055555555556
0.003121902874132805,0.5868055555555556
0.003121902874132805,0.5875
0.003138420878757846,0.5875
0.003138420878757846,0.5916666666666667
0.003154938883382887,0.5916666666666667
0.003154938883382887,0.59375
0.0031714568880079285,0.59375
0.0031714568880079285,0.5944444444444444
0.00318797489263297,0.5944444444444444
0.00318797489263297,0.5958333333333333
0.003204492897258011,0.5958333333333333
0.003204492897258011,0.5972222222222222
0.003254046911133135,0.5972222222222222
0.003254046911133135,0.5986111111111111
0.0032705649157581764,0.5986111111111111
0.0032705649157581764,0.6
0.0032870829203832178,0.6
0.0032870829203832178,0.6034722222222222
0.0033366369342583417,0.6034722222222222
0.0033366369342583417,0.6041666666666666
0.003353154938883383,0.6041666666666666
0.003353154938883383,0.6048611111111111
0.003419226957383548,0.6048611111111111
0.003419226957383548,0.6069444444444444
0.0034522629666336306,0.6069444444444444
0.0034522629666336306,0.6076388888888888
0.003485298975883713,0.6076388888888888
0.003485298975883713,0.6090277777777777
0.0035018169805087545,0.6090277777777777
0.0035018169805087545,0.6097222222222223
0.003534852989758837,0.6097222222222223
0.003534852989758837,0.6118055555555556
0.00356788899900892,0.6118055555555556
0.00356788899900892,0.6125
0.0036009250082590025,0.6125
0.0036009250082590025,0.6131944444444445
0.0036669970267591673,0.6131944444444445
0.0036669970267591673,0.6138888888888889
0.0037165510406342913,0.6138888888888889
0.0037165510406342913,0.6166666666666667
0.0037330690452593326,0.6166666666666667
0.0037330690452593326,0.6173611111111111
0.0037826230591344566,0.6173611111111111
0.0037826230591344566,0.6201388888888889
0.003799141063759498,0.6201388888888889
0.003799141063759498,0.6222222222222222
0.0038321770730095806,0.6222222222222222
0.0038321770730095806,0.6229166666666667
0.003848695077634622,0.6229166666666667
0.003848695077634622,0.6243055555555556
0.003865213082259663,0.6243055555555556
0.003865213082259663,0.6263888888888889
0.0039808391146349525,0.6263888888888889
0.0039808391146349525,0.6270833333333333
0.004030393128510076,0.6270833333333333
0.004030393128510076,0.6277777777777778
0.004046911133135117,0.6277777777777778
0.004046911133135117,0.6291666666666667
0.0040799471423851996,0.6291666666666667
0.0040799471423851996,0.6305555555555555
0.004096465147010241,0.6305555555555555
0.004096465147010241,0.63125
0.004146019160885365,0.63125
0.004146019160885365,0.6319444444444444
0.0041790551701354475,0.6319444444444444
0.0041790551701354475,0.6333333333333333
0.004195573174760489,0.6333333333333333
0.004195573174760489,0.6340277777777777
0.00421209117938553,0.6340277777777777
0.00421209117938553,0.6354166666666666
0.0042616451932606545,0.6354166666666666
0.0042616451932606545,0.6368055555555555
0.004294681202510736,0.6368055555555555
0.004294681202510736,0.6395833333333333
0.004327717211760819,0.6395833333333333
0.004327717211760819,0.6423611111111112
0.004360753221010902,0.6423611111111112
0.004360753221010902,0.64375
0.004393789230260984,0.64375
0.004393789230260984,0.6451388888888889
0.004509415262636274,0.6451388888888889
0.004509415262636274,0.6458333333333334
0.004525933267261315,0.6458333333333334
0.004525933267261315,0.6465277777777778
0.004542451271886356,0.6465277777777778
0.004542451271886356,0.6479166666666667
0.00459200528576148,0.6479166666666667
0.00459200528576148,0.6486111111111111
0.004608523290386521,0.6486111111111111
0.004608523290386521,0.6493055555555556
0.004625041295011563,0.6493055555555556
0.004625041295011563,0.65
0.0046580773042616454,0.65
0.0046580773042616454,0.6506944444444445
0.004757185332011893,0.6506944444444445
0.004757185332011893,0.6527777777777778
0.004806739345887017,0.6527777777777778
0.004806739345887017,0.6534722222222222
0.0048397753551371,0.6534722222222222
0.0048397753551371,0.6541666666666667
0.0048562933597621405,0.6541666666666667
0.0048562933597621405,0.6548611111111111
0.004889329369012223,0.6548611111111111
0.004889329369012223,0.6555555555555556
0.0049388833828873475,0.6555555555555556
0.0049388833828873475,0.6583333333333333
0.004955401387512388,0.6583333333333333
0.004955401387512388,0.6590277777777778
0.00497191939213743,0.6590277777777778
0.00497191939213743,0.6597222222222222
0.005004955401387513,0.6597222222222222
0.005004955401387513,0.6604166666666667
0.00510406342913776,0.6604166666666667
0.00510406342913776,0.6625
0.005153617443012884,0.6625
0.005153617443012884,0.6631944444444444
0.005203171456888008,0.6631944444444444
0.005203171456888008,0.6645833333333333
0.00521968946151305,0.6645833333333333
0.00521968946151305,0.6652777777777777
0.005285761480013214,0.6652777777777777
0.005285761480013214,0.6659722222222222
0.005302279484638256,0.6659722222222222
0.005302279484638256,0.6666666666666666
0.005384869507763462,0.6666666666666666
0.005384869507763462,0.6680555555555555
0.005401387512388504,0.6680555555555555
0.005401387512388504,0.6715277777777777
0.00548397753551371,0.6715277777777777
0.00548397753551371,0.6729166666666667
0.005533531549388833,0.6729166666666667
0.005533531549388833,0.675
0.005599603567888999,0.675
0.005599603567888999,0.6763888888888889
0.005649157581764123,0.6763888888888889
0.005649157581764123,0.6805555555555556
0.005682193591014206,0.6805555555555556
0.005682193591014206,0.6840277777777778
0.005715229600264288,0.6840277777777778
0.005715229600264288,0.6847222222222222
0.005731747604889329,0.6847222222222222
0.005731747604889329,0.6854166666666667
0.005830855632639577,0.6854166666666667
0.005830855632639577,0.6861111111111111
0.005880409646514701,0.6861111111111111
0.005880409646514701,0.6868055555555556
0.005913445655764783,0.6868055555555556
0.005913445655764783,0.6875
0.005929963660389825,0.6875
0.005929963660389825,0.6888888888888889
0.005946481665014866,0.6888888888888889
0.005946481665014866,0.6895833333333333
0.005979517674264949,0.6895833333333333
0.005979517674264949,0.6909722222222222
0.006045589692765114,0.6909722222222222
0.006045589692765114,0.6916666666666667
0.006078625702015197,0.6916666666666667
0.006078625702015197,0.6923611111111111
0.0060951437066402376,0.6923611111111111
0.0060951437066402376,0.69375
0.006210769739015527,0.69375
0.006210769739015527,0.6944444444444444
0.006309877766765774,0.6944444444444444
0.006309877766765774,0.6958333333333333
0.006326395771390816,0.6958333333333333
0.006326395771390816,0.6965277777777777
0.006342913776015857,0.6965277777777777
0.006342913776015857,0.6972222222222222
0.00637594978526594,0.6972222222222222
0.00637594978526594,0.6979166666666666
0.006408985794516022,0.6979166666666666
0.006408985794516022,0.6993055555555555
0.006425503799141064,0.6993055555555555
0.006425503799141064,0.7
0.006475057813016188,0.7
0.006475057813016188,0.7006944444444444
0.006491575817641229,0.7006944444444444
0.006491575817641229,0.7020833333333333
0.006524611826891311,0.7020833333333333
0.006524611826891311,0.7027777777777777
0.006541129831516353,0.7027777777777777
0.006541129831516353,0.7048611111111112
0.006607201850016518,0.7048611111111112
0.006607201850016518,0.7055555555555556
0.006656755863891642,0.7055555555555556
0.006656755863891642,0.70625
0.006739345887016849,0.70625
0.006739345887016849,0.7069444444444445
0.0067723818962669305,0.7069444444444445
0.0067723818962669305,0.7076388888888889
0.006904525933267261,0.7076388888888889
0.006904525933267261,0.7090277777777778
0.006921043937892303,0.7090277777777778
0.006921043937892303,0.7104166666666667
0.007003633961017509,0.7104166666666667
0.007003633961017509,0.7111111111111111
0.007020151965642551,0.7111111111111111
0.007053187974892633,0.7111111111111111
0.007053187974892633,0.7118055555555556
0.007086223984142715,0.7118055555555556
0.007086223984142715,0.7125
0.00713577799801784,0.7125
0.00713577799801784,0.7131944444444445
0.00726792203501817,0.7131944444444445
0.00726792203501817,0.7138888888888889
0.007482656095143707,0.7138888888888889
0.007482656095143707,0.7159722222222222
0.007548728113643871,0.7159722222222222
0.007548728113643871,0.7180555555555556
0.007664354146019161,0.7180555555555556
0.007664354146019161,0.7201388888888889
0.00777998017839445,0.7201388888888889
0.00777998017839445,0.7208333333333333
0.00791212421539478,0.7208333333333333
0.007945160224644863,0.7208333333333333
0.007961678229269905,0.7208333333333333
0.007961678229269905,0.7222222222222222
0.008011232243145028,0.7222222222222222
0.008011232243145028,0.7236111111111111
0.008027750247770069,0.7236111111111111
0.008027750247770069,0.7243055555555555
0.00804426825239511,0.7243055555555555
0.00804426825239511,0.7256944444444444
0.008077304261645194,0.7256944444444444
0.008077304261645194,0.7263888888888889
0.008143376280145359,0.7263888888888889
0.008143376280145359,0.7284722222222222
0.008192930294020483,0.7284722222222222
0.008192930294020483,0.7291666666666666
0.008325074331020813,0.7291666666666666
0.008325074331020813,0.7298611111111111
0.008358110340270895,0.7298611111111111
0.008358110340270895,0.7305555555555555
0.008391146349520979,0.7305555555555555
0.008391146349520979,0.73125
0.008407664354146019,0.73125
0.008407664354146019,0.7319444444444444
0.008506772381896267,0.7319444444444444
0.008506772381896267,0.7326388888888888
0.008523290386521309,0.7326388888888888
0.008523290386521309,0.7333333333333333
0.008556326395771391,0.7333333333333333
0.008556326395771391,0.7340277777777777
0.008605880409646514,0.7340277777777777
0.008605880409646514,0.7347222222222223
0.008688470432771721,0.7347222222222223
0.008721506442021803,0.7347222222222223
0.008738024446646845,0.7347222222222223
0.008738024446646845,0.7354166666666667
0.008771060455896929,0.7354166666666667
0.008771060455896929,0.7361111111111112
0.008903204492897257,0.7361111111111112
0.008903204492897257,0.7368055555555556
0.00905186653452263,0.7368055555555556
0.00905186653452263,0.7375
0.009084902543772711,0.7375
0.009084902543772711,0.7381944444444445
0.009233564585398084,0.7381944444444445
0.009233564585398084,0.7395833333333334
0.009266600594648167,0.7395833333333334
0.009266600594648167,0.7402777777777778
0.009283118599273207,0.7402777777777778
0.009283118599273207,0.7409722222222223
0.009299636603898249,0.7409722222222223
0.009299636603898249,0.7416666666666667
0.009332672613148331,0.7416666666666667
0.009349190617773373,0.7416666666666667
0.009349190617773373,0.7423611111111111
0.009415262636273538,0.7423611111111111
0.009415262636273538,0.7430555555555556
0.009464816650148661,0.7430555555555556
0.009464816650148661,0.74375
0.009497852659398745,0.74375
0.009497852659398745,0.7451388888888889
0.009514370664023787,0.7458333333333333
0.009530888668648827,0.7458333333333333
0.009530888668648827,0.7465277777777778
0.00958044268252395,0.7465277777777778
0.00958044268252395,0.7472222222222222
0.009629996696399076,0.7472222222222222
0.009629996696399076,0.7486111111111111
0.009729104724149323,0.7486111111111111
0.009729104724149323,0.75
0.009795176742649488,0.75
0.009795176742649488,0.7506944444444444
0.00982821275189957,0.7506944444444444
0.00982821275189957,0.7513888888888889
0.00994383878427486,0.7513888888888889
0.00994383878427486,0.7520833333333333
0.010109018830525273,0.7520833333333333
0.010109018830525273,0.7527777777777778
0.010125536835150314,0.7527777777777778
0.010125536835150314,0.7534722222222222
0.010274198876775685,0.7534722222222222
0.010274198876775685,0.7541666666666667
0.010290716881400727,0.7541666666666667
0.010290716881400727,0.7548611111111111
0.01034027089527585,0.7548611111111111
0.01034027089527585,0.7555555555555555
0.010356788899900892,0.7555555555555555
0.010356788899900892,0.75625
0.01045589692765114,0.75625
0.01045589692765114,0.7569444444444444
0.010472414932276181,0.7569444444444444
0.010472414932276181,0.7576388888888889
0.01058804096465147,0.7576388888888889
0.01058804096465147,0.7590277777777777
0.010703666997026759,0.7590277777777777
0.010703666997026759,0.7597222222222222
0.010918401057152296,0.7597222222222222
0.010918401057152296,0.7604166666666666
0.011067063098777667,0.7604166666666666
0.011067063098777667,0.7611111111111111
0.01110009910802775,0.7611111111111111
0.01110009910802775,0.7618055555555555
0.011133135117277832,0.7618055555555555
0.011133135117277832,0.7625
0.011149653121902874,0.7625
0.011149653121902874,0.7638888888888888
0.011232243145028081,0.7638888888888888
0.011232243145028081,0.7652777777777777
0.011281797158903204,0.7652777777777777
0.011281797158903204,0.7659722222222223
0.011314833168153286,0.7659722222222223
0.01134786917740337,0.7659722222222223
0.01134786917740337,0.7666666666666667
0.011413941195903535,0.7666666666666667
0.011413941195903535,0.7673611111111112
0.011562603237528906,0.7673611111111112
0.011562603237528906,0.7680555555555556
0.011694747274529236,0.7680555555555556
0.011694747274529236,0.7694444444444445
0.011711265279154278,0.7694444444444445
0.011711265279154278,0.7701388888888889
0.01172778328377932,0.7701388888888889
0.01172778328377932,0.7708333333333334
0.011760819293029402,0.7708333333333334
0.011810373306904525,0.7708333333333334
0.011843409316154609,0.7708333333333334
0.011909481334654774,0.7708333333333334
0.011909481334654774,0.7715277777777778
0.012008589362405021,0.7715277777777778
0.012008589362405021,0.7722222222222223
0.012173769408655435,0.7722222222222223
0.012173769408655435,0.7729166666666667
0.012405021473406013,0.7729166666666667
0.012405021473406013,0.7736111111111111
0.01250412950115626,0.7736111111111111
0.01250412950115626,0.7743055555555556
0.012553683515031383,0.7743055555555556
0.012553683515031383,0.775
0.012586719524281467,0.775
0.012586719524281467,0.7756944444444445
0.01263627353815659,0.7756944444444445
0.01263627353815659,0.7763888888888889
0.01288404360753221,0.7763888888888889
0.01288404360753221,0.7770833333333333
0.012966633630657417,0.7770833333333333
0.012966633630657417,0.7784722222222222
0.012966633630657417,0.7791666666666667
0.012999669639907499,0.7791666666666667
0.012999669639907499,0.7805555555555556
0.01301618764453254,0.7805555555555556
0.01301618764453254,0.78125
0.013049223653782622,0.78125
0.013049223653782622,0.7819444444444444
0.013429137760158572,0.7819444444444444
0.013429137760158572,0.7826388888888889
0.013445655764783614,0.7826388888888889
0.013445655764783614,0.7833333333333333
0.013528245787908821,0.7833333333333333
0.013528245787908821,0.7840277777777778
0.013544763792533861,0.7840277777777778
0.013544763792533861,0.7847222222222222
0.013924677898909811,0.7847222222222222
0.013924677898909811,0.7861111111111111
0.014007267922035018,0.7861111111111111
0.014007267922035018,0.7868055555555555
0.014089857945160225,0.7868055555555555
0.014089857945160225,0.7875
0.014337628014535845,0.7875
0.014337628014535845,0.7881944444444444
0.01440370003303601,0.7881944444444444
0.01440370003303601,0.7888888888888889
0.014436736042286092,0.7888888888888889
0.014436736042286092,0.7895833333333333
0.014486290056161215,0.7895833333333333
0.014486290056161215,0.7902777777777777
0.014601916088536504,0.7902777777777777
0.014601916088536504,0.7909722222222222
0.014684506111661711,0.7909722222222222
0.014684506111661711,0.7916666666666666
0.014849686157912123,0.7916666666666666
0.014849686157912123,0.7923611111111111
0.014866204162537165,0.7923611111111111
0.014866204162537165,0.7930555555555555
0.014948794185662372,0.7930555555555555
0.014948794185662372,0.7944444444444444
0.015213082259663033,0.7944444444444444
0.015213082259663033,0.7951388888888888
0.015394780310538488,0.7951388888888888
0.015394780310538488,0.7958333333333333
0.015411298315163528,0.7958333333333333
0.015411298315163528,0.7965277777777777
0.015510406342913776,0.7965277777777777
0.015510406342913776,0.7972222222222223
0.015592996366038982,0.7972222222222223
0.015592996366038982,0.7979166666666667
0.015626032375289065,0.7979166666666667
0.015626032375289065,0.7986111111111112
0.015642550379914105,0.7986111111111112
0.01567558638916419,0.7986111111111112
0.015708622398414272,0.7986111111111112
0.015708622398414272,0.7993055555555556
0.015741658407664356,0.7993055555555556
0.015741658407664356,0.8
0.015972910472414933,0.8
0.015972910472414933,0.8006944444444445
0.016171126527915428,0.8006944444444445
0.016171126527915428,0.8013888888888889
0.016270234555665675,0.8013888888888889
0.016270234555665675,0.8020833333333334
0.01633630657416584,0.8020833333333334
0.01633630657416584,0.8027777777777778
0.016617112652791543,0.8027777777777778
0.016617112652791543,0.8034722222222223
0.016683184671291706,0.8034722222222223
0.016683184671291706,0.8041666666666667
0.01684836471754212,0.8041666666666667
0.01684836471754212,0.8048611111111111
0.017145688800792865,0.8048611111111111
0.017145688800792865,0.8055555555555556
0.017409976874793526,0.8055555555555556
0.017409976874793526,0.80625
0.017426494879418566,0.80625
0.017426494879418566,0.8069444444444445
0.01772381896266931,0.8069444444444445
0.01772381896266931,0.8076388888888889
0.017839444995044598,0.8076388888888889
0.017839444995044598,0.8083333333333333
0.018632309217046582,0.8083333333333333
0.018632309217046582,0.8090277777777778
0.01874793524942187,0.8090277777777778
0.01874793524942187,0.8097222222222222
0.018830525272547076,0.8097222222222222
0.018830525272547076,0.8104166666666667
0.018896597291047243,0.8104166666666667
0.018896597291047243,0.8111111111111111
0.01927651139742319,0.8111111111111111
0.01927651139742319,0.8118055555555556
0.019309547406673275,0.8118055555555556
0.019309547406673275,0.8125
0.019342583415923355,0.8125
0.019342583415923355,0.8131944444444444
0.01975553353154939,0.8131944444444444
0.01975553353154939,0.8145833333333333
0.020003303600925008,0.8145833333333333
0.020003303600925008,0.8152777777777778
0.02003633961017509,0.8152777777777778
0.020399735711926,0.8152777777777778
0.020399735711926,0.8159722222222222
0.020730095804426824,0.8159722222222222
0.020730095804426824,0.8166666666666667
0.020779649818301948,0.8166666666666667
0.020779649818301948,0.8173611111111111
0.02079616782292699,0.8173611111111111
0.02079616782292699,0.8180555555555555
0.02091179385530228,0.8180555555555555
0.02091179385530228,0.8201388888888889
0.021060455896927652,0.8201388888888889
0.021060455896927652,0.8208333333333333
0.021126527915427816,0.8208333333333333
0.0211595639246779,0.8208333333333333
0.021209117938553023,0.8208333333333333
0.021209117938553023,0.8215277777777777
0.021539478031053848,0.8215277777777777
0.021539478031053848,0.8222222222222222
0.021704658077304262,0.8222222222222222
0.021704658077304262,0.8229166666666666
0.021968946151304923,0.8229166666666666
0.021968946151304923,0.8236111111111111
0.02206805417905517,0.8236111111111111
0.022101090188305254,0.8236111111111111
0.022299306243805748,0.8236111111111111
0.022299306243805748,0.8243055555555555
0.02243145028080608,0.8243055555555555
0.02243145028080608,0.8256944444444444
0.022613148331681533,0.8256944444444444
0.022613148331681533,0.8263888888888888
0.0226792203501817,0.8263888888888888
0.0226792203501817,0.8270833333333333
0.02269573835480674,0.8270833333333333
0.02269573835480674,0.8277777777777777
0.02310868847043277,0.8277777777777777
0.023141724479682855,0.8277777777777777
0.023637264618434094,0.8277777777777777
0.023637264618434094,0.8284722222222223
0.023653782623059134,0.8284722222222223
0.023653782623059134,0.8291666666666667
0.023686818632309217,0.8291666666666667
0.023686818632309217,0.8319444444444445
0.0237198546415593,0.8319444444444445
0.0237198546415593,0.8326388888888889
0.023785926660059464,0.8326388888888889
0.023785926660059464,0.8333333333333334
0.023818962669309548,0.8333333333333334
0.023818962669309548,0.8340277777777778
0.023835480673934588,0.8340277777777778
0.023835480673934588,0.8347222222222223
0.02388503468780971,0.8347222222222223
0.02388503468780971,0.8354166666666667
0.02396762471093492,0.8354166666666667
0.02396762471093492,0.8361111111111111
0.02408325074331021,0.8361111111111111
0.02408325074331021,0.8368055555555556
0.02409976874793525,0.8368055555555556
0.02409976874793525,0.8375
0.024132804757185333,0.8375
0.024132804757185333,0.8381944444444445
0.024198876775685496,0.8381944444444445
0.024198876775685496,0.8395833333333333
0.024331020812685827,0.8395833333333333
0.024331020812685827,0.8402777777777778
0.024397092831185994,0.8402777777777778
0.024397092831185994,0.8409722222222222
0.024430128840436074,0.8409722222222222
0.024430128840436074,0.8416666666666667
0.024578790882061448,0.8416666666666667
0.024578790882061448,0.8423611111111111
0.02472745292368682,0.8423611111111111
0.024760488932936902,0.8423611111111111
0.02514040303931285,0.8423611111111111
0.02514040303931285,0.8430555555555556
0.025173439048562934,0.8430555555555556
0.025173439048562934,0.84375
0.025189957053187974,0.84375
0.025189957053187974,0.8444444444444444
0.02538817310868847,0.8444444444444444
0.02538817310868847,0.8451388888888889
0.025536835150313842,0.8451388888888889
0.025536835150313842,0.8458333333333333
0.025586389164188966,0.8458333333333333
0.025586389164188966,0.8465277777777778
0.025652461182689133,0.8465277777777778
0.025652461182689133,0.8472222222222222
0.02591674925668979,0.8472222222222222
0.025949785265939874,0.8472222222222222
0.026197555335315495,0.8472222222222222
0.026197555335315495,0.8479166666666667
0.026329699372315826,0.8479166666666667
0.026329699372315826,0.8486111111111111
0.02641228939544103,0.8486111111111111
0.02641228939544103,0.8493055555555555
0.026478361413941196,0.8493055555555555
0.026478361413941196,0.85
0.026627023455566567,0.85
0.026627023455566567,0.8506944444444444
0.02680872150644202,0.8506944444444444
0.02680872150644202,0.8513888888888889
0.028014535844070036,0.8513888888888889
0.028014535844070036,0.8520833333333333
0.028080607862570203,0.8520833333333333
0.028080607862570203,0.8527777777777777
0.028245787908820614,0.8527777777777777
0.028245787908820614,0.8534722222222222
0.028394449950445984,0.8534722222222222
0.028394449950445984,0.8541666666666666
0.028774364056821936,0.8541666666666666
0.02880740006607202,0.8541666666666666
0.02893954410307235,0.8541666666666666
0.02893954410307235,0.8548611111111111
0.029055170135447637,0.8548611111111111
0.029055170135447637,0.8555555555555555
0.02922035018169805,0.8555555555555555
0.02922035018169805,0.85625
0.02945160224644863,0.85625
0.029484638255698713,0.85625
0.029831516352824577,0.85625
0.029831516352824577,0.8569444444444444
0.02986455236207466,0.8569444444444444
0.030673934588701685,0.8569444444444444
0.030673934588701685,0.8576388888888888
0.03087215064420218,0.8576388888888888
0.03087215064420218,0.8583333333333333
0.03098777667657747,0.8583333333333333
0.03098777667657747,0.8590277777777777
0.031169474727452923,0.8590277777777777
0.031202510736703007,0.8590277777777777
0.031202510736703007,0.8597222222222223
0.03135117277832838,0.8597222222222223
0.03135117277832838,0.8604166666666667
0.031797158903204496,0.8604166666666667
0.031797158903204496,0.8611111111111112
0.03202841096795507,0.8611111111111112
0.03202841096795507,0.8618055555555556
0.032375289065080935,0.8618055555555556
0.032375289065080935,0.8625
0.03262305913445656,0.8625
0.03262305913445656,0.8631944444444445
0.03316815328708292,0.8631944444444445
0.03316815328708292,0.8638888888888889
0.033234225305583086,0.8638888888888889
0.033234225305583086,0.8645833333333334
0.03346547737033367,0.8645833333333334
0.03346547737033367,0.8652777777777778
0.033564585398083914,0.8652777777777778
0.033564585398083914,0.8659722222222223
0.03361413941195904,0.8659722222222223
0.03361413941195904,0.8666666666666667
0.034126197555335316,0.8666666666666667
0.034126197555335316,0.8673611111111111
0.034159233564585396,0.8673611111111111
0.034159233564585396,0.8680555555555556
0.03417575156921044,0.8680555555555556
0.03417575156921044,0.86875
0.034225305583085563,0.86875
0.034225305583085563,0.8694444444444445
0.034258341592335644,0.8694444444444445
0.03429137760158573,0.8694444444444445
0.03447307565246118,0.8694444444444445
0.03447307565246118,0.8701388888888889
0.034489593657086225,0.8701388888888889
0.034489593657086225,0.8708333333333333
0.03457218368021143,0.8708333333333333
0.034605219689461515,0.8708333333333333
0.03501816980508755,0.8708333333333333
0.03501816980508755,0.8715277777777778
0.03528245787908821,0.8715277777777778
0.03528245787908821,0.8722222222222222
0.03534852989758837,0.8722222222222222
0.03534852989758837,0.8729166666666667
0.03539808391146349,0.8729166666666667
0.03539808391146349,0.8736111111111111
0.03566237198546415,0.8736111111111111
0.03566237198546415,0.8743055555555556
0.03587710604558969,0.8743055555555556
0.03591014205483978,0.8743055555555556
0.036042286091840105,0.8743055555555556
0.036042286091840105,0.875
0.036124876114965315,0.875
0.036124876114965315,0.8756944444444444
0.036521308225966304,0.8756944444444444
0.036521308225966304,0.8763888888888889
0.03691774033696729,0.8763888888888889
0.03695077634621738,0.8763888888888889
0.03766105054509415,0.8763888888888889
0.03766105054509415,0.8770833333333333
0.037941856623719857,0.8770833333333333
0.037941856623719857,0.8777777777777778
0.03800792864222002,0.8777777777777778
0.03800792864222002,0.8784722222222222
0.0382391807069706,0.8784722222222222
0.0382391807069706,0.8791666666666667
0.03827221671622068,0.8791666666666667
0.038305252725470765,0.8791666666666667
0.039197224975222995,0.8791666666666667
0.039197224975222995,0.8798611111111111
0.0392798149983482,0.8798611111111111
0.03931285100759828,0.8798611111111111
0.03990749917409977,0.8798611111111111
0.03990749917409977,0.8805555555555555
0.04028741328047572,0.8805555555555555
0.04028741328047572,0.88125
0.040667327386851665,0.88125
0.040667327386851665,0.8819444444444444
0.04070036339610175,0.8819444444444444
0.04070036339610175,0.8826388888888889
0.04147670961347869,0.8826388888888889
0.04147670961347869,0.8833333333333333
0.04222001982160555,0.8833333333333333
0.04222001982160555,0.8840277777777777
0.04248430789560621,0.8840277777777777
0.04251734390485629,0.8840277777777777
0.042930294020482325,0.8840277777777777
0.042930294020482325,0.8847222222222222
0.04299636603898249,0.8847222222222222
0.04299636603898249,0.8854166666666666
0.04302940204823257,0.8854166666666666
0.04302940204823257,0.8861111111111111
0.04372315824248431,0.8861111111111111
0.04372315824248431,0.8868055555555555
0.04388833828873472,0.8868055555555555
0.04388833828873472,0.8875
0.0443178064089858,0.8875
0.0443178064089858,0.8881944444444444
0.044334324413610834,0.8881944444444444
0.044334324413610834,0.8888888888888888
0.044598612487611496,0.8888888888888888
0.04463164849686158,0.8888888888888888
0.04494549058473736,0.8888888888888888
0.04497852659398745,0.8888888888888888
0.04502808060786257,0.8888888888888888
0.04502808060786257,0.8895833333333333
0.04628344895936571,0.8895833333333333
0.04628344895936571,0.8902777777777777
0.04633300297324083,0.8902777777777777
0.04633300297324083,0.8909722222222223
0.046778989098116945,0.8909722222222223
0.04681202510736703,0.8909722222222223
0.04727452923686819,0.8909722222222223
0.04727452923686819,0.8916666666666667
0.04750578130161876,0.8916666666666667
0.04750578130161876,0.8923611111111112
0.048298645523620745,0.8923611111111112
0.048298645523620745,0.8930555555555556
0.04843078956062108,0.8930555555555556
0.04846382556987116,0.8930555555555556
0.050214734060125533,0.8930555555555556
0.050214734060125533,0.89375
0.05046250412950116,0.89375
0.05046250412950116,0.8944444444444445
0.05049554013875124,0.8944444444444445
0.05049554013875124,0.8951388888888889
0.05051205814337628,0.8951388888888889
0.05051205814337628,0.8958333333333334
0.051304922365378265,0.8958333333333334
0.051304922365378265,0.8965277777777778
0.051486620416253716,0.8965277777777778
0.051486620416253716,0.8972222222222223
0.05168483647175421,0.8972222222222223
0.05170135447637925,0.8979166666666667
0.05209778658738024,0.8979166666666667
0.05209778658738024,0.8986111111111111
0.052857614800132145,0.8986111111111111
0.052890650809382225,0.8986111111111111
0.05305583085563264,0.8986111111111111
0.05305583085563264,0.9
0.053187974892632967,0.9
0.053221010901883054,0.9
0.053336636934258344,0.9
0.053369672943508424,0.9
0.053865213082259666,0.9
0.053865213082259666,0.9006944444444445
0.05409646514701024,0.9006944444444445
0.05409646514701024,0.9013888888888889
0.054410307234886025,0.9013888888888889
0.054410307234886025,0.9020833333333333
0.055186653452262965,0.9020833333333333
0.055186653452262965,0.9027777777777778
0.0554013875123885,0.9027777777777778
0.05543442352163858,0.9027777777777778
0.055632639577139084,0.9027777777777778
0.055632639577139084,0.9034722222222222
0.05678889990089197,0.9034722222222222
0.05678889990089197,0.9041666666666667
0.057631318136769076,0.9041666666666667
0.05766435414601916,0.9041666666666667
0.058225966303270565,0.9041666666666667
0.058225966303270565,0.9048611111111111
0.05842418235877106,0.9048611111111111
0.05842418235877106,0.9055555555555556
0.058704988437396764,0.9055555555555556
0.058704988437396764,0.90625
0.05875454245127189,0.90625
0.05878757846052197,0.90625
0.05946481665014866,0.90625
0.05946481665014866,0.9069444444444444
0.06009250082590023,0.9069444444444444
0.06009250082590023,0.9076388888888889
0.060224644862900564,0.9076388888888889
0.060224644862900564,0.9083333333333333
0.06027419887677569,0.9083333333333333
0.06030723488602577,0.9083333333333333
0.06093491906177734,0.9083333333333333
0.06093491906177734,0.9090277777777778
0.06265279154278164,0.9090277777777778
0.06268582755203171,0.9090277777777778
0.06286752560290716,0.9090277777777778
0.06286752560290716,0.9097222222222222
0.0639246778989098,0.9097222222222222
0.0639577139081599,0.9097222222222222
0.06481665014866204,0.9097222222222222
0.06484968615791212,0.9097222222222222
0.06494879418566238,0.9097222222222222
0.06494879418566238,0.9104166666666667
0.06580773042616452,0.9104166666666667
0.06580773042616452,0.9111111111111111
0.06729435084241824,0.9111111111111111
0.06729435084241824,0.9118055555555555
0.06740997687479353,0.9118055555555555
0.06744301288404361,0.9118055555555555
0.068401057152296,0.9118055555555555
0.068401057152296,0.9125
0.06886356128179716,0.9125
0.06886356128179716,0.9131944444444444
0.06914436736042286,0.9131944444444444
0.06914436736042286,0.9138888888888889
0.0691608853650479,0.9138888888888889
0.0691608853650479,0.9145833333333333
0.06978856954079947,0.9145833333333333
0.06978856954079947,0.9152777777777777
0.07015196564255038,0.9152777777777777
0.07015196564255038,0.9159722222222222
0.0709613478691774,0.9159722222222222
0.07099438387842749,0.9159722222222222
0.07155599603567889,0.9159722222222222
0.07155599603567889,0.9166666666666666
0.07158903204492897,0.9166666666666666
0.07158903204492897,0.9173611111111111
0.0719193921374298,0.9173611111111111
0.0719193921374298,0.9180555555555555
0.072001982160555,0.9180555555555555
0.072001982160555,0.91875
0.07249752229930624,0.91875
0.07249752229930624,0.9194444444444444
0.07259663032705649,0.9194444444444444
0.07259663032705649,0.9201388888888888
0.07451271886356128,0.9201388888888888
0.07451271886356128,0.9208333333333333
0.07606541129831516,0.9208333333333333
0.07606541129831516,0.9215277777777777
0.07614800132144037,0.9215277777777777
0.07614800132144037,0.9222222222222223
0.07644532540469111,0.9222222222222223
0.07644532540469111,0.9229166666666667
0.07707300958044268,0.9229166666666667
0.07707300958044268,0.9243055555555556
0.07846052196894615,0.9243055555555556
0.07846052196894615,0.925
0.07908820614469772,0.925
0.07912124215394781,0.925
0.08032705649157582,0.925
0.0803600925008259,0.925
0.08125206475057813,0.925
0.08128510075982821,0.925
0.08138420878757846,0.925
0.08138420878757846,0.9256944444444445
0.08189626693095474,0.9256944444444445
0.08189626693095474,0.9263888888888889
0.08374628344895936,0.9263888888888889
0.08374628344895936,0.9270833333333334
0.08377931945820945,0.9270833333333334
0.08377931945820945,0.9277777777777778
0.08521638586058804,0.9277777777777778
0.08521638586058804,0.9284722222222223
0.08571192599933929,0.9284722222222223
0.08574496200858936,0.9284722222222223
0.08589362405021474,0.9284722222222223
0.08592666005946481,0.9284722222222223
0.08645523620746613,0.9284722222222223
0.08648827221671622,0.9284722222222223
0.08757846052196895,0.9284722222222223
0.08757846052196895,0.9291666666666667
0.08840436075322101,0.9291666666666667
0.08843739676247109,0.9291666666666667
0.08946151304922366,0.9291666666666667
0.08946151304922366,0.9298611111111111
0.08947803105384869,0.9298611111111111
0.08947803105384869,0.9305555555555556
0.08951106706309878,0.9305555555555556
0.08951106706309878,0.93125
0.08964321110009911,0.93125
0.0896762471093492,0.93125
0.09000660720185001,0.93125
0.09000660720185001,0.9319444444444445
0.0902048232573505,0.9319444444444445
0.0902048232573505,0.9326388888888889
0.09106375949785266,0.9326388888888889
0.09106375949785266,0.9333333333333333
0.09169144367360423,0.9333333333333333
0.09172447968285431,0.9333333333333333
0.09185662371985465,0.9333333333333333
0.09188965972910472,0.9333333333333333
0.09208787578460521,0.9333333333333333
0.0921209117938553,0.9333333333333333
0.09293029402048232,0.9333333333333333
0.09293029402048232,0.9340277777777778
0.0932441361083581,0.9340277777777778
0.0932441361083581,0.9347222222222222
0.09443343244136108,0.9347222222222222
0.09443343244136108,0.9354166666666667
0.09494549058473736,0.9354166666666667
0.09494549058473736,0.9361111111111111
0.09502808060786257,0.9361111111111111
0.09506111661711265,0.9361111111111111
0.0950776346217377,0.9361111111111111
0.0950776346217377,0.9368055555555556
0.09682854311199207,0.9368055555555556
0.09682854311199207,0.9375
0.09691113313511728,0.9375
0.09694416914436736,0.9375
0.09831516352824579,0.9375
0.09831516352824579,0.9381944444444444
0.09981830194912454,0.9381944444444444
0.09985133795837463,0.9381944444444444
0.1,0.9381944444444444
0.10003303600925008,0.9381944444444444
0.10046250412950115,0.9381944444444444
0.10049554013875124,0.9381944444444444
0.10097456227287743,0.9381944444444444
0.10100759828212752,0.9381944444444444
0.10109018830525272,0.9381944444444444
0.10109018830525272,0.9388888888888889
0.10125536835150314,0.9388888888888889
0.10125536835150314,0.9395833333333333
0.10231252064750578,0.9395833333333333
0.10231252064750578,0.9402777777777778
0.10365047902213413,0.9402777777777778
0.10365047902213413,0.9409722222222222
0.10411298315163528,0.9409722222222222
0.10411298315163528,0.9416666666666667
0.10467459530888669,0.9416666666666667
0.10467459530888669,0.9423611111111111
0.10477370333663694,0.9423611111111111
0.10477370333663694,0.9430555555555555
0.10538486950776346,0.9430555555555555
0.10541790551701355,0.9430555555555555
0.10723488602576808,0.9430555555555555
0.10726792203501817,0.9430555555555555
0.10832507433102082,0.9430555555555555
0.10832507433102082,0.94375
0.10847373637264618,0.94375
0.10847373637264618,0.9444444444444444
0.10895275850677238,0.9444444444444444
0.10898579451602246,0.9444444444444444
0.10906838453914768,0.9444444444444444
0.10908490254377272,0.9451388888888889
0.10972910472414932,0.9451388888888889
0.1097621407333994,0.9451388888888889
0.1098777667657747,0.9451388888888889
0.1098777667657747,0.9458333333333333
0.11357779980178394,0.9458333333333333
0.11361083581103402,0.9458333333333333
0.11380905186653452,0.9458333333333333
0.11380905186653452,0.9465277777777777
0.11532870829203833,0.9465277777777777
0.1153617443012884,0.9465277777777777
0.11691443673604228,0.9465277777777777
0.11694747274529237,0.9465277777777777
0.11925999339279815,0.9465277777777777
0.11929302940204824,0.9465277777777777
0.12127518995705319,0.9465277777777777
0.12129170796167824,0.9472222222222222
0.12433102081268582,0.9472222222222222
0.12436405682193591,0.9472222222222222
0.1244796828543112,0.9472222222222222
0.12451271886356129,0.9472222222222222
0.1250412950115626,0.9472222222222222
0.1250743310208127,0.9472222222222222
0.1285265939874463,0.9472222222222222
0.1285596299966964,0.9472222222222222
0.12989758837132476,0.9472222222222222
0.12993062438057482,0.9472222222222222
0.13102081268582755,0.9472222222222222
0.13102081268582755,0.9479166666666666
0.13225966303270564,0.9479166666666666
0.13225966303270564,0.9486111111111111
0.13237528906508095,0.9486111111111111
0.132408325074331,0.9486111111111111
0.13287082920383217,0.9486111111111111
0.13290386521308226,0.9486111111111111
0.13361413941195904,0.9486111111111111
0.13364717542120913,0.9486111111111111
0.13434093161546085,0.9486111111111111
0.13434093161546085,0.9493055555555555
0.1348364717542121,0.9493055555555555
0.13485298975883714,0.95
0.13617443012884042,0.95
0.13617443012884042,0.9506944444444444
0.13681863230921704,0.9506944444444444
0.13681863230921704,0.9513888888888888
0.1370003303600925,0.9513888888888888
0.1370003303600925,0.9520833333333333
0.14017178724810042,0.9520833333333333
0.1402048232573505,0.9520833333333333
0.14065080938222663,0.9520833333333333
0.14068384539147671,0.9520833333333333
0.14098116947472744,0.9520833333333333
0.14098116947472744,0.9527777777777777
0.14170796167822927,0.9527777777777777
0.14174099768747936,0.9527777777777777
0.14230260984473075,0.9527777777777777
0.14230260984473075,0.9534722222222223
0.14626693095474066,0.9534722222222223
0.14626693095474066,0.9541666666666667
0.14722497522299305,0.9541666666666667
0.14725801123224314,0.9541666666666667
0.1480343574496201,0.9541666666666667
0.14806739345887016,0.9541666666666667
0.1491575817641229,0.9541666666666667
0.14919061777337297,0.9541666666666667
0.1497687479352494,0.9541666666666667
0.1498017839444995,0.9541666666666667
0.15069375619425174,0.9541666666666667
0.15072679220350182,0.9541666666666667
0.15145358440700363,0.9541666666666667
0.15148662041625371,0.9541666666666667
0.15257680872150645,0.9541666666666667
0.15260984473075653,0.9541666666666667
0.15322101090188306,0.9541666666666667
0.15322101090188306,0.9548611111111112
0.1539643211100099,0.9548611111111112
0.1539643211100099,0.9555555555555556
0.15718533201189297,0.9555555555555556
0.15721836802114306,0.9555555555555556
0.15774694416914437,0.9555555555555556
0.15777998017839445,0.9555555555555556
0.15806078625702016,0.9555555555555556
0.15806078625702016,0.95625
0.15860588040964652,0.95625
0.1586389164188966,0.95625
0.1598447307565246,0.95625
0.1598447307565246,0.9569444444444445
0.16304922365378263,0.9569444444444445
0.16308225966303272,0.9569444444444445
0.16369342583415925,0.9569444444444445
0.16369342583415925,0.9576388888888889
0.16448629005616122,0.9576388888888889
0.1645193260654113,0.9576388888888889
0.16610505450941526,0.9576388888888889
0.16610505450941526,0.9583333333333334
0.16942517343904856,0.9583333333333334
0.16942517343904856,0.9590277777777778
0.17153947803105385,0.9590277777777778
0.17157251404030394,0.9590277777777778
0.1716385860588041,0.9590277777777778
0.1716385860588041,0.9597222222222223
0.17216716220680542,0.9597222222222223
0.1722001982160555,0.9597222222222223
0.17269573835480673,0.9597222222222223
0.17272877436405681,0.9597222222222223
0.1731582424843079,0.9597222222222223
0.17319127849355798,0.9597222222222223
0.17378592666005946,0.9597222222222223
0.17381896266930955,0.9597222222222223
0.17611496531219029,0.9597222222222223
0.17614800132144037,0.9597222222222223
0.17689131152956722,0.9597222222222223
0.1769243475388173,0.9597222222222223
0.1786752560290717,0.9597222222222223
0.17870829203832178,0.9597222222222223
0.1804426825239511,0.9597222222222223
0.1804426825239511,0.9604166666666667
0.1808391146349521,0.9604166666666667
0.18087215064420217,0.9604166666666667
0.18237528906508094,0.9604166666666667
0.18240832507433102,0.9604166666666667
0.18447307565246118,0.9604166666666667
0.18447307565246118,0.9611111111111111
0.18577799801783945,0.9611111111111111
0.18581103402708954,0.9611111111111111
0.18723158242484308,0.9611111111111111
0.18723158242484308,0.9618055555555556
0.18794185662371984,0.9618055555555556
0.18797489263296993,0.9618055555555556
0.18825569871159564,0.9618055555555556
0.18828873472084573,0.9618055555555556
0.18865213082259663,0.9618055555555556
0.18868516683184672,0.9618055555555556
0.1887677568549719,0.9618055555555556
0.188800792864222,0.9618055555555556
0.18990749917409977,0.9618055555555556
0.18990749917409977,0.9625
0.19002312520647505,0.9625
0.19005616121572513,0.9625
0.19017178724810044,0.9625
0.19020482325735052,0.9625
0.1925999339279815,0.9625
0.19263296993723159,0.9625
0.19286422200198217,0.9625
0.19289725801123225,0.9625
0.19377271225635942,0.9625
0.1938057482656095,0.9625
0.19425173439048563,0.9625
0.19425173439048563,0.9631944444444445
0.1950776346217377,0.9631944444444445
0.1950776346217377,0.9638888888888889
0.1955236207466138,0.9638888888888889
0.1955236207466138,0.9645833333333333
0.19725801123224315,0.9645833333333333
0.19725801123224315,0.9652777777777778
0.1981169474727453,0.9652777777777778
0.19814998348199536,0.9652777777777778
0.1981665014866204,0.9652777777777778
0.1981995374958705,0.9652777777777778
0.1986785596299967,0.9652777777777778
0.19871159563924679,0.9652777777777778
0.199603567888999,0.9652777777777778
0.19963660389824908,0.9652777777777778
0.2004294681202511,0.9652777777777778
0.2004294681202511,0.9659722222222222
0.2023290386521308,0.9659722222222222
0.2023290386521308,0.9666666666666667
0.20285761480013215,0.9666666666666667
0.20289065080938223,0.9666666666666667
0.20330360092500827,0.9666666666666667
0.20333663693425835,0.9666666666666667
0.2045589692765114,0.9666666666666667
0.2045920052857615,0.9666666666666667
0.2080442682523951,0.9666666666666667
0.2080442682523951,0.9673611111111111
0.20923356458539807,0.9673611111111111
0.20923356458539807,0.9680555555555556
0.20958044268252396,0.9680555555555556
0.20958044268252396,0.96875
0.20969606871489924,0.96875
0.20969606871489924,0.9694444444444444
0.21017509084902544,0.9694444444444444
0.21020812685827553,0.9694444444444444
0.21076973901552692,0.9694444444444444
0.210802775024777,0.9694444444444444
0.2110340270895276,0.9694444444444444
0.21106706309877768,0.9694444444444444
0.21214073339940534,0.9694444444444444
0.21217376940865543,0.9694444444444444
0.21235546745953088,0.9694444444444444
0.21238850346878096,0.9694444444444444
0.21293359762140734,0.9694444444444444
0.21293359762140734,0.9701388888888889
0.21351172778328378,0.9701388888888889
0.21354476379253387,0.9701388888888889
0.21617112652791542,0.9701388888888889
0.2162041625371655,0.9701388888888889
0.21665014866204163,0.9701388888888889
0.21665014866204163,0.9708333333333333
0.21701354476379253,0.9708333333333333
0.21706309877766766,0.9708333333333333
0.21778989098116946,0.9708333333333333
0.21782292699041955,0.9708333333333333
0.21816980508754544,0.9708333333333333
0.21816980508754544,0.9715277777777778
0.21897918731417246,0.9715277777777778
0.21897918731417246,0.9729166666666667
0.21968946151304922,0.9729166666666667
0.2197224975222993,0.9729166666666667
0.2197555335315494,0.9729166666666667
0.21978856954079948,0.9729166666666667
0.22041625371655105,0.9729166666666667
0.22041625371655105,0.9736111111111111
0.22063098777667658,0.9736111111111111
0.22066402378592667,0.9736111111111111
0.22114304592005285,0.9736111111111111
0.22117608192930294,0.9736111111111111
0.22158903204492897,0.9736111111111111
0.22162206805417906,0.9736111111111111
0.22322431450280805,0.9736111111111111
0.22325735051205814,0.9736111111111111
0.22472745292368682,0.9736111111111111
0.2247604889329369,0.9736111111111111
0.2258341592335646,0.9736111111111111
0.22586719524281468,0.9736111111111111
0.22629666336306575,0.9736111111111111
0.2263296993723158,0.9736111111111111
0.2280475718533201,0.9736111111111111
0.2280806078625702,0.9736111111111111
0.22846052196894615,0.9736111111111111
0.22849355797819623,0.9736111111111111
0.22978196233894946,0.9736111111111111
0.22978196233894946,0.9743055555555555
0.23011232243145027,0.9743055555555555
0.23014535844070036,0.9743055555555555
0.23017839444995045,0.9743055555555555
0.23021143045920053,0.9743055555555555
0.23093822266270234,0.9743055555555555
0.23093822266270234,0.975
0.2313181367690783,0.975
0.23135117277832837,0.975
0.2324413610835811,0.975
0.2324743970928312,0.975
0.234803435744962,0.975
0.2348364717542121,0.975
0.23800792864222,0.975
0.2380409646514701,0.975
0.23949454905847373,0.975
0.2395275850677238,0.975
0.24117938553022794,0.975
0.24121242153947803,0.975
0.24141063759497852,0.975
0.2414436736042286,0.975
0.24626693095474067,0.975
0.24629996696399076,0.975
0.24737363726461845,0.975
0.2474066732738685,0.975
0.24796828543111993,0.975
0.24800132144037002,0.975
0.24805087545424512,0.975
0.2480839114634952,0.975
0.24871159563924677,0.975
0.24874463164849686,0.975
0.24917409976874794,0.975
0.24920713577799802,0.975
0.25185001651800465,0.975
0.2518830525272547,0.975
0.25308886686488274,0.975
0.25308886686488274,0.9756944444444444
0.2538321770730096,0.9756944444444444
0.2538652130822597,0.9756944444444444
0.25450941526263626,0.9756944444444444
0.25454245127188635,0.9756944444444444
0.2556491575817641,0.9756944444444444
0.2556821935910142,0.9756944444444444
0.25725140403039315,0.9756944444444444
0.25728444003964324,0.9756944444444444
0.25794516022464486,0.9756944444444444
0.25794516022464486,0.9763888888888889
0.2579616782292699,0.9763888888888889
0.25799471423852,0.9763888888888889
0.25814337628014533,0.9763888888888889
0.2581764122893954,0.9763888888888889
0.2601585728444004,0.9763888888888889
0.2601916088536505,0.9763888888888889
0.26110009910802773,0.9763888888888889
0.2611331351172778,0.9763888888888889
0.2622398414271556,0.9763888888888889
0.2622728774364057,0.9763888888888889
0.2627023455566568,0.9763888888888889
0.2627353815659068,0.9763888888888889
0.2627353815659068,0.9770833333333333
0.2660885365047902,0.9770833333333333
0.2660885365047902,0.9777777777777777
0.2751073670300628,0.9777777777777777
0.27514040303931286,0.9777777777777777
0.2766765774694417,0.9777777777777777
0.2767096134786918,0.9777777777777777
0.27753551370994384,0.9777777777777777
0.2775685497191939,0.9777777777777777
0.27816319788569543,0.9777777777777777
0.27816319788569543,0.9784722222222222
0.278394449950446,0.9784722222222222
0.2784274859596961,0.9784722222222222
0.28070697059795174,0.9784722222222222
0.28074000660720183,0.9784722222222222
0.28235877106045587,0.9784722222222222
0.28239180706970596,0.9784722222222222
0.28250743310208126,0.9784722222222222
0.28254046911133135,0.9784722222222222
0.2826065411298315,0.9784722222222222
0.2826726131483317,0.9784722222222222
0.28344895936570863,0.9784722222222222
0.28344895936570863,0.9791666666666666
0.28401057152296005,0.9791666666666666
0.28401057152296005,0.9798611111111111
0.2850346878097126,0.9798611111111111
0.28506772381896267,0.9798611111111111
0.2863230921704658,0.9798611111111111
0.2863230921704658,0.9805555555555555
0.28761149653121904,0.9805555555555555
0.2876445325404691,0.9805555555555555
0.2882556987115956,0.9805555555555555
0.2882887347208457,0.9805555555555555
0.28885034687809713,0.9805555555555555
0.2888833828873472,0.9805555555555555
0.2900396432111001,0.9805555555555555
0.2900726792203502,0.9805555555555555
0.2901883052527255,0.9805555555555555
0.2902213412619756,0.9805555555555555
0.29078295341922694,0.9805555555555555
0.29081598942847703,0.9805555555555555
0.292814667988107,0.9805555555555555
0.2928477039973571,0.9805555555555555
0.2941691443673604,0.9805555555555555
0.2942021803766105,0.9805555555555555
0.29621737694086553,0.9805555555555555
0.2962504129501156,0.9805555555555555
0.29710934919061777,0.9805555555555555
0.29710934919061777,0.98125
0.2973075652461183,0.98125
0.2973406012553684,0.98125
0.30257680872150644,0.98125
0.30257680872150644,0.9819444444444444
0.30290716881400725,0.9819444444444444
0.30294020482325734,0.9819444444444444
0.3035183349851338,0.9819444444444444
0.3035513709943839,0.9819444444444444
0.30437727122563596,0.9819444444444444
0.30441030723488605,0.9819444444444444
0.30477370333663695,0.9819444444444444
0.30480673934588703,0.9819444444444444
0.3055170135447638,0.9819444444444444
0.3055500495540139,0.9819444444444444
0.30568219359101423,0.9819444444444444
0.3057152296002643,0.9819444444444444
0.3057978196233895,0.9819444444444444
0.30583085563263956,0.9819444444444444
0.30721836802114305,0.9819444444444444
0.30725140403039314,0.9819444444444444
0.3074165840766435,0.9819444444444444
0.3074165840766435,0.9826388888888888
0.3088371324743971,0.9826388888888888
0.3088701684836472,0.9826388888888888
0.3091179385530228,0.9826388888888888
0.30915097456227286,0.9826388888888888
0.311612157251404,0.9826388888888888
0.311612157251404,0.9833333333333333
0.3117608192930294,0.9833333333333333
0.3117938553022795,0.9833333333333333
0.3118434093161546,0.9833333333333333
0.3118764453254047,0.9833333333333333
0.31202510736703004,0.9833333333333333
0.31205814337628013,0.9833333333333333
0.31261975553353155,0.9833333333333333
0.31261975553353155,0.9840277777777777
0.3154443343244136,0.9840277777777777
0.3154773703336637,0.9840277777777777
0.3156260323752891,0.9840277777777777
0.3156425503799141,0.9847222222222223
0.3160389824909151,0.9847222222222223
0.3160720185001652,0.9847222222222223
0.31737694086554347,0.9847222222222223
0.3174099768747935,0.9847222222222223
0.31922695738354806,0.9847222222222223
0.31925999339279815,0.9847222222222223
0.32258011232243144,0.9847222222222223
0.32261314833168153,0.9847222222222223
0.3232243145028081,0.9847222222222223
0.3232573505120581,0.9847222222222223
0.3239180706970598,0.9847222222222223
0.3239180706970598,0.9854166666666667
0.3240336967294351,0.9854166666666667
0.3240336967294351,0.9861111111111112
0.32510736703006277,0.9861111111111112
0.32514040303931285,0.9861111111111112
0.328807400066072,0.9861111111111112
0.3288404360753221,0.9861111111111112
0.3311199207135778,0.9861111111111112
0.3311529567228279,0.9861111111111112
0.331615460852329,0.9861111111111112
0.3316484968615791,0.9861111111111112
0.3322431450280806,0.9861111111111112
0.3322431450280806,0.9868055555555556
0.3343244136108358,0.9868055555555556
0.3343574496200859,0.9868055555555556
0.34094813346547737,0.9868055555555556
0.34098116947472745,0.9868055555555556
0.3417575156921044,0.9868055555555556
0.3417905517013545,0.9868055555555556
0.3449620085893624,0.9868055555555556
0.34499504459861247,0.9868055555555556
0.3452428146679881,0.9868055555555556
0.3452758506772382,0.9868055555555556
0.3463330029732408,0.9868055555555556
0.3463660389824909,0.9868055555555556
0.3487611496531219,0.9868055555555556
0.34879418566237197,0.9868055555555556
0.35042946812025105,0.9868055555555556
0.35046250412950114,0.9868055555555556
0.35127188635612816,0.9868055555555556
0.35130492236537825,0.9868055555555556
0.35163528245787906,0.9868055555555556
0.35166831846712915,0.9868055555555556
0.3516848364717542,0.9868055555555556
0.3517178724810043,0.9868055555555556
0.3518830525272547,0.9868055555555556
0.3519160885365048,0.9868055555555556
0.353187974892633,0.9868055555555556
0.353187974892633,0.9875
0.3536339610175091,0.9875
0.3536669970267592,0.9875
0.35455896927651137,0.9875
0.35459200528576146,0.9875
0.35502147340601253,0.9875
0.3550545094152626,0.9875
0.35685497191939214,0.9875
0.3568880079286422,0.9875
0.35794516022464484,0.9875
0.35797819623389493,0.9875
0.3611496531219029,0.9875
0.361182689131153,0.9875
0.3620581433762802,0.9875
0.3620911793855302,0.9875
0.3626858275520317,0.9875
0.3627188635612818,0.9875
0.3666005946481665,0.9875
0.3666336306574166,0.9875
0.36912784935579784,0.9875
0.3691608853650479,0.9875
0.36934258341592335,0.9875
0.36937561942517344,0.9875
0.37061446977205154,0.9875
0.3706475057813016,0.9875
0.370796167822927,0.9875
0.37082920383217705,0.9875
0.37102741988767757,0.9875
0.37106045589692765,0.9875
0.371192599933928,0.9875
0.3712256359431781,0.9875
0.37317476048893294,0.9875
0.37320779649818303,0.9875
0.3744301288404361,0.9875
0.37446316484968617,0.9875
0.3764453254046911,0.9875
0.3764783614139412,0.9875
0.37654443343244137,0.9875
0.37661050545094155,0.9875
0.3773538156590684,0.9875
0.3773868516683185,0.9875
0.3782623059134457,0.9875
0.37829534192269576,0.9875
0.3813676907829534,0.9875
0.3814007267922035,0.9875
0.3814833168153287,0.9875
0.3815163528245788,0.9875
0.3823092170465808,0.9875
0.38234225305583086,0.9875
0.38500165180046253,0.9875
0.38503468780971256,0.9875
0.38569540799471425,0.9875
0.38572844400396433,0.9875
0.3879418566237198,0.9875
0.3879748926329699,0.9875
0.3891476709613479,0.9875
0.389180706970598,0.9875
0.39117938553022796,0.9875
0.39121242153947805,0.9875
0.3913280475718533,0.9875
0.3913280475718533,0.9881944444444445
0.39208787578460524,0.9881944444444445
0.3921209117938553,0.9881944444444445
0.39669639907499177,0.9881944444444445
0.3967294350842418,0.9881944444444445
0.39945490584737364,0.9881944444444445
0.39948794185662373,0.9881944444444445
0.4048397753551371,0.9881944444444445
0.4048728113643872,0.9881944444444445
0.40578130161876447,0.9881944444444445
0.40581433762801455,0.9881944444444445
0.4085893624050215,0.9881944444444445
0.40862239841427156,0.9881944444444445
0.4101750908490254,0.9881944444444445
0.4101750908490254,0.9888888888888889
0.41058804096465146,0.9888888888888889
0.41062107697390154,0.9888888888888889
0.4145523620746614,0.9888888888888889
0.4145853980839115,0.9888888888888889
0.4146019160885365,0.9888888888888889
0.4146349520977866,0.9888888888888889
0.4150974562272877,0.9888888888888889
0.4151304922365378,0.9888888888888889
0.4155599603567889,0.9888888888888889
0.41559299636603897,0.9888888888888889
0.41740997687479353,0.9888888888888889
0.41740997687479353,0.9895833333333334
0.41793855302279487,0.9895833333333334
0.41797158903204495,0.9895833333333334
0.418004625041295,0.9895833333333334
0.4180376610505451,0.9895833333333334
0.41830194912454577,0.9895833333333334
0.41833498513379586,0.9895833333333334
0.4207135777998018,0.9895833333333334
0.4207135777998018,0.9902777777777778
0.42178724810042945,0.9902777777777778
0.42182028410967953,0.9902777777777778
0.42566897918731417,0.9902777777777778
0.42570201519656425,0.9902777777777778
0.4303600925008259,0.9902777777777778
0.430393128510076,0.9902777777777778
0.43650479022134125,0.9902777777777778
0.43650479022134125,0.9909722222222223
0.43698381235546746,0.9909722222222223
0.43701684836471755,0.9909722222222223
0.4372481004294681,0.9909722222222223
0.4372811364387182,0.9909722222222223
0.4381565906838454,0.9909722222222223
0.43818962669309547,0.9909722222222223
0.4386356128179716,0.9909722222222223
0.4386686488272217,0.9909722222222223
0.44200528576148,0.9909722222222223
0.4420383217707301,0.9909722222222223
0.44213742979848036,0.9909722222222223
0.44217046580773045,0.9909722222222223
0.4447637925338619,0.9909722222222223
0.444796828543112,0.9909722222222223
0.44846382556987113,0.9909722222222223
0.4484968615791212,0.9909722222222223
0.4488932936901222,0.9909722222222223
0.4489263296993723,0.9909722222222223
0.44928972580112325,0.9909722222222223
0.44930624380574824,0.9923611111111111
0.45,0.9923611111111111
0.4500330360092501,0.9923611111111111
0.4526263627353816,0.9923611111111111
0.4526593987446316,0.9923611111111111
0.4527585067723819,0.9923611111111111
0.452791542781632,0.9923611111111111
0.453600925008259,0.9923611111111111
0.4536339610175091,0.9923611111111111
0.45505450941526265,0.9923611111111111
0.45508754542451274,0.9923611111111111
0.45781301618764453,0.9923611111111111
0.4578460521968946,0.9923611111111111
0.4599108027750248,0.9923611111111111
0.45994383878427486,0.9923611111111111
0.46037330690452594,0.9923611111111111
0.460406342913776,0.9923611111111111
0.4627684175751569,0.9923611111111111
0.462801453584407,0.9923611111111111
0.4628840436075322,0.9923611111111111
0.4629170796167823,0.9923611111111111
0.46296663363065743,0.9923611111111111
0.4629996696399075,0.9923611111111111
0.4634291377601586,0.9923611111111111
0.4634621737694087,0.9923611111111111
0.46425503799141066,0.9923611111111111
0.46428807400066074,0.9923611111111111
0.467591674925669,0.9923611111111111
0.4676247109349191,0.9923611111111111
0.4677568549719194,0.9923611111111111
0.4677568549719194,0.9930555555555556
0.4710109018830525,0.9930555555555556
0.4710109018830525,0.99375
0.4715229600264288,0.99375
0.4715559960356789,0.99375
0.472811364387182,0.99375
0.4728444003964321,0.99375
0.4730591344565577,0.99375
0.4730921704658077,0.99375
0.4732408325074331,0.99375
0.4732738685166832,0.99375
0.47727122563594315,0.99375
0.47730426164519324,0.99375
0.47983151635282456,0.99375
0.47986455236207465,0.99375
0.48308556326395774,0.99375
0.48311859927320777,0.99375
0.4834654773703337,0.99375
0.48349851337958377,0.99375
0.48445655764783613,0.99375
0.4844895936570862,0.99375
0.48462173769408656,0.99375
0.48465477370333665,0.99375
0.4890155269243475,0.99375
0.4890485629335976,0.99375
0.49286422200198216,0.99375
0.49289725801123224,0.99375
0.4943178064089858,0.99375
0.4943508424182359,0.99375
0.4948959365708622,0.99375
0.4949289725801123,0.99375
0.49750578130161877,0.99375
0.49753881731086885,0.99375
0.5001156260323752,0.99375
0.5001156260323752,0.9944444444444445
0.5014040303931285,0.9944444444444445
0.5014040303931285,0.9951388888888889
0.5045424512718863,0.9951388888888889
0.5045754872811364,0.9951388888888889
0.5068384539147671,0.9951388888888889
0.5068714899240172,0.9951388888888889
0.5077304261645194,0.9951388888888889
0.5077634621737694,0.9951388888888889
0.5089032044928973,0.9951388888888889
0.5089362405021474,0.9951388888888889
0.5105054509415262,0.9951388888888889
0.5105384869507763,0.9951388888888889
0.5110175090849025,0.9951388888888889
0.5110175090849025,0.9958333333333333
0.5132969937231583,0.9958333333333333
0.5133300297324084,0.9958333333333333
0.5142715559960357,0.9958333333333333
0.5143045920052858,0.9958333333333333
0.5150974562272878,0.9958333333333333
0.5151304922365378,0.9958333333333333
0.515592996366039,0.9958333333333333
0.515626032375289,0.9958333333333333
0.5156590683845391,0.9958333333333333
0.5156921043937892,0.9958333333333333
0.5189791873141725,0.9958333333333333
0.5190122233234226,0.9958333333333333
0.5204492897258012,0.9958333333333333
0.5204823257350512,0.9958333333333333
0.5227452923686818,0.9958333333333333
0.5227783283779319,0.9958333333333333
0.5235546745953089,0.9958333333333333
0.523587710604559,0.9958333333333333
0.5239345887016849,0.9958333333333333
0.5239676247109349,0.9958333333333333
0.5241493227618104,0.9958333333333333
0.5241823587710605,0.9958333333333333
0.5242814667988107,0.9958333333333333
0.5243145028080608,0.9958333333333333
0.5264783614139412,0.9958333333333333
0.5265113974231913,0.9958333333333333
0.5271721176081929,0.9958333333333333
0.527205153617443,0.9958333333333333
0.527998017839445,0.9958333333333333
0.5280310538486951,0.9958333333333333
0.529583746283449,0.9958333333333333
0.529616782292699,0.9958333333333333
0.5316980508754543,0.9958333333333333
0.5317310868847043,0.9958333333333333
0.5320118929633301,0.9958333333333333
0.5320449289725802,0.9958333333333333
0.532391807069706,0.9958333333333333
0.5324248430789561,0.9958333333333333
0.5334489593657086,0.9958333333333333
0.5334819953749587,0.9958333333333333
0.5342748595969606,0.9958333333333333
0.5343078956062107,0.9958333333333333
0.5370664023785927,0.9958333333333333
0.5370994383878428,0.9958333333333333
0.5387347208457218,0.9958333333333333
0.538800792864222,0.9958333333333333
0.5396597291047242,0.9958333333333333
0.5396927651139742,0.9958333333333333
0.5398083911463495,0.9958333333333333
0.5398414271555996,0.9958333333333333
0.545193260654113,0.9958333333333333
0.5452262966633631,0.9958333333333333
0.5453584407003634,0.9958333333333333
0.5453914767096135,0.9958333333333333
0.5455236207466138,0.9958333333333333
0.5455236207466138,0.9965277777777778
0.5508754542451272,0.9965277777777778
0.5509084902543773,0.9965277777777778
0.5513379583746283,0.9965277777777778
0.5513709943838784,0.9965277777777778
0.5561777337297654,0.9965277777777778
0.5562107697390155,0.9965277777777778
0.5563924677898909,0.9965277777777778
0.556425503799141,0.9965277777777778
0.5566567558638916,0.9965277777777778
0.5566897918731417,0.9965277777777778
0.5582920383217708,0.9965277777777778
0.5583250743310209,0.9965277777777778
0.559613478691774,0.9965277777777778
0.5596465147010241,0.9965277777777778
0.5607532210109019,0.9965277777777778
0.560819293029402,0.9965277777777778
0.5633795837462835,0.9965277777777778
0.5634126197555336,0.9965277777777778
0.5636438718202841,0.9965277777777778
0.5636769078295342,0.9965277777777778
0.5645853980839115,0.9965277777777778
0.5646184340931616,0.9965277777777778
0.5659563924677898,0.9965277777777778
0.5659894284770399,0.9965277777777778
0.5663528245787909,0.9965277777777778
0.566385860588041,0.9965277777777778
0.5683019491245458,0.9965277777777778
0.5683349851337959,0.9965277777777778
0.5717542120911794,0.9965277777777778
0.5717872481004295,0.9965277777777778
0.5746944169144368,0.9965277777777778
0.5747274529236868,0.9965277777777778
0.575189957053188,0.9965277777777778
0.5752229930624381,0.9965277777777778
0.5755863891641889,0.9965277777777778
0.575619425173439,0.9965277777777778
0.5789725801123224,0.9965277777777778
0.5790056161215725,0.9965277777777778
0.5805417905517014,0.9965277777777778
0.5805748265609514,0.9965277777777778
0.5814172447968285,0.9965277777777778
0.5814502808060786,0.9965277777777778
0.5823257350512058,0.9965277777777778
0.5823587710604559,0.9965277777777778
0.5860588040964652,0.9965277777777778
0.5860918401057152,0.9965277777777778
0.5865047902213413,0.9965277777777778
0.5865378262305914,0.9965277777777778
0.5885365047902213,0.9965277777777778
0.5885695407994714,0.9965277777777778
0.5902048232573505,0.9965277777777778
0.5902378592666006,0.9965277777777778
0.5903204492897258,0.9965277777777778
0.5903534852989759,0.9965277777777778
0.5925008259002312,0.9965277777777778
0.5925338619094813,0.9965277777777778
0.5957548728113644,0.9965277777777778
0.5957879088206145,0.9965277777777778
0.5969937231582425,0.9965277777777778
0.5970267591674926,0.9965277777777778
0.5980343574496201,0.9965277777777778
0.5980673934588702,0.9965277777777778
0.5982160555004955,0.9965277777777778
0.5982490915097456,0.9965277777777778
0.6006276841757515,0.9965277777777778
0.6006607201850016,0.9965277777777778
0.6010571522960027,0.9965277777777778
0.6010901883052527,0.9965277777777778
0.6023455566567558,0.9965277777777778
0.6023785926660059,0.9965277777777778
0.6046250412950116,0.9965277777777778
0.6046580773042617,0.9965277777777778
0.6046745953088867,0.9965277777777778
0.6047076313181368,0.9965277777777778
0.607168814007268,0.9965277777777778
0.607201850016518,0.9965277777777778
0.6077964981830195,0.9965277777777778
0.6078295341922696,0.9965277777777778
0.6080277502477701,0.9965277777777778
0.6080607862570202,0.9965277777777778
0.609580442682524,0.9965277777777778
0.6096134786917741,0.9965277777777778
0.6113148331681533,0.9965277777777778
0.6113478691774034,0.9965277777777778
0.6113643871820285,0.9965277777777778
0.6113974231912785,0.9965277777777778
0.6120251073670301,0.9965277777777778
0.6120581433762802,0.9965277777777778
0.6125041295011563,0.9965277777777778
0.6125371655104064,0.9965277777777778
0.6143871820284109,0.9965277777777778
0.614420218037661,0.9965277777777778
0.6178559629996696,0.9965277777777778
0.6178889990089197,0.9965277777777778
0.6203336636934258,0.9965277777777778
0.6203666997026759,0.9965277777777778
0.6208622398414272,0.9965277777777778
0.6208952758506773,0.9965277777777778
0.6223653782623059,0.9965277777777778
0.622398414271556,0.9965277777777778
0.623587710604559,0.9965277777777778
0.6236207466138091,0.9965277777777778
0.6239015526924347,0.9965277777777778
0.6239345887016848,0.9965277777777778
0.6274198876775685,0.9965277777777778
0.6274529236868186,0.9965277777777778
0.6311694747274529,0.9965277777777778
0.631202510736703,0.9965277777777778
0.6314502808060787,0.9965277777777778
0.6314833168153287,0.9965277777777778
0.6318136769078295,0.9965277777777778
0.6318467129170796,0.9965277777777778
0.6326726131483317,0.9965277777777778
0.6327056491575818,0.9965277777777778
0.6336471754212091,0.9965277777777778
0.6336802114304592,0.9965277777777778
0.6342418235877106,0.9965277777777778
0.6342748595969607,0.9965277777777778
0.6351337958374629,0.9965277777777778
0.635166831846713,0.9965277777777778
0.6353815659068385,0.9965277777777778
0.6353815659068385,0.9972222222222222
0.6380574826560952,0.9972222222222222
0.6380905186653453,0.9972222222222222
0.6407499174099769,0.9972222222222222
0.640782953419227,0.9972222222222222
0.643624050214734,0.9972222222222222
0.6436570862239841,0.9972222222222222
0.6469441691443674,0.9972222222222222
0.6469772051536175,0.9972222222222222
0.6473901552692435,0.9972222222222222
0.6474231912784936,0.9972222222222222
0.649207135777998,0.9972222222222222
0.6492401717872481,0.9972222222222222
0.6507433102081268,0.9972222222222222
0.6507763462173769,0.9972222222222222
0.6531714568880079,0.9972222222222222
0.653204492897258,0.9972222222222222
0.6553187974892632,0.9972222222222222
0.6553518334985133,0.9972222222222222
0.657614800132144,0.9972222222222222
0.6576478361413941,0.9972222222222222
0.6583250743310208,0.9972222222222222
0.6583581103402709,0.9972222222222222
0.6585232903865214,0.9972222222222222
0.6585563263957714,0.9972222222222222
0.6614304592005286,0.9972222222222222
0.6614634952097787,0.9972222222222222
0.6617773372976544,0.9972222222222222
0.6618103733069045,0.9972222222222222
0.6623389494549059,0.9972222222222222
0.6623719854641559,0.9972222222222222
0.6674099768747935,0.9972222222222222
0.6674430128840436,0.9972222222222222
0.6726296663363066,0.9972222222222222
0.6726627023455567,0.9972222222222222
0.672761810373307,0.9972222222222222
0.6727948463825569,0.9972222222222222
0.6738354806739346,0.9972222222222222
0.6738685166831847,0.9972222222222222
0.6752395110670631,0.9972222222222222
0.6752725470763132,0.9972222222222222
0.6758837132474397,0.9972222222222222
0.6759167492566898,0.9972222222222222
0.6764618434093161,0.9972222222222222
0.6764948794185662,0.9972222222222222
0.6781136438718203,0.9972222222222222
0.6781466798810704,0.9972222222222222
0.6796167822926991,0.9972222222222222
0.6796498183019491,0.9972222222222222
0.6802444664684506,0.9972222222222222
0.6802775024777007,0.9972222222222222
0.6814833168153287,0.9972222222222222
0.6815163528245788,0.9972222222222222
0.6831020812685827,0.9972222222222222
0.6831020812685827,0.9979166666666667
0.6840270895275851,0.9979166666666667
0.6840601255368352,0.9979166666666667
0.6850346878097126,0.9979166666666667
0.6850677238189626,0.9979166666666667
0.6859431780640899,0.9979166666666667
0.68597621407334,0.9979166666666667
0.6915427816319789,0.9979166666666667
0.6915758176412289,0.9979166666666667
0.6918896597291048,0.9979166666666667
0.6919226957383549,0.9979166666666667
0.69200528576148,0.9979166666666667
0.6920383217707301,0.9979166666666667
0.6944499504459861,0.9979166666666667
0.6945160224644863,0.9979166666666667
0.6949785265939874,0.9979166666666667
0.6950115626032375,0.9979166666666667
0.6953419226957384,0.9979166666666667
0.6953749587049884,0.9979166666666667
0.6962834489593657,0.9979166666666667
0.6963164849686158,0.9979166666666667
0.7010901883052527,0.9979166666666667
0.7011232243145028,0.9979166666666667
0.7011562603237529,0.9979166666666667
0.701189296333003,0.9979166666666667
0.7036339610175091,0.9979166666666667
0.7036669970267592,0.9979166666666667
0.7037661050545094,0.9979166666666667
0.7037661050545094,0.9986111111111111
0.7073835480673935,0.9986111111111111
0.7074165840766435,0.9986111111111111
0.7075156921043938,0.9986111111111111
0.7075487281136439,0.9986111111111111
0.708804096465147,0.9986111111111111
0.7088371324743971,0.9986111111111111
0.7104889329369012,0.9986111111111111
0.7105219689461513,0.9986111111111111
0.7108523290386521,0.9986111111111111
0.7108853650479022,0.9986111111111111
0.7112817971589032,0.9986111111111111
0.7113148331681532,0.9986111111111111
0.7113809051866534,0.9986111111111111
0.7114139411959035,0.9986111111111111
0.7149487941856624,0.9986111111111111
0.7149818301949125,0.9986111111111111
0.7163032705649157,0.9986111111111111
0.7163363065741658,0.9986111111111111
0.716385860588041,0.9986111111111111
0.7164188965972911,0.9986111111111111
0.7179385530227949,0.9986111111111111
0.7179715890320449,0.9986111111111111
0.7183349851337958,0.9986111111111111
0.7183680211430459,0.9986111111111111
0.7189626693095474,0.9986111111111111
0.7189957053187975,0.9986111111111111
0.7200528576148001,0.9986111111111111
0.7201189296333003,0.9986111111111111
0.720399735711926,0.9986111111111111
0.720432771721176,0.9986111111111111
0.721589032044929,0.9986111111111111
0.7216220680541791,0.9986111111111111
0.7222827882391807,0.9986111111111111
0.7223158242484308,0.9986111111111111
0.7228113643871821,0.9986111111111111
0.7228444003964322,0.9986111111111111
0.7243145028080608,0.9986111111111111
0.7243475388173108,0.9986111111111111
0.7266930954740667,0.9986111111111111
0.7267261314833168,0.9986111111111111
0.726825239511067,0.9986111111111111
0.7268582755203171,0.9986111111111111
0.7295176742649488,0.9986111111111111
0.7295507102741988,0.9986111111111111
0.7335645853980839,0.9986111111111111
0.733597621407334,0.9986111111111111
0.7337297654443343,0.9986111111111111
0.7337628014535844,0.9986111111111111
0.7362239841427156,0.9986111111111111
0.7362570201519656,0.9986111111111111
0.7370168483647176,0.9986111111111111
0.7370498843739677,0.9986111111111111
0.7377106045589693,0.9986111111111111
0.7377436405682194,0.9986111111111111
0.7378757846052197,0.9986111111111111
0.7379088206144697,0.9986111111111111
0.7390485629335977,0.9986111111111111
0.7390815989428478,0.9986111111111111
0.7448463825569871,0.9986111111111111
0.7448794185662372,0.9986111111111111
0.7449454905847374,0.9986111111111111
0.7449785265939874,0.9986111111111111
0.7451106706309878,0.9986111111111111
0.7451437066402379,0.9986111111111111
0.745226296663363,0.9986111111111111
0.7452593326726131,0.9986111111111111
0.7473406012553684,0.9986111111111111
0.7473736372646185,0.9986111111111111
0.7495044598612488,0.9986111111111111
0.7495374958704989,0.9986111111111111
0.7504459861248761,0.9986111111111111
0.7504790221341262,0.9986111111111111
0.7506937561942517,0.9986111111111111
0.7507267922035018,0.9986111111111111
0.7517013544763792,0.9986111111111111
0.7517343904856293,0.9986111111111111
0.7566402378592666,0.9986111111111111
0.7566732738685167,0.9986111111111111
0.7603237528906508,0.9986111111111111
0.7603567888999009,0.9986111111111111
0.7631483316815328,0.9986111111111111
0.7631813676907829,0.9986111111111111
0.7643541460191609,0.9986111111111111
0.7643871820284109,0.9986111111111111
0.7653947803105385,0.9986111111111111
0.7654278163197886,0.9986111111111111
0.7660555004955402,0.9986111111111111
0.7660885365047903,0.9986111111111111
0.7682854311199208,0.9986111111111111
0.7683184671291708,0.9986111111111111
0.769606871489924,0.9986111111111111
0.7696399074991741,0.9986111111111111
0.7701354476379253,0.9986111111111111
0.7701684836471754,0.9986111111111111
0.7722001982160555,0.9986111111111111
0.7722332342253055,0.9986111111111111
0.7728774364056822,0.9986111111111111
0.7729104724149323,0.9986111111111111
0.775222993062438,0.9986111111111111
0.7752560290716881,0.9986111111111111
0.777585067723819,0.9986111111111111
0.777618103733069,0.9986111111111111
0.7780310538486951,0.9986111111111111
0.7780640898579452,0.9986111111111111
0.7786422200198216,0.9986111111111111
0.7786752560290717,0.9986111111111111
0.7789230260984473,0.9986111111111111
0.7789560621076974,0.9986111111111111
0.7795507102741989,0.9986111111111111
0.779583746283449,0.9986111111111111
0.7808391146349521,0.9986111111111111
0.7808721506442022,0.9986111111111111
0.7810868847043277,0.9986111111111111
0.7811199207135778,0.9986111111111111
0.781565906838454,0.9986111111111111
0.781598942847704,0.9986111111111111
0.7856623719854642,0.9986111111111111
0.7856954079947143,0.9986111111111111
0.7873141724479683,0.9986111111111111
0.7873472084572184,0.9986111111111111
0.7873802444664685,0.9986111111111111
0.7874132804757186,0.9986111111111111
0.788420878757846,0.9986111111111111
0.7884539147670961,0.9986111111111111
0.7892963330029732,0.9986111111111111
0.7892963330029732,0.9993055555555556
0.7897918731417245,0.9993055555555556
0.7898249091509746,0.9993055555555556
0.7899074991740997,0.9993055555555556
0.7899405351833498,0.9993055555555556
0.7919557317476049,0.9993055555555556
0.791988767756855,0.9993055555555556
0.7963164849686158,0.9993055555555556
0.7963495209778658,0.9993055555555556
0.7977039973571193,0.9993055555555556
0.7977370333663694,0.9993055555555556
0.799603567888999,0.9993055555555556
0.7996366038982491,0.9993055555555556
0.8011232243145028,0.9993055555555556
0.8011562603237529,0.9993055555555556
0.8042946812025107,0.9993055555555556
0.8043277172117608,0.9993055555555556
0.8057647836141394,0.9993055555555556
0.8057978196233895,0.9993055555555556
0.8065411298315164,0.9993055555555556
0.8065741658407665,0.9993055555555556
0.8115626032375289,0.9993055555555556
0.811595639246779,0.9993055555555556
0.8124215394780311,0.9993055555555556
0.8124545754872812,0.9993055555555556
0.8174925668979187,0.9993055555555556
0.8175256029071688,0.9993055555555556
0.8181037330690453,0.9993055555555556
0.8181367690782954,0.9993055555555556
0.818780971258672,0.9993055555555556
0.8188140072679221,0.9993055555555556
0.8202180376610505,0.9993055555555556
0.8202510736703006,0.9993055555555556
0.8207631318136769,0.9993055555555556
0.820796167822927,0.9993055555555556
0.8209448298645524,0.9993055555555556
0.8209778658738024,0.9993055555555556
0.8213577799801784,0.9993055555555556
0.8213908159894284,0.9993055555555556
0.8237859266600595,0.9993055555555556
0.8238189626693095,0.9993055555555556
0.8242484307895607,0.9993055555555556
0.8242814667988108,0.9993055555555556
0.8261149653121903,0.9993055555555556
0.8261480013214404,0.9993055555555556
0.8266105054509415,0.9993055555555556
0.8266435414601916,0.9993055555555556
0.8267096134786918,0.9993055555555556
0.8267426494879418,0.9993055555555556
0.8269243475388173,0.9993055555555556
0.8269573835480674,0.9993055555555556
0.827221671622068,0.9993055555555556
0.8272547076313181,0.9993055555555556
0.8314998348199537,0.9993055555555556
0.8315328708292038,0.9993055555555556
0.831598942847704,0.9993055555555556
0.8316319788569541,0.9993055555555556
0.8329038652130822,0.9993055555555556
0.8329369012223323,0.9993055555555556
0.8330029732408325,0.9993055555555556
0.8330360092500826,0.9993055555555556
0.8333168153287083,0.9993055555555556
0.8333498513379584,0.9993055555555556
0.8344730756524612,0.9993055555555556
0.8345061116617113,0.9993055555555556
0.8346547737033366,0.9993055555555556
0.8346878097125867,0.9993055555555556
0.8378097125867195,0.9993055555555556
0.8378427485959696,0.9993055555555556
0.8381235546745953,0.9993055555555556
0.8381565906838454,0.9993055555555556
0.8410142054839775,0.9993055555555556
0.8410472414932276,0.9993055555555556
0.8421539478031054,0.9993055555555556
0.8421869838123555,0.9993055555555556
0.8428807400066072,0.9993055555555556
0.8429137760158573,0.9993055555555556
0.8438387842748596,0.9993055555555556
0.8438718202841097,0.9993055555555556
0.8466798810703667,0.9993055555555556
0.8467129170796168,0.9993055555555556
0.8468285431119921,0.9993055555555556
0.8468615791212422,0.9993055555555556
0.8475553353154939,0.9993055555555556
0.847588371324744,0.9993055555555556
0.8501321440370003,0.9993055555555556
0.8501651800462504,0.9993055555555556
0.8509745622728775,0.9993055555555556
0.8510075982821275,0.9993055555555556
0.8513379583746283,0.9993055555555556
0.8513709943838784,0.9993055555555556
0.852808060786257,0.9993055555555556
0.8528410967955071,0.9993055555555556
0.8542451271886357,0.9993055555555556
0.8542781631978857,0.9993055555555556
0.8556821935910142,0.9993055555555556
0.8557152296002642,0.9993055555555556
0.8566402378592666,0.9993055555555556
0.8566732738685167,0.9993055555555556
0.8608358110340271,0.9993055555555556
0.8608688470432772,0.9993055555555556
0.8612322431450281,0.9993055555555556
0.8612652791542782,0.9993055555555556
0.868797489263297,0.9993055555555556
0.8688305252725471,0.9993055555555556
0.8691113313511728,0.9993055555555556
0.8691443673604229,0.9993055555555556
0.8753551370994384,0.9993055555555556
0.8753881731086884,0.9993055555555556
0.8754542451271886,0.9993055555555556
0.8754872811364387,0.9993055555555556
0.8771390815989428,0.9993055555555556
0.8771721176081929,0.9993055555555556
0.8784605219689462,0.9993055555555556
0.8784935579781963,0.9993055555555556
0.8790386521308226,0.9993055555555556
0.8790716881400726,0.9993055555555556
0.8797324083250744,0.9993055555555556
0.8797654443343245,0.9993055555555556
0.8798975883713247,0.9993055555555556
0.8799306243805748,0.9993055555555556
0.8806078625702015,0.9993055555555556
0.8806408985794516,0.9993055555555556
0.8817806408985794,0.9993055555555556
0.8818136769078295,0.9993055555555556
0.882391807069706,0.9993055555555556
0.8824248430789561,0.9993055555555556
0.883961017509085,0.9993055555555556
0.8839940535183349,0.9993055555555556
0.8841261975553353,0.9993055555555556
0.8841592335645854,0.9993055555555556
0.8862570201519656,0.9993055555555556
0.8862900561612157,0.9993055555555556
0.8864882722167162,0.9993055555555556
0.8865213082259663,0.9993055555555556
0.8927320779649819,0.9993055555555556
0.8927651139742319,0.9993055555555556
0.8946812025107367,0.9993055555555556
0.8947142385199868,0.9993055555555556
0.89796828543112,0.9993055555555556
0.89800132144037,0.9993055555555556
0.8981499834819954,0.9993055555555556
0.8981830194912455,0.9993055555555556
0.8984307895606211,0.9993055555555556
0.8984638255698711,0.9993055555555556
0.9016518004625041,0.9993055555555556
0.9016518004625041,1.0
0.9030227948463826,1.0
0.9030558308556327,1.0
0.9058638916418896,1.0
0.9058969276511397,1.0
0.9059629996696399,1.0
0.90599603567889,1.0
0.9079451602246449,1.0
0.907978196233895,1.0
0.9097125867195243,1.0
0.9097456227287744,1.0
0.9110009910802775,1.0
0.9110505450941526,1.0
0.9118103733069045,1.0
0.9118434093161546,1.0
0.9129501156260323,1.0
0.9129831516352824,1.0
0.9158407664354146,1.0
0.9158738024446647,1.0
0.9168979187314172,1.0
0.9169309547406673,1.0
0.9197885695407995,1.0
0.9198216055500495,1.0
0.9254707631318136,1.0
0.9255037991410637,1.0
0.9258341592335646,1.0
0.9258671952428147,1.0
0.9291873141724479,1.0
0.929220350181698,1.0
0.9322101090188305,1.0
0.9322431450280806,1.0
0.9333663693425834,1.0
0.9333994053518335,1.0
0.9354641559299637,1.0
0.9354971919392138,1.0
0.9359266600594648,1.0
0.9359596960687149,1.0
0.9398083911463495,1.0
0.9398414271555996,1.0
0.9399405351833499,1.0
0.9399735711925999,1.0
0.9401883052527255,1.0
0.9402213412619755,1.0
0.9425503799141064,1.0
0.9425834159233565,1.0
0.9467624710934919,1.0
0.946795507102742,1.0
0.9469606871489924,1.0
0.9469937231582425,1.0
0.9497026759167493,1.0
0.9497357119259994,1.0
0.9532870829203832,1.0
0.9533201189296333,1.0
0.9534852989758837,1.0
0.9535183349851338,1.0
0.9601420548397753,1.0
0.9601750908490254,1.0
0.9618599273207796,1.0
0.9618929633300297,1.0
0.9642054839775355,1.0
0.9642385199867856,1.0
0.9644202180376611,1.0
0.9644532540469112,1.0
0.9645358440700363,1.0
0.9645688800792864,1.0
0.9646514701024116,1.0
0.9646845061116617,1.0
0.9654938883382888,1.0
0.9655269243475388,1.0
0.9678724810042947,1.0
0.9679055170135448,1.0
0.9681532870829204,1.0
0.9681863230921705,1.0
0.9696894615130492,1.0
0.9697224975222993,1.0
0.9709943838784275,1.0
0.9710274198876776,1.0
0.9711265279154279,1.0
0.971159563924678,1.0
0.9718368021143046,1.0
0.9718698381235547,1.0
0.973207796498183,1.0
0.9732408325074331,1.0
0.9734720845721837,1.0
0.9735051205814338,1.0
0.9745292368681864,1.0
0.9745622728774364,1.0
0.9770730095804426,1.0
0.9771060455896927,1.0
0.9786422200198216,1.0
0.9786752560290717,1.0
0.9815493888338289,1.0
0.981582424843079,1.0
0.9826560951437067,1.0
0.9826891311529568,1.0
0.9827221671622068,1.0
0.9827552031714569,1.0
0.9833828873472085,1.0
0.9834159233564586,1.0
0.988404360753221,1.0
0.9884373967624711,1.0
0.9898249091509745,1.0
0.9898579451602246,1.0
0.9904360753221011,1.0
0.9904691113313512,1.0
0.9927485959696069,1.0
0.9927816319788569,1.0
0.9981499834819954,1.0
0.9981830194912454,1.0
0.9988272216716221,1.0
0.9988602576808722,1.0
1.0,1.0
