fpr,tpr
0.0,0.0
0.0,0.00018301610541727673
0.0,0.001006588579795022
0.0,0.0011896046852122987
0.0,0.0036603221083455345
1.0075465234607208e-05,0.0036603221083455345
1.0075465234607208e-05,0.013726207906295754
1.0075465234607208e-05,0.013909224011713031
1.0075465234607208e-05,0.02580527086383602
1.5113197851910811e-05,0.02580527086383602
1.5113197851910811e-05,0.028642020497803806
1.5113197851910811e-05,0.028825036603221083
1.5113197851910811e-05,0.08144216691068815
2.0150930469214415e-05,0.08144216691068815
2.0150930469214415e-05,0.08464494875549049
2.0150930469214415e-05,0.08482796486090775
2.0150930469214415e-05,0.09407027818448023
2.0150930469214415e-05,0.09425329428989751
2.0150930469214415e-05,0.10203147877013177
2.518866308651802e-05,0.10203147877013177
2.518866308651802e-05,0.13323572474377746
2.518866308651802e-05,0.13341874084919472
2.518866308651802e-05,0.13698755490483164
3.0226395703821623e-05,0.13698755490483164
3.0226395703821623e-05,0.145497803806735
3.526412832112523e-05,0.145497803806735
3.526412832112523e-05,0.14687042459736457
4.030186093842883e-05,0.14687042459736457
4.030186093842883e-05,0.15281844802342606
4.533959355573244e-05,0.15281844802342606
4.533959355573244e-05,0.16663616398243045
5.037732617303604e-05,0.16663616398243045
5.037732617303604e-05,0.17230966325036604
5.037732617303604e-05,0.1724926793557833
5.037732617303604e-05,0.18237554904831627
5.5415058790339646e-05,0.18237554904831627
5.5415058790339646e-05,0.21943631039531478
6.0452791407643246e-05,0.21943631039531478
6.0452791407643246e-05,0.2204428989751098
6.549052402494685e-05,0.2204428989751098
6.549052402494685e-05,0.22721449487554904
6.549052402494685e-05,0.22739751098096633
6.549052402494685e-05,0.22986822840409957
7.052825664225046e-05,0.22986822840409957
7.052825664225046e-05,0.23746339677891654
7.556598925955406e-05,0.23746339677891654
7.556598925955406e-05,0.2382869692532943
8.060372187685766e-05,0.2382869692532943
8.060372187685766e-05,0.24487554904831627
8.564145449416126e-05,0.24487554904831627
8.564145449416126e-05,0.2569546120058565
9.067918711146488e-05,0.2569546120058565
9.067918711146488e-05,0.26271961932650073
9.571691972876848e-05,0.26271961932650073
9.571691972876848e-05,0.26299414348462663
0.00010075465234607208,0.26299414348462663
0.00010075465234607208,0.2731515373352855
0.00010579238496337569,0.2731515373352855
0.00010579238496337569,0.2831259150805271
0.00011083011758067929,0.2832174231332357
0.00011083011758067929,0.2863286969253294
0.00011586785019798289,0.2863286969253294
0.00011586785019798289,0.2929172767203514
0.00012090558281528649,0.2929172767203514
0.00012090558281528649,0.2970351390922401
0.0001259433154325901,0.2970351390922401
0.0001259433154325901,0.3060944363103953
0.0001309810480498937,0.3060944363103953
0.0001309810480498937,0.31286603221083453
0.00013601878066719732,0.31286603221083453
0.00013601878066719732,0.32686676427525624
0.00014105651328450092,0.32686676427525624
0.00014105651328450092,0.3285139092240117
0.00014609424590180452,0.3285139092240117
0.00014609424590180452,0.32997803806734993
0.00015113197851910812,0.32997803806734993
0.00015113197851910812,0.33263177159590046
0.00015113197851910812,0.3328147877013177
0.00015113197851910812,0.33949487554904834
0.00015616971113641172,0.33949487554904834
0.00015616971113641172,0.3510248901903367
0.00016120744375371532,0.3510248901903367
0.00016120744375371532,0.35962664714494874
0.00016624517637101892,0.35962664714494874
0.00016624517637101892,0.35999267935578333
0.00017128290898832252,0.35999267935578333
0.00017128290898832252,0.36346998535871156
0.00017632064160562615,0.36346998535871156
0.00017632064160562615,0.3681368960468521
0.00018135837422292975,0.3681368960468521
0.00018135837422292975,0.368411420204978
0.00018639610684023335,0.368411420204978
0.00018639610684023335,0.36978404099560763
0.00019143383945753695,0.36978404099560763
0.00019143383945753695,0.3785688140556369
0.00019647157207484055,0.3785688140556369
0.00019647157207484055,0.3806734992679356
0.00020150930469214415,0.3806734992679356
0.00020150930469214415,0.38433382137628114
0.00020654703730944775,0.38433382137628114
0.00020654703730944775,0.3904648609077599
0.00021158476992675138,0.3904648609077599
0.00021158476992675138,0.39302708638360173
0.00021662250254405498,0.39302708638360173
0.00021662250254405498,0.39348462664714495
0.00022166023516135858,0.39348462664714495
0.00022166023516135858,0.3984260614934114
0.00022669796777866218,0.3984260614934114
0.00022669796777866218,0.3988836017569546
0.00023173570039596578,0.3988836017569546
0.00023173570039596578,0.4005307467057101
0.00023677343301326938,0.4005307467057101
0.00023677343301326938,0.4008967789165447
0.00024181116563057298,0.4008967789165447
0.00024181116563057298,0.4059297218155198
0.0002468488982478766,0.4059297218155198
0.0002468488982478766,0.408400439238653
0.0002468488982478766,0.40858345534407026
0.0002468488982478766,0.40894948755490484
0.0002518866308651802,0.40894948755490484
0.0002518866308651802,0.4137994143484627
0.0002569243634824838,0.4137994143484627
0.0002569243634824838,0.41544655929721813
0.0002619620960997874,0.41544655929721813
0.0002619620960997874,0.4174597364568082
0.000266999828717091,0.4174597364568082
0.000266999828717091,0.4176427525622255
0.000266999828717091,0.4226756954612006
0.00027203756133439464,0.4226756954612006
0.00027203756133439464,0.4229502196193265
0.0002770752939516982,0.4229502196193265
0.0002770752939516982,0.4234077598828697
0.00028211302656900184,0.4234077598828697
0.00028211302656900184,0.42880673499267935
0.0002871507591863054,0.42880673499267935
0.0002871507591863054,0.43265007320644217
0.00029218849180360904,0.43265007320644217
0.00029218849180360904,0.4358528550512445
0.0002972262244209126,0.4358528550512445
0.0002972262244209126,0.4367679355783309
0.00030226395703821624,0.4367679355783309
0.00030226395703821624,0.4403367496339678
0.0003073016896555198,0.4403367496339678
0.0003073016896555198,0.44271595900439237
0.00031233942227282344,0.44271595900439237
0.00031233942227282344,0.4456442166910688
0.00031737715489012707,0.4456442166910688
0.00031737715489012707,0.4501281112737921
0.00032241488750743065,0.4501281112737921
0.00032241488750743065,0.4523243045387994
0.00032745262012473427,0.4523243045387994
0.00032745262012473427,0.4533308931185944
0.00033249035274203785,0.4533308931185944
0.00033249035274203785,0.45506954612005857
0.0003375280853593415,0.45506954612005857
0.0003375280853593415,0.4586383601756955
0.00034256581797664505,0.4586383601756955
0.00034256581797664505,0.4589128843338214
0.0003476035505939487,0.4589128843338214
0.0003476035505939487,0.46257320644216693
0.0003576790158285559,0.46257320644216693
0.0003576790158285559,0.46266471449487556
0.0003627167484458595,0.46266471449487556
0.0003627167484458595,0.4649524158125915
0.0003677544810631631,0.4649524158125915
0.0003677544810631631,0.4656844802342606
0.0003727922136804667,0.4656844802342606
0.0003727922136804667,0.46733162518301613
0.0003778299462977703,0.46733162518301613
0.0003778299462977703,0.46861273792093705
0.0003828676789150739,0.46861273792093705
0.0003828676789150739,0.4687042459736457
0.00038790541153237753,0.4687042459736457
0.00038790541153237753,0.47053440702781846
0.0003929431441496811,0.47053440702781846
0.0003929431441496811,0.47291361639824303
0.00039798087676698473,0.47291361639824303
0.00039798087676698473,0.4737371888726208
0.0004030186093842883,0.4737371888726208
0.0004030186093842883,0.47456076134699854
0.00040805634200159193,0.47456076134699854
0.00040805634200159193,0.47529282576866766
0.0004130940746188955,0.47529282576866766
0.0004130940746188955,0.47556734992679356
0.00041813180723619913,0.47556734992679356
0.00041813180723619913,0.4761163982430454
0.00042316953985350276,0.4761163982430454
0.00042316953985350276,0.4792276720351391
0.00042820727247080634,0.4792276720351391
0.00042820727247080634,0.47986822840409954
0.00043324500508810996,0.47986822840409954
0.00043324500508810996,0.48060029282576866
0.00043828273770541354,0.48060029282576866
0.00043828273770541354,0.48087481698389456
0.00044332047032271716,0.48087481698389456
0.00044332047032271716,0.4811493411420205
0.00044835820294002074,0.4811493411420205
0.00044835820294002074,0.48508418740849196
0.00045339593555732436,0.48508418740849196
0.00045339593555732436,0.4859077598828697
0.00045843366817462794,0.4859077598828697
0.00045843366817462794,0.48718887262079064
0.00046347140079193157,0.48718887262079064
0.00046347140079193157,0.48965959004392384
0.0004685091334092352,0.48965959004392384
0.0004685091334092352,0.4899341142020498
0.00047354686602653877,0.4899341142020498
0.00047354686602653877,0.49002562225475843
0.0004785845986438424,0.49002562225475843
0.0004785845986438424,0.4912152269399707
0.00048362233126114597,0.4912152269399707
0.00048362233126114597,0.4914897510980966
0.0004886600638784495,0.4914897510980966
0.0004886600638784495,0.4918557833089312
0.0004936977964957532,0.4918557833089312
0.0004936977964957532,0.494692532942899
0.0004987355291130568,0.494692532942899
0.0004987355291130568,0.49533308931185943
0.0005037732617303604,0.49533308931185943
0.0005037732617303604,0.49579062957540265
0.000508810994347664,0.49579062957540265
0.000508810994347664,0.4958821376281113
0.0005138487269649676,0.4958821376281113
0.0005138487269649676,0.4968887262079063
0.0005188864595822712,0.4968887262079063
0.0005188864595822712,0.49698023426061494
0.0005239241921995748,0.49698023426061494
0.0005239241921995748,0.5005490483162518
0.0005289619248168785,0.5005490483162518
0.0005289619248168785,0.5011896046852123
0.000533999657434182,0.5011896046852123
0.000533999657434182,0.5015556368960469
0.0005390373900514856,0.5015556368960469
0.0005390373900514856,0.5027452415812591
0.0005440751226687893,0.5027452415812591
0.0005440751226687893,0.5033857979502196
0.0005491128552860929,0.5033857979502196
0.0005491128552860929,0.5036603221083455
0.0005541505879033964,0.5036603221083455
0.0005541505879033964,0.5050329428989752
0.0005591883205207,0.5050329428989752
0.0005591883205207,0.5064055636896047
0.0005642260531380037,0.5064055636896047
0.0005642260531380037,0.5068631039531479
0.0005692637857553073,0.5068631039531479
0.0005692637857553073,0.5069546120058566
0.0005743015183726108,0.5069546120058566
0.0005743015183726108,0.5072291361639825
0.0005793392509899145,0.5072291361639825
0.0005793392509899145,0.5080527086383602
0.0005843769836072181,0.5080527086383602
0.0005843769836072181,0.5081442166910688
0.0005894147162245217,0.5081442166910688
0.0005894147162245217,0.5092423133235725
0.0005944524488418252,0.5092423133235725
0.0005944524488418252,0.5107979502196194
0.0005994901814591289,0.5107979502196194
0.0005994901814591289,0.5116215226939971
0.0006045279140764325,0.5116215226939971
0.0006045279140764325,0.5123535871156661
0.0006095656466937361,0.5123535871156661
0.0006095656466937361,0.5158308931185944
0.0006146033793110396,0.5158308931185944
0.0006146033793110396,0.516196925329429
0.0006196411119283433,0.516196925329429
0.0006196411119283433,0.5162884333821376
0.0006246788445456469,0.5162884333821376
0.0006246788445456469,0.5172950219619327
0.0006347543097802541,0.5172950219619327
0.0006347543097802541,0.5174780380673499
0.0006397920423975577,0.5174780380673499
0.0006397920423975577,0.5206808199121523
0.0006448297750148613,0.5206808199121523
0.0006448297750148613,0.5211383601756955
0.0006498675076321649,0.5211383601756955
0.0006498675076321649,0.5217789165446559
0.0006549052402494685,0.5217789165446559
0.0006549052402494685,0.52351756954612
0.0006599429728667721,0.52351756954612
0.0006599429728667721,0.5237005856515373
0.0006649807054840757,0.5237005856515373
0.0006649807054840757,0.5260797950219619
0.0006700184381013794,0.5260797950219619
0.0006700184381013794,0.5295571010248902
0.000675056170718683,0.5295571010248902
0.000675056170718683,0.5298316251830161
0.0006800939033359865,0.5298316251830161
0.0006800939033359865,0.5301976573938506
0.0006851316359532901,0.5301976573938506
0.0006851316359532901,0.5312042459736457
0.0006901693685705938,0.5312042459736457
0.0006901693685705938,0.5316617862371888
0.0006952071011878973,0.5316617862371888
0.0006952071011878973,0.532119326500732
0.0007002448338052009,0.532119326500732
0.0007002448338052009,0.5325768667642753
0.0007052825664225046,0.5325768667642753
0.0007052825664225046,0.5326683748169839
0.0007103202990398082,0.5326683748169839
0.0007103202990398082,0.5327598828696926
0.0007153580316571118,0.5327598828696926
0.0007153580316571118,0.5334919472913616
0.0007203957642744153,0.5334919472913616
0.0007203957642744153,0.5350475841874085
0.000725433496891719,0.5350475841874085
0.000725433496891719,0.5383418740849195
0.0007304712295090226,0.5383418740849195
0.0007304712295090226,0.538707906295754
0.0007355089621263262,0.538707906295754
0.0007355089621263262,0.5388909224011713
0.0007405466947436298,0.5388909224011713
0.0007405466947436298,0.5390739385065886
0.0007455844273609334,0.5390739385065886
0.0007455844273609334,0.5393484626647145
0.0007556598925955406,0.5393484626647145
0.0007556598925955406,0.5394399707174231
0.0007606976252128442,0.5394399707174231
0.0007606976252128442,0.5396229868228404
0.0007657353578301478,0.5396229868228404
0.0007657353578301478,0.5398060029282576
0.0007707730904474514,0.5398060029282576
0.0007707730904474514,0.5405380673499268
0.0007758108230647551,0.5405380673499268
0.0007758108230647551,0.5416361639824304
0.0007808485556820586,0.5416361639824304
0.0007808485556820586,0.5418191800878477
0.000800999486151273,0.5418191800878477
0.000800999486151273,0.54300878477306
0.0008110749513858803,0.54300878477306
0.0008110749513858803,0.5447474377745242
0.0008161126840031839,0.5447474377745242
0.0008161126840031839,0.5462115666178624
0.0008211504166204874,0.5462115666178624
0.0008211504166204874,0.5477672035139092
0.000826188149237791,0.5477672035139092
0.000826188149237791,0.549597364568082
0.0008312258818550947,0.549597364568082
0.0008312258818550947,0.5502379209370425
0.0008362636144723983,0.5502379209370425
0.0008362636144723983,0.5503294289897511
0.0008413013470897018,0.5503294289897511
0.0008413013470897018,0.550603953147877
0.0008463390797070055,0.550603953147877
0.0008463390797070055,0.5506954612005857
0.0008513768123243091,0.5506954612005857
0.0008513768123243091,0.5511530014641288
0.0008564145449416127,0.5511530014641288
0.0008564145449416127,0.5512445095168375
0.0008664900101762199,0.5512445095168375
0.0008664900101762199,0.5519765739385066
0.0008715277427935235,0.5519765739385066
0.0008715277427935235,0.552891654465593
0.0008765654754108271,0.552891654465593
0.0008765654754108271,0.553898243045388
0.0008816032080281306,0.553898243045388
0.0008816032080281306,0.554904831625183
0.0008916786732627379,0.554904831625183
0.0008916786732627379,0.5552708638360175
0.0009017541384973452,0.5552708638360175
0.0009017541384973452,0.5563689604685212
0.0009067918711146487,0.5563689604685212
0.0009067918711146487,0.5576500732064422
0.0009118296037319523,0.5576500732064422
0.0009118296037319523,0.5579245973645681
0.0009168673363492559,0.5579245973645681
0.0009168673363492559,0.5586566617862372
0.0009219050689665596,0.5586566617862372
0.0009219050689665596,0.5597547584187409
0.0009319805342011667,0.5597547584187409
0.0009319805342011667,0.5613103953147877
0.0009370182668184704,0.5613103953147877
0.0009370182668184704,0.5621339677891655
0.000942055999435774,0.5621339677891655
0.000942055999435774,0.5624084919472914
0.0009470937320530775,0.5624084919472914
0.0009470937320530775,0.5625
0.0009521314646703811,0.5625
0.0009521314646703811,0.5626830161054173
0.0009571691972876848,0.5626830161054173
0.0009571691972876848,0.5628660322108345
0.0009622069299049884,0.5628660322108345
0.0009622069299049884,0.5633235724743777
0.0009672446625222919,0.5633235724743777
0.0009672446625222919,0.5634150805270863
0.0009722823951395956,0.5634150805270863
0.0009722823951395956,0.56451317715959
0.000977320127756899,0.56451317715959
0.000977320127756899,0.5646961932650073
0.0009823578603742028,0.5646961932650073
0.0009823578603742028,0.5649707174231332
0.00099243332560881,0.5649707174231332
0.00099243332560881,0.5661603221083455
0.0009974710582261136,0.5661603221083455
0.0009974710582261136,0.566800878477306
0.0010025087908434173,0.566800878477306
0.0010025087908434173,0.5671669106881405
0.0010075465234607207,0.5671669106881405
0.0010075465234607207,0.5689970717423133
0.001017621988695328,0.5689970717423133
0.001017621988695328,0.570095168374817
0.0010226597213126316,0.570095168374817
0.0010226597213126316,0.5708272327964861
0.0010276974539299352,0.5708272327964861
0.0010276974539299352,0.5710102489019033
0.0010377729191645424,0.5710102489019033
0.0010377729191645424,0.5711932650073206
0.001042810651781846,0.5711932650073206
0.001042810651781846,0.5720168374816984
0.0010478483843991495,0.5720168374816984
0.0010478483843991495,0.5723828696925329
0.0010528861170164532,0.5723828696925329
0.0010528861170164532,0.5726573938506588
0.001057923849633757,0.5726573938506588
0.001057923849633757,0.573114934114202
0.0010629615822510604,0.573114934114202
0.0010629615822510604,0.5732064421669106
0.001067999314868364,0.5732064421669106
0.001067999314868364,0.5739385065885798
0.0010730370474856677,0.5739385065885798
0.0010730370474856677,0.5741215226939971
0.0010831125127202749,0.5741215226939971
0.0010831125127202749,0.5743045387994143
0.0010881502453375786,0.5743045387994143
0.0010881502453375786,0.574396046852123
0.001093187977954882,0.574396046852123
0.001093187977954882,0.5747620790629575
0.0010982257105721857,0.5747620790629575
0.0010982257105721857,0.5758601756954612
0.0011032634431894892,0.5758601756954612
0.0011032634431894892,0.5763177159590044
0.0011083011758067929,0.5763177159590044
0.0011083011758067929,0.576409224011713
0.0011133389084240965,0.576409224011713
0.0011133389084240965,0.5777818448023426
0.0011183766410414,0.5777818448023426
0.0011183766410414,0.5783308931185944
0.0011234143736587037,0.5783308931185944
0.0011234143736587037,0.5794289897510981
0.0011284521062760074,0.5794289897510981
0.0011284521062760074,0.579703513909224
0.0011385275715106145,0.579703513909224
0.0011385275715106145,0.5801610541727672
0.0011435653041279182,0.5801610541727672
0.0011435653041279182,0.5815336749633968
0.0011486030367452217,0.5815336749633968
0.0011486030367452217,0.5816251830161054
0.001158678501979829,0.5816251830161054
0.001158678501979829,0.5818997071742313
0.0011637162345971325,0.5818997071742313
0.0011637162345971325,0.582723279648609
0.0011687539672144362,0.582723279648609
0.0011687539672144362,0.5833638360175696
0.0011737916998317396,0.5833638360175696
0.0011737916998317396,0.5837298682284041
0.001183867165066347,0.5837298682284041
0.001183867165066347,0.5842789165446559
0.0011889048976836505,0.5842789165446559
0.0011889048976836505,0.5845534407027818
0.0011989803629182578,0.5845534407027818
0.0011989803629182578,0.5854685212298683
0.0012040180955355613,0.5854685212298683
0.0012040180955355613,0.5859260614934114
0.001209055828152865,0.5859260614934114
0.001209055828152865,0.5863836017569546
0.0012140935607701687,0.5863836017569546
0.0012140935607701687,0.5864751098096632
0.0012191312933874721,0.5864751098096632
0.0012191312933874721,0.5867496339677891
0.0012241690260047758,0.5867496339677891
0.0012241690260047758,0.5868411420204978
0.0012292067586220793,0.5868411420204978
0.0012292067586220793,0.5872071742313324
0.001234244491239383,0.5872071742313324
0.001234244491239383,0.5879392386530015
0.0012392822238566866,0.5879392386530015
0.0012392822238566866,0.5886713030746705
0.00124431995647399,0.5886713030746705
0.00124431995647399,0.5887628111273792
0.001259433154325901,0.5887628111273792
0.001259433154325901,0.5897693997071742
0.0012745463521778118,0.5897693997071742
0.0012745463521778118,0.5901354319180088
0.0012795840847951154,0.5901354319180088
0.0012795840847951154,0.5913250366032211
0.0012846218174124191,0.5913250366032211
0.0012846218174124191,0.591599560761347
0.0012896595500297226,0.591599560761347
0.0012896595500297226,0.5916910688140556
0.0012946972826470263,0.5916910688140556
0.0012946972826470263,0.592606149341142
0.0012997350152643297,0.592606149341142
0.0012997350152643297,0.592880673499268
0.0013047727478816334,0.592880673499268
0.0013047727478816334,0.5932467057101025
0.0013148482131162406,0.5932467057101025
0.0013148482131162406,0.5933382137628112
0.0013198859457335442,0.5933382137628112
0.0013198859457335442,0.5935212298682284
0.0013299614109681514,0.5935212298682284
0.0013299614109681514,0.5942532942898975
0.0013400368762027587,0.5942532942898975
0.0013400368762027587,0.5954428989751098
0.0013450746088200622,0.5954428989751098
0.0013450746088200622,0.5959919472913616
0.001350112341437366,0.5959919472913616
0.001350112341437366,0.5962664714494875
0.0013551500740546696,0.5962664714494875
0.0013551500740546696,0.5963579795021962
0.001360187806671973,0.5963579795021962
0.001360187806671973,0.5972730600292826
0.0013753010045238839,0.5972730600292826
0.0013753010045238839,0.5973645680819912
0.0013803387371411876,0.5973645680819912
0.0013803387371411876,0.597913616398243
0.001385376469758491,0.597913616398243
0.001385376469758491,0.5980966325036603
0.0013904142023757947,0.5980966325036603
0.0013904142023757947,0.5983711566617862
0.0014004896676104018,0.5983711566617862
0.0014004896676104018,0.599194729136164
0.0014105651328450092,0.599194729136164
0.0014105651328450092,0.6006588579795022
0.0014156028654623127,0.6006588579795022
0.0014156028654623127,0.6008418740849195
0.0014206405980796164,0.6008418740849195
0.0014206405980796164,0.6012994143484627
0.00142567833069692,0.6012994143484627
0.00142567833069692,0.6013909224011713
0.0014357537959315272,0.6013909224011713
0.0014357537959315272,0.60148243045388
0.0014407915285488306,0.60148243045388
0.0014407915285488306,0.6018484626647145
0.001450866993783438,0.6018484626647145
0.001450866993783438,0.6021229868228404
0.0014659801916353488,0.6021229868228404
0.0014659801916353488,0.6024890190336749
0.0014710179242526523,0.6024890190336749
0.0014710179242526523,0.6026720351390923
0.001476055656869956,0.6026720351390923
0.001476055656869956,0.6027635431918009
0.0014810933894872597,0.6027635431918009
0.0014810933894872597,0.6032210834553441
0.0014861311221045631,0.6032210834553441
0.0014861311221045631,0.6036786237188873
0.0014911688547218668,0.6036786237188873
0.0014911688547218668,0.6039531478770132
0.0014962065873391703,0.6039531478770132
0.0014962065873391703,0.6045021961932651
0.001501244319956474,0.6045021961932651
0.001501244319956474,0.6045937042459737
0.0015062820525737776,0.6045937042459737
0.0015062820525737776,0.60550878477306
0.001511319785191081,0.60550878477306
0.001511319785191081,0.6057833089311859
0.0015163575178083848,0.6057833089311859
0.0015163575178083848,0.6063323572474377
0.0015213952504256885,0.6063323572474377
0.0015213952504256885,0.6065153733528551
0.0015314707156602956,0.6065153733528551
0.0015314707156602956,0.6071559297218155
0.0015365084482775993,0.6071559297218155
0.0015365084482775993,0.6075219619326501
0.0015415461808949028,0.6075219619326501
0.0015415461808949028,0.6089860907759883
0.0015465839135122064,0.6089860907759883
0.0015465839135122064,0.6094436310395315
0.0015516216461295101,0.6094436310395315
0.0015516216461295101,0.6096266471449487
0.0015667348439814207,0.6096266471449487
0.0015667348439814207,0.6099011713030746
0.0015717725765987244,0.6099011713030746
0.0015717725765987244,0.6100841874084919
0.001576810309216028,0.6100841874084919
0.001576810309216028,0.6105417276720352
0.0015818480418333316,0.6105417276720352
0.0015818480418333316,0.6108162518301611
0.0015868857744506353,0.6108162518301611
0.0015868857744506353,0.6109077598828697
0.0015969612396852424,0.6109077598828697
0.0015969612396852424,0.6112737920937042
0.0016070367049198498,0.6112737920937042
0.0016070367049198498,0.6116398243045388
0.0016120744375371532,0.6116398243045388
0.0016120744375371532,0.612097364568082
0.001617112170154457,0.612097364568082
0.001617112170154457,0.6125549048316252
0.0016221499027717606,0.6125549048316252
0.0016221499027717606,0.6126464128843339
0.0016322253680063677,0.6126464128843339
0.0016322253680063677,0.6131954612005857
0.0016372631006236712,0.6131954612005857
0.0016372631006236712,0.6136530014641288
0.0016423008332409749,0.6136530014641288
0.0016423008332409749,0.6142935578330894
0.0016473385658582786,0.6142935578330894
0.0016473385658582786,0.6144765739385066
0.001652376298475582,0.6144765739385066
0.001652376298475582,0.6149341142020498
0.0016574140310928857,0.6149341142020498
0.0016574140310928857,0.6152086383601757
0.0016725272289447965,0.6152086383601757
0.0016725272289447965,0.6156661786237189
0.0016775649615621002,0.6156661786237189
0.0016775649615621002,0.6159407027818448
0.0016876404267967074,0.6159407027818448
0.0016876404267967074,0.616398243045388
0.0016977158920313145,0.616398243045388
0.0016977158920313145,0.6168557833089312
0.0017027536246486182,0.6168557833089312
0.0017027536246486182,0.6171303074670571
0.0017128290898832253,0.6171303074670571
0.0017128290898832253,0.6181368960468521
0.001717866822500529,0.6181368960468521
0.001717866822500529,0.6185029282576867
0.0017229045551178325,0.6185029282576867
0.0017229045551178325,0.6187774524158126
0.0017380177529697433,0.6187774524158126
0.0017380177529697433,0.6190519765739385
0.001743055485587047,0.6190519765739385
0.001743055485587047,0.6192349926793558
0.0017531309508216541,0.6192349926793558
0.0017531309508216541,0.6193265007320644
0.0017581686834389578,0.6193265007320644
0.0017581686834389578,0.6196925329428989
0.0017632064160562613,0.6196925329428989
0.0017632064160562613,0.6204245973645681
0.0017732818812908687,0.6204245973645681
0.0017732818812908687,0.621705710102489
0.0017783196139081721,0.621705710102489
0.0017783196139081721,0.6217972181551976
0.0017833573465254758,0.6217972181551976
0.0017833573465254758,0.6223462664714495
0.0017883950791427795,0.6223462664714495
0.0017883950791427795,0.6225292825768668
0.001793432811760083,0.6225292825768668
0.001793432811760083,0.6233528550512445
0.0017984705443773866,0.6233528550512445
0.0017984705443773866,0.6240849194729137
0.0018035082769946903,0.6240849194729137
0.0018035082769946903,0.6241764275256223
0.0018085460096119938,0.6241764275256223
0.0018085460096119938,0.6247254758418741
0.0018135837422292975,0.6247254758418741
0.0018135837422292975,0.6248169838945827
0.0018186214748466011,0.6248169838945827
0.0018186214748466011,0.625
0.0018286969400812083,0.625
0.0018286969400812083,0.6250915080527086
0.0018337346726985118,0.6250915080527086
0.0018337346726985118,0.6251830161054173
0.0018438101379331191,0.6251830161054173
0.0018438101379331191,0.6259150805270863
0.00185892333578503,0.6259150805270863
0.00185892333578503,0.6260065885797951
0.0018740365336369408,0.6260065885797951
0.0018740365336369408,0.6264641288433382
0.0018790742662542442,0.6264641288433382
0.0018790742662542442,0.6269216691068814
0.001894187464106155,0.6269216691068814
0.001894187464106155,0.6271046852122987
0.0018992251967234587,0.6271046852122987
0.0018992251967234587,0.6275622254758418
0.0019042629293407622,0.6275622254758418
0.0019042629293407622,0.6276537335285505
0.001909300661958066,0.6276537335285505
0.001909300661958066,0.6281112737920937
0.0019143383945753696,0.6281112737920937
0.0019143383945753696,0.6283857979502196
0.001919376127192673,0.6283857979502196
0.001919376127192673,0.6300329428989752
0.0019294515924272804,0.6300329428989752
0.0019294515924272804,0.6303989751098097
0.0019344893250445839,0.6303989751098097
0.0019344893250445839,0.6314970717423133
0.0019496025228964947,0.6314970717423133
0.0019496025228964947,0.6319546120058566
0.001954640255513798,0.6319546120058566
0.001954640255513798,0.6324121522693997
0.001969753453365709,0.6324121522693997
0.001969753453365709,0.6325036603221084
0.0019798289186003164,0.6325036603221084
0.0019798289186003164,0.632595168374817
0.00198486665121762,0.632595168374817
0.00198486665121762,0.6326866764275256
0.0019899043838349237,0.6326866764275256
0.0019899043838349237,0.6334187408491947
0.001994942116452227,0.6334187408491947
0.001994942116452227,0.6335102489019033
0.0020050175816868345,0.6335102489019033
0.0020050175816868345,0.6337847730600292
0.002010055314304138,0.6337847730600292
0.002010055314304138,0.6339677891654466
0.0020201307795387454,0.6339677891654466
0.0020201307795387454,0.6341508052708639
0.002025168512156049,0.6341508052708639
0.002025168512156049,0.6345168374816984
0.0020302062447733523,0.6345168374816984
0.0020302062447733523,0.6346998535871157
0.002035243977390656,0.6346998535871157
0.002035243977390656,0.6348828696925329
0.0020402817100079597,0.6348828696925329
0.0020402817100079597,0.6349743777452416
0.002045319442625263,0.6349743777452416
0.002045319442625263,0.6355234260614934
0.002050357175242567,0.6355234260614934
0.002050357175242567,0.6357064421669106
0.002060432640477174,0.6357064421669106
0.002060432640477174,0.6357979502196194
0.0020654703730944774,0.6357979502196194
0.0020654703730944774,0.6359809663250366
0.0020705081057117813,0.6359809663250366
0.0020705081057117813,0.6364385065885798
0.0020805835709463883,0.6364385065885798
0.0020805835709463883,0.6366215226939971
0.002085621303563692,0.6366215226939971
0.002085621303563692,0.6368045387994143
0.0020906590361809956,0.6368045387994143
0.0020906590361809956,0.6370790629575402
0.002095696768798299,0.6370790629575402
0.002095696768798299,0.6372620790629575
0.002100734501415603,0.6372620790629575
0.002100734501415603,0.6373535871156661
0.0021057722340329064,0.6373535871156661
0.0021057722340329064,0.6374450951683748
0.002115847699267514,0.6374450951683748
0.002115847699267514,0.638177159590044
0.0021208854318848173,0.638177159590044
0.0021208854318848173,0.6382686676427526
0.0021259231645021207,0.6382686676427526
0.0021259231645021207,0.6383601756954612
0.0021309608971194246,0.6383601756954612
0.0021309608971194246,0.6385431918008785
0.002135998629736728,0.6385431918008785
0.002135998629736728,0.6392752562225475
0.0021410363623540316,0.6392752562225475
0.0021410363623540316,0.6393667642752562
0.0021460740949713355,0.6393667642752562
0.0021460740949713355,0.6394582723279648
0.0021662250254405498,0.6394582723279648
0.0021662250254405498,0.6399158125915081
0.002176300490675157,0.6399158125915081
0.002176300490675157,0.640190336749634
0.0021813382232924606,0.640190336749634
0.0021813382232924606,0.6407393850658858
0.0021964514211443714,0.6407393850658858
0.0021964514211443714,0.6408308931185944
0.0022115646189962822,0.6408308931185944
0.0022115646189962822,0.6414714494875549
0.0022166023516135857,0.6414714494875549
0.0022166023516135857,0.6417459736456809
0.002221640084230889,0.6417459736456809
0.002221640084230889,0.6421120058565154
0.002226677816848193,0.6421120058565154
0.002226677816848193,0.6428440702781845
0.0022317155494654965,0.6428440702781845
0.0022317155494654965,0.6430270863836017
0.0022367532820828,0.6430270863836017
0.0022367532820828,0.6431185944363104
0.0022468287473174074,0.6431185944363104
0.0022468287473174074,0.643210102489019
0.002251866479934711,0.643210102489019
0.002251866479934711,0.6433931185944363
0.0022569042125520147,0.6433931185944363
0.0022569042125520147,0.6435761346998536
0.0022669796777866217,0.6435761346998536
0.0022669796777866217,0.6437591508052709
0.0022720174104039256,0.6437591508052709
0.0022720174104039256,0.6440336749633968
0.002277055143021229,0.6440336749633968
0.002277055143021229,0.6443081991215227
0.0022871306082558364,0.6443081991215227
0.0022871306082558364,0.6446742313323572
0.00229216834087314,0.6446742313323572
0.00229216834087314,0.6448572474377745
0.0023022438061077472,0.6448572474377745
0.0023022438061077472,0.645223279648609
0.002312319271342354,0.645223279648609
0.002312319271342354,0.6458638360175696
0.002317357003959658,0.6458638360175696
0.002317357003959658,0.64650439238653
0.0023324702018115684,0.64650439238653
0.0023324702018115684,0.6469619326500732
0.0023375079344288723,0.6469619326500732
0.0023375079344288723,0.6470534407027818
0.002352621132280783,0.6470534407027818
0.002352621132280783,0.6482430453879942
0.0023576588648980866,0.6482430453879942
0.0023576588648980866,0.6484260614934114
0.002367734330132694,0.6484260614934114
0.002367734330132694,0.6487005856515373
0.0023727720627499975,0.6487005856515373
0.0023727720627499975,0.6489751098096632
0.002377809795367301,0.6489751098096632
0.002377809795367301,0.6490666178623719
0.002382847527984605,0.6490666178623719
0.002382847527984605,0.6491581259150805
0.0023979607258365157,0.6491581259150805
0.0023979607258365157,0.6497071742313324
0.002402998458453819,0.6497071742313324
0.002402998458453819,0.6499816983894583
0.00241811165630573,0.6499816983894583
0.00241811165630573,0.6500732064421669
0.0024332248541576408,0.6500732064421669
0.0024332248541576408,0.6503477306002928
0.0024382625867749442,0.6503477306002928
0.0024382625867749442,0.6504392386530015
0.002443300319392248,0.6504392386530015
0.002443300319392248,0.6510797950219619
0.0024584135172441585,0.6510797950219619
0.0024584135172441585,0.6519033674963397
0.0024634512498614624,0.6519033674963397
0.0024634512498614624,0.6523609077598829
0.002468488982478766,0.6523609077598829
0.002468488982478766,0.6524524158125915
0.0024735267150960694,0.6524524158125915
0.0024735267150960694,0.6526354319180088
0.0024785644477133733,0.6526354319180088
0.0024785644477133733,0.6529099560761347
0.00248863991294798,0.6529099560761347
0.00248863991294798,0.6535505124450952
0.002493677645565284,0.6535505124450952
0.002493677645565284,0.6538250366032211
0.0024987153781825876,0.6538250366032211
0.0024987153781825876,0.6541910688140556
0.002503753110799891,0.6541910688140556
0.002503753110799891,0.6543740849194729
0.002508790843417195,0.6543740849194729
0.002508790843417195,0.6544655929721815
0.0025138285760344984,0.6544655929721815
0.0025138285760344984,0.6546486090775988
0.002518866308651802,0.6546486090775988
0.002518866308651802,0.6547401171303074
0.0025239040412691057,0.6547401171303074
0.0025239040412691057,0.6549231332357247
0.0025390172391210166,0.6549231332357247
0.0025390172391210166,0.6550146412884333
0.00254405497173832,0.6550146412884333
0.00254405497173832,0.655106149341142
0.0025490927043556235,0.655106149341142
0.0025490927043556235,0.6552891654465594
0.0025541304369729274,0.6552891654465594
0.0025541304369729274,0.6557467057101025
0.002559168169590231,0.6557467057101025
0.002559168169590231,0.6559297218155198
0.0025642059022075343,0.6559297218155198
0.0025642059022075343,0.656387262079063
0.0025692436348248382,0.656387262079063
0.0025692436348248382,0.6565702781844802
0.0025742813674421417,0.6565702781844802
0.0025742813674421417,0.6572108345534406
0.002579319100059445,0.6572108345534406
0.002579319100059445,0.6573023426061494
0.002584356832676749,0.6573023426061494
0.002584356832676749,0.6578513909224012
0.002594432297911356,0.6578513909224012
0.002594432297911356,0.6581259150805271
0.0026045077631459634,0.6581259150805271
0.0026045077631459634,0.6585834553440703
0.0026145832283805703,0.6585834553440703
0.0026145832283805703,0.6587664714494875
0.002619620960997874,0.6587664714494875
0.002619620960997874,0.6590409956076134
0.0026246586936151776,0.6590409956076134
0.0026246586936151776,0.6594070278184481
0.002629696426232481,0.6594070278184481
0.002629696426232481,0.6600475841874085
0.0026397718914670885,0.6600475841874085
0.0026397718914670885,0.6602306002928258
0.002649847356701696,0.6602306002928258
0.002649847356701696,0.660413616398243
0.0026750360197882136,0.660413616398243
0.0026750360197882136,0.6606881405563689
0.0026800737524055175,0.6606881405563689
0.0026800737524055175,0.6608711566617862
0.002685111485022821,0.6608711566617862
0.002685111485022821,0.6613286969253295
0.0026951869502574283,0.6613286969253295
0.0026951869502574283,0.6614202049780381
0.002700224682874732,0.6614202049780381
0.002700224682874732,0.6615117130307467
0.0027052624154920353,0.6615117130307467
0.0027052624154920353,0.6616032210834554
0.002710300148109339,0.6616032210834554
0.002710300148109339,0.661694729136164
0.002720375613343946,0.661694729136164
0.002720375613343946,0.6620607613469985
0.0027405265438131604,0.6620607613469985
0.0027405265438131604,0.6621522693997072
0.0027506020090477677,0.6621522693997072
0.0027506020090477677,0.6633418740849195
0.0027657152068996786,0.6633418740849195
0.0027657152068996786,0.663707906295754
0.002775790672134286,0.663707906295754
0.002775790672134286,0.6637994143484627
0.0027808284047515894,0.6637994143484627
0.0027808284047515894,0.66398243045388
0.002785866137368893,0.66398243045388
0.002785866137368893,0.6640739385065886
0.0027909038699861968,0.6640739385065886
0.0027909038699861968,0.6642569546120058
0.0027959416026035002,0.6642569546120058
0.0027959416026035002,0.6643484626647145
0.0028009793352208037,0.6643484626647145
0.0028009793352208037,0.6648060029282576
0.0028060170678381076,0.6648060029282576
0.0028060170678381076,0.6652635431918009
0.002811054800455411,0.6652635431918009
0.002811054800455411,0.6659040995607614
0.0028160925330727145,0.6659040995607614
0.0028160925330727145,0.6661786237188873
0.0028211302656900184,0.6661786237188873
0.0028211302656900184,0.6666361639824304
0.002826167998307322,0.6666361639824304
0.002826167998307322,0.6669106881405563
0.0028312057309246253,0.6669106881405563
0.0028312057309246253,0.6670021961932651
0.0028362434635419292,0.6670021961932651
0.0028362434635419292,0.667276720351391
0.0028412811961592327,0.667276720351391
0.0028412811961592327,0.6673682284040996
0.002846318928776536,0.6673682284040996
0.002846318928776536,0.6677342606149341
0.00285135666139384,0.6677342606149341
0.00285135666139384,0.6678257686676428
0.0028563943940111435,0.6678257686676428
0.0028563943940111435,0.6679172767203514
0.002861432126628447,0.6679172767203514
0.002861432126628447,0.6681002928257687
0.0028664698592457505,0.6681002928257687
0.0028664698592457505,0.6681918008784773
0.0028715075918630544,0.6681918008784773
0.0028715075918630544,0.6682833089311859
0.002876545324480358,0.6682833089311859
0.002876545324480358,0.6685578330893118
0.0028815830570976613,0.6685578330893118
0.0028815830570976613,0.6688323572474377
0.002886620789714965,0.6688323572474377
0.002886620789714965,0.6691983894582724
0.002901733987566876,0.6691983894582724
0.002901733987566876,0.6693814055636896
0.0029067717201841795,0.6693814055636896
0.0029067717201841795,0.6696559297218155
0.002911809452801483,0.6696559297218155
0.002911809452801483,0.6698389458272328
0.002916847185418787,0.6698389458272328
0.002916847185418787,0.6701134699853587
0.0029319603832706977,0.6701134699853587
0.0029319603832706977,0.6703879941434846
0.002936998115888001,0.6703879941434846
0.002936998115888001,0.6704795021961932
0.0029420358485053046,0.6704795021961932
0.0029420358485053046,0.6707540263543191
0.002952111313739912,0.6707540263543191
0.002952111313739912,0.6712115666178624
0.0029621867789745193,0.6712115666178624
0.0029621867789745193,0.671303074670571
0.002967224511591823,0.671303074670571
0.002967224511591823,0.6716691068814056
0.0029722622442091263,0.6716691068814056
0.0029722622442091263,0.6718521229868228
0.00297729997682643,0.6718521229868228
0.00297729997682643,0.6720351390922401
0.0029823377094437336,0.6720351390922401
0.0029823377094437336,0.6721266471449487
0.002987375442061037,0.6721266471449487
0.002987375442061037,0.6724011713030746
0.0029924131746783406,0.6724011713030746
0.0029924131746783406,0.6724926793557833
0.0029974509072956445,0.6724926793557833
0.0029974509072956445,0.6725841874084919
0.003002488639912948,0.6725841874084919
0.003002488639912948,0.6726756954612005
0.0030075263725302514,0.6726756954612005
0.0030075263725302514,0.6727672035139092
0.0030125641051475553,0.6727672035139092
0.0030125641051475553,0.6729502196193266
0.0030176018377648588,0.6729502196193266
0.0030176018377648588,0.6731332357247438
0.003022639570382162,0.6731332357247438
0.003022639570382162,0.6733162518301611
0.003027677302999466,0.6733162518301611
0.003027677302999466,0.6736822840409956
0.003037752768234073,0.6736822840409956
0.003037752768234073,0.6739568081991215
0.003042790500851377,0.6739568081991215
0.003042790500851377,0.6740483162518301
0.0030478282334686804,0.6740483162518301
0.0030478282334686804,0.6742313323572474
0.003052865966085984,0.6742313323572474
0.003052865966085984,0.6744143484626647
0.0030629414313205912,0.6744143484626647
0.0030629414313205912,0.6745058565153733
0.0030679791639378947,0.6745058565153733
0.0030679791639378947,0.6747803806734992
0.0030830923617898055,0.6747803806734992
0.0030830923617898055,0.6749633967789166
0.003093167827024413,0.6749633967789166
0.003093167827024413,0.6750549048316252
0.0031032432922590203,0.6750549048316252
0.0031032432922590203,0.6753294289897511
0.0031082810248763237,0.6753294289897511
0.0031082810248763237,0.6754209370424598
0.003113318757493627,0.6754209370424598
0.003113318757493627,0.675603953147877
0.003118356490110931,0.675603953147877
0.003118356490110931,0.6758784773060029
0.0031233942227282346,0.6758784773060029
0.0031233942227282346,0.6760614934114202
0.003128431955345538,0.6760614934114202
0.003128431955345538,0.6761530014641288
0.003143545153197449,0.6761530014641288
0.003143545153197449,0.6763360175695461
0.003153620618432056,0.6763360175695461
0.003153620618432056,0.676610541727672
0.0031586583510493597,0.676610541727672
0.0031586583510493597,0.676885065885798
0.003168733816283967,0.676885065885798
0.003168733816283967,0.6769765739385066
0.003178809281518574,0.6769765739385066
0.003178809281518574,0.6774341142020498
0.003183847014135878,0.6774341142020498
0.003183847014135878,0.6780746705710102
0.0031888847467531813,0.6780746705710102
0.0031888847467531813,0.6782576866764275
0.003203997944605092,0.6782576866764275
0.003203997944605092,0.6792642752562226
0.0032090356772223956,0.6792642752562226
0.0032090356772223956,0.6796303074670571
0.0032140734098396995,0.6796303074670571
0.0032140734098396995,0.6798133235724744
0.003219111142457003,0.6798133235724744
0.003219111142457003,0.6801793557833089
0.0032241488750743065,0.6801793557833089
0.0032241488750743065,0.6802708638360175
0.003234224340308914,0.6802708638360175
0.003234224340308914,0.6809114202049781
0.003244299805543521,0.6809114202049781
0.003244299805543521,0.6813689604685212
0.0032493375381608246,0.6813689604685212
0.0032493375381608246,0.6814604685212299
0.0032644507360127355,0.6814604685212299
0.0032644507360127355,0.6815519765739385
0.003269488468630039,0.6815519765739385
0.003269488468630039,0.6821010248901903
0.0032846016664819498,0.6821010248901903
0.0032846016664819498,0.6825585651537335
0.0032896393990992532,0.6825585651537335
0.0032896393990992532,0.6826500732064422
0.003294677131716557,0.6826500732064422
0.003294677131716557,0.6827415812591509
0.003304752596951164,0.6827415812591509
0.003304752596951164,0.6831076134699854
0.0033148280621857714,0.6831076134699854
0.0033148280621857714,0.683199121522694
0.003319865794803075,0.683199121522694
0.003319865794803075,0.6833821376281113
0.003324903527420379,0.6833821376281113
0.003324903527420379,0.6835651537335286
0.0033299412600376822,0.6835651537335286
0.0033299412600376822,0.6837481698389458
0.0033349789926549857,0.6837481698389458
0.0033349789926549857,0.6839311859443631
0.0033400167252722896,0.6839311859443631
0.0033400167252722896,0.6842972181551976
0.0033500921905068965,0.6842972181551976
0.0033500921905068965,0.6844802342606149
0.0033551299231242004,0.6844802342606149
0.0033551299231242004,0.6846632503660323
0.0033702431209761113,0.6846632503660323
0.0033702431209761113,0.6849377745241582
0.0033752808535934147,0.6849377745241582
0.0033752808535934147,0.68548682284041
0.003380318586210718,0.68548682284041
0.003380318586210718,0.6855783308931186
0.003385356318828022,0.6855783308931186
0.003385356318828022,0.6857613469985359
0.0034055072492972364,0.6857613469985359
0.0034055072492972364,0.6858528550512445
0.00341054498191454,0.6858528550512445
0.00341054498191454,0.6859443631039531
0.0034256581797664507,0.6859443631039531
0.0034256581797664507,0.6860358711566618
0.003430695912383754,0.6860358711566618
0.003430695912383754,0.6864019033674963
0.0034407713776183615,0.6864019033674963
0.0034407713776183615,0.6864934114202049
0.003445809110235665,0.6864934114202049
0.003445809110235665,0.6865849194729137
0.003450846842852969,0.6865849194729137
0.003450846842852969,0.6867679355783309
0.0034659600407048797,0.6867679355783309
0.0034659600407048797,0.6868594436310396
0.0034810732385567905,0.6868594436310396
0.0034810732385567905,0.6871339677891655
0.003486110971174094,0.6871339677891655
0.003486110971174094,0.6875915080527086
0.0034911487037913975,0.6875915080527086
0.0034911487037913975,0.6876830161054173
0.0034961864364087014,0.6876830161054173
0.0034961864364087014,0.6879575402635432
0.003501224169026005,0.6879575402635432
0.003501224169026005,0.6880490483162518
0.0035062619016433083,0.6880490483162518
0.0035062619016433083,0.688781112737921
0.003511299634260612,0.688781112737921
0.003511299634260612,0.6888726207906296
0.003521375099495219,0.6888726207906296
0.003521375099495219,0.6889641288433382
0.0035314505647298265,0.6889641288433382
0.0035314505647298265,0.6891471449487555
0.00353648829734713,0.6891471449487555
0.00353648829734713,0.6892386530014641
0.0035465637625817373,0.6892386530014641
0.0035465637625817373,0.68951317715959
0.0035566392278163442,0.68951317715959
0.0035566392278163442,0.6896961932650073
0.003561676960433648,0.6896961932650073
0.003561676960433648,0.6897877013177159
0.0035667146930509516,0.6897877013177159
0.0035667146930509516,0.6900622254758418
0.003571752425668255,0.6900622254758418
0.003571752425668255,0.6902452415812591
0.003576790158285559,0.6902452415812591
0.003576790158285559,0.6904282576866764
0.0035969410887547733,0.6904282576866764
0.0035969410887547733,0.6907027818448024
0.0036019788213720767,0.6907027818448024
0.0036019788213720767,0.6909773060029283
0.0036070165539893806,0.6909773060029283
0.0036070165539893806,0.6910688140556369
0.0036221297518412915,0.6910688140556369
0.0036221297518412915,0.6912518301610542
0.003627167484458595,0.6912518301610542
0.003627167484458595,0.691800878477306
0.0036422806823105057,0.691800878477306
0.0036422806823105057,0.6922584187408491
0.003647318414927809,0.6922584187408491
0.003647318414927809,0.6928074670571011
0.003652356147545113,0.6928074670571011
0.003652356147545113,0.6928989751098097
0.0036573938801624166,0.6928989751098097
0.0036573938801624166,0.693081991215227
0.0036725070780143274,0.693081991215227
0.0036725070780143274,0.6940885797950219
0.0036825825432489343,0.6940885797950219
0.0036825825432489343,0.6943631039531479
0.0036876202758662382,0.6943631039531479
0.0036876202758662382,0.6944546120058566
0.0036926580084835417,0.6944546120058566
0.0036926580084835417,0.6947291361639825
0.003702733473718149,0.6947291361639825
0.003702733473718149,0.6948206442166911
0.0037077712063354525,0.6948206442166911
0.0037077712063354525,0.6952781844802343
0.003712808938952756,0.6952781844802343
0.003712808938952756,0.6955527086383602
0.00371784667157006,0.6955527086383602
0.00371784667157006,0.6959187408491947
0.0037329598694219707,0.6959187408491947
0.0037329598694219707,0.696101756954612
0.0037430353346565776,0.696101756954612
0.0037430353346565776,0.6961932650073206
0.003753110799891185,0.6961932650073206
0.003753110799891185,0.6968338213762811
0.003768223997743096,0.6968338213762811
0.003768223997743096,0.6971998535871157
0.0037732617303603993,0.6971998535871157
0.0037732617303603993,0.6973828696925329
0.0037833371955950067,0.6973828696925329
0.0037833371955950067,0.6974743777452416
0.00378837492821231,0.6974743777452416
0.00378837492821231,0.6976573938506588
0.0037934126608296136,0.6976573938506588
0.0037934126608296136,0.6978404099560761
0.0037984503934469175,0.6978404099560761
0.0037984503934469175,0.6979319180087847
0.003803488126064221,0.6979319180087847
0.003803488126064221,0.6980234260614934
0.0038085258586815244,0.6980234260614934
0.0038085258586815244,0.698114934114202
0.0038135635912988283,0.698114934114202
0.0038135635912988283,0.6982064421669106
0.003818601323916132,0.6982064421669106
0.003818601323916132,0.6982979502196194
0.0038236390565334353,0.6982979502196194
0.0038236390565334353,0.698389458272328
0.0038337145217680426,0.698389458272328
0.0038337145217680426,0.6985724743777453
0.003838752254385346,0.6985724743777453
0.003838752254385346,0.6987554904831625
0.0038488277196199534,0.6987554904831625
0.0038488277196199534,0.6990300146412884
0.003858903184854561,0.6990300146412884
0.003858903184854561,0.6992130307467057
0.0038639409174718643,0.6992130307467057
0.0038639409174718643,0.699396046852123
0.003879054115323775,0.699396046852123
0.003879054115323775,0.6996705710102489
0.0038891295805583825,0.6996705710102489
0.0038891295805583825,0.7000366032210834
0.0038992050457929894,0.7000366032210834
0.0038992050457929894,0.700128111273792
0.0039042427784102933,0.700128111273792
0.0039042427784102933,0.7002196193265008
0.0039143182436449,0.7002196193265008
0.0039143182436449,0.7005856515373353
0.003924393708879507,0.7005856515373353
0.003924393708879507,0.7010431918008785
0.003929431441496811,0.7010431918008785
0.003929431441496811,0.7011346998535871
0.003944544639348722,0.7011346998535871
0.003944544639348722,0.7018667642752562
0.003949582371966026,0.7018667642752562
0.003949582371966026,0.7021412884333821
0.003964695569817937,0.7021412884333821
0.003964695569817937,0.7025073206442167
0.00396973330243524,0.7025073206442167
0.00396973330243524,0.7025988286969254
0.0039747710350525435,0.7025988286969254
0.0039747710350525435,0.7031478770131772
0.0039798087676698474,0.7031478770131772
0.0039798087676698474,0.7033308931185944
0.0039848465002871505,0.7033308931185944
0.0039848465002871505,0.7035139092240117
0.003994921965521758,0.7035139092240117
0.003994921965521758,0.7036054172767203
0.004010035163373669,0.7036054172767203
0.004010035163373669,0.7041544655929722
0.004015072895990972,0.7041544655929722
0.004015072895990972,0.7042459736456809
0.00402514836122558,0.7042459736456809
0.00402514836122558,0.7043374816983895
0.004035223826460187,0.7043374816983895
0.004035223826460187,0.7046120058565154
0.004040261559077491,0.7046120058565154
0.004040261559077491,0.704703513909224
0.004045299291694794,0.704703513909224
0.004045299291694794,0.7047950219619327
0.004050337024312098,0.7047950219619327
0.004050337024312098,0.7048865300146413
0.004055374756929402,0.7048865300146413
0.004055374756929402,0.7050695461200586
0.0040755256873986154,0.7050695461200586
0.0040755256873986154,0.705710102489019
0.004080563420015919,0.705710102489019
0.004080563420015919,0.7058016105417276
0.004105752083102437,0.7058016105417276
0.004105752083102437,0.7059846266471449
0.004110789815719741,0.7059846266471449
0.004110789815719741,0.7060761346998536
0.004120865280954348,0.7060761346998536
0.004120865280954348,0.7063506588579795
0.004135978478806259,0.7063506588579795
0.004135978478806259,0.7067166910688141
0.004141016211423563,0.7067166910688141
0.004141016211423563,0.7068081991215227
0.004146053944040866,0.7068081991215227
0.004146053944040866,0.7072657393850659
0.00415109167665817,0.7072657393850659
0.00415109167665817,0.7074487554904831
0.0041611671418927765,0.7074487554904831
0.0041611671418927765,0.7075402635431918
0.004176280339744687,0.7075402635431918
0.004176280339744687,0.7079978038067349
0.004181318072361991,0.7079978038067349
0.004181318072361991,0.7085468521229868
0.004191393537596598,0.7085468521229868
0.004191393537596598,0.7086383601756955
0.004196431270213902,0.7086383601756955
0.004196431270213902,0.7089128843338214
0.004201469002831206,0.7089128843338214
0.004201469002831206,0.70900439238653
0.004226657665917724,0.70900439238653
0.004226657665917724,0.7091874084919473
0.004231695398535028,0.7091874084919473
0.004231695398535028,0.7092789165446559
0.004236733131152331,0.7092789165446559
0.004236733131152331,0.7094619326500732
0.0042417708637696346,0.7094619326500732
0.0042417708637696346,0.7097364568081991
0.0042468085963869385,0.7097364568081991
0.0042468085963869385,0.7099194729136163
0.00427703499209076,0.7099194729136163
0.00427703499209076,0.7100109809663251
0.004282072724708063,0.7100109809663251
0.004282072724708063,0.7101939970717424
0.004287110457325367,0.7101939970717424
0.004287110457325367,0.7105600292825769
0.004292148189942671,0.7105600292825769
0.004292148189942671,0.7108345534407028
0.004307261387794582,0.7108345534407028
0.004307261387794582,0.711292093704246
0.004322374585646493,0.711292093704246
0.004322374585646493,0.7114751098096632
0.0043324500508810995,0.7114751098096632
0.0043324500508810995,0.7118411420204978
0.004337487783498403,0.7118411420204978
0.004337487783498403,0.7119326500732065
0.0043425255161157065,0.7119326500732065
0.0043425255161157065,0.7121156661786238
0.00434756324873301,0.7121156661786238
0.00434756324873301,0.7123901903367497
0.004352600981350314,0.7123901903367497
0.004352600981350314,0.7124816983894583
0.004362676446584921,0.7124816983894583
0.004362676446584921,0.7125732064421669
0.004367714179202225,0.7125732064421669
0.004367714179202225,0.7127562225475842
0.004372751911819528,0.7127562225475842
0.004372751911819528,0.7129392386530015
0.004377789644436832,0.7129392386530015
0.004377789644436832,0.7130307467057101
0.004382827377054136,0.7130307467057101
0.004382827377054136,0.7133967789165446
0.004397940574906046,0.7133967789165446
0.004397940574906046,0.7134882869692533
0.004408016040140654,0.7134882869692533
0.004408016040140654,0.7135797950219619
0.0044231292379925645,0.7135797950219619
0.0044231292379925645,0.7136713030746705
0.0044281669706098675,0.7136713030746705
0.0044281669706098675,0.7139458272327965
0.004433204703227171,0.7139458272327965
0.004433204703227171,0.7141288433382138
0.004438242435844475,0.7141288433382138
0.004438242435844475,0.7142203513909224
0.004443280168461778,0.7142203513909224
0.004443280168461778,0.7143118594436311
0.004453355633696386,0.7143118594436311
0.004453355633696386,0.7144033674963397
0.004463431098930993,0.7144033674963397
0.004463431098930993,0.714586383601757
0.004493657494634815,0.714586383601757
0.004493657494634815,0.7147693997071742
0.004503732959869422,0.7147693997071742
0.004503732959869422,0.7148609077598829
0.0045087706924867256,0.7148609077598829
0.0045087706924867256,0.7149524158125915
0.004523883890338636,0.7149524158125915
0.004523883890338636,0.7156844802342606
0.00452892162295594,0.7156844802342606
0.00452892162295594,0.7160505124450952
0.004533959355573243,0.7160505124450952
0.004533959355573243,0.7162335285505125
0.004538997088190547,0.7162335285505125
0.004538997088190547,0.7165080527086384
0.004549072553425154,0.7165080527086384
0.004549072553425154,0.716599560761347
0.004554110286042458,0.716599560761347
0.004554110286042458,0.7168740849194729
0.004574261216511673,0.7168740849194729
0.004574261216511673,0.7170571010248902
0.004579298949128976,0.7170571010248902
0.004579298949128976,0.7172401171303074
0.004589374414363584,0.7172401171303074
0.004589374414363584,0.7173316251830161
0.0046044876122154944,0.7173316251830161
0.0046044876122154944,0.7174231332357247
0.0046095253448327975,0.7174231332357247
0.0046095253448327975,0.7177891654465594
0.004614563077450101,0.7177891654465594
0.004614563077450101,0.7179721815519766
0.004624638542684708,0.7179721815519766
0.004624638542684708,0.7181551976573939
0.004634714007919316,0.7181551976573939
0.004634714007919316,0.7184297218155198
0.004639751740536619,0.7184297218155198
0.004639751740536619,0.7189787701317716
0.004644789473153923,0.7189787701317716
0.004644789473153923,0.7190702781844802
0.004649827205771226,0.7190702781844802
0.004649827205771226,0.7191617862371888
0.004659902671005834,0.7191617862371888
0.004659902671005834,0.7192532942898975
0.004664940403623137,0.7192532942898975
0.004664940403623137,0.7194363103953147
0.004675015868857745,0.7194363103953147
0.004675015868857745,0.7195278184480234
0.004710279997178869,0.7195278184480234
0.004710279997178869,0.7198023426061494
0.004730430927648084,0.7198023426061494
0.004730430927648084,0.7201683748169839
0.004735468660265388,0.7201683748169839
0.004735468660265388,0.7204428989751098
0.004740506392882691,0.7204428989751098
0.004740506392882691,0.7205344070278185
0.004750581858117299,0.7205344070278185
0.004750581858117299,0.7208089311859444
0.004760657323351906,0.7208089311859444
0.004760657323351906,0.7210834553440703
0.00476569505596921,0.7210834553440703
0.00476569505596921,0.7211749633967789
0.004775770521203817,0.7211749633967789
0.004775770521203817,0.7214494875549048
0.0047858459864384235,0.7214494875549048
0.0047858459864384235,0.7217240117130308
0.004790883719055727,0.7217240117130308
0.004790883719055727,0.7219070278184481
0.004795921451673031,0.7219070278184481
0.004795921451673031,0.7220900439238653
0.004800959184290334,0.7220900439238653
0.004800959184290334,0.722181551976574
0.004805996916907638,0.722181551976574
0.004805996916907638,0.7224560761346999
0.004811034649524942,0.7224560761346999
0.004811034649524942,0.7225475841874085
0.004821110114759549,0.7225475841874085
0.004821110114759549,0.7226390922401171
0.004826147847376853,0.7226390922401171
0.004826147847376853,0.7227306002928258
0.004831185579994156,0.7227306002928258
0.004831185579994156,0.7228221083455344
0.00483622331261146,0.7228221083455344
0.00483622331261146,0.7230966325036603
0.004846298777846067,0.7230966325036603
0.004846298777846067,0.7231881405563689
0.0048714874409325854,0.7231881405563689
0.0048714874409325854,0.7238286969253295
0.0048765251735498885,0.7238286969253295
0.0048765251735498885,0.7239202049780381
0.004881562906167192,0.7239202049780381
0.004881562906167192,0.7240117130307467
0.004886600638784496,0.7240117130307467
0.004886600638784496,0.7241032210834554
0.004896676104019103,0.7241032210834554
0.004896676104019103,0.724194729136164
0.004911789301871014,0.724194729136164
0.004911789301871014,0.7242862371888726
0.004936977964957532,0.7242862371888726
0.004936977964957532,0.7243777452415813
0.004942015697574836,0.7243777452415813
0.004942015697574836,0.7244692532942899
0.004947053430192139,0.7244692532942899
0.004947053430192139,0.7246522693997072
0.0049571288954267465,0.7246522693997072
0.0049571288954267465,0.7247437774524158
0.004972242093278657,0.7247437774524158
0.004972242093278657,0.7249267935578331
0.00497727982589596,0.7249267935578331
0.00497727982589596,0.7250183016105417
0.004997430756365175,0.7250183016105417
0.004997430756365175,0.7253843338213762
0.005002468488982479,0.7253843338213762
0.005002468488982479,0.7254758418740849
0.005007506221599782,0.7254758418740849
0.005007506221599782,0.7256588579795022
0.005012543954217086,0.7256588579795022
0.005012543954217086,0.7259333821376281
0.00501758168683439,0.7259333821376281
0.00501758168683439,0.7260248901903368
0.005027657152068997,0.7260248901903368
0.005027657152068997,0.7261163982430454
0.005032694884686301,0.7261163982430454
0.005032694884686301,0.7262994143484627
0.0050478080825382115,0.7262994143484627
0.0050478080825382115,0.72648243045388
0.0050528458151555145,0.72648243045388
0.0050528458151555145,0.7265739385065886
0.005057883547772818,0.7265739385065886
0.005057883547772818,0.7268484626647145
0.005072996745624729,0.7268484626647145
0.005072996745624729,0.7271229868228404
0.005078034478242033,0.7271229868228404
0.005078034478242033,0.727214494875549
0.005083072210859336,0.727214494875549
0.005083072210859336,0.7276720351390923
0.00508810994347664,0.7276720351390923
0.00508810994347664,0.7277635431918009
0.005093147676093944,0.7277635431918009
0.005093147676093944,0.7280380673499268
0.005098185408711247,0.7280380673499268
0.005098185408711247,0.72849560761347
0.005103223141328551,0.72849560761347
0.005103223141328551,0.7289531478770132
0.005113298606563158,0.7289531478770132
0.005113298606563158,0.7291361639824304
0.005123374071797766,0.7291361639824304
0.005123374071797766,0.7295021961932651
0.005128411804415069,0.7295021961932651
0.0051384872696496765,0.7295021961932651
0.005148562734884283,0.7295021961932651
0.005148562734884283,0.7295937042459737
0.005153600467501587,0.7295937042459737
0.005153600467501587,0.7296852122986823
0.00515863820011889,0.7296852122986823
0.00515863820011889,0.729776720351391
0.005168713665353498,0.729776720351391
0.005168713665353498,0.7299597364568082
0.005173751397970801,0.7299597364568082
0.005173751397970801,0.7301427525622255
0.005178789130588105,0.7301427525622255
0.005178789130588105,0.7303257686676428
0.005183826863205408,0.7303257686676428
0.005183826863205408,0.7304172767203514
0.005188864595822712,0.7304172767203514
0.005188864595822712,0.73050878477306
0.005198940061057319,0.73050878477306
0.005198940061057319,0.7306002928257687
0.005203977793674623,0.7306002928257687
0.005203977793674623,0.7307833089311859
0.005209015526291927,0.7307833089311859
0.005209015526291927,0.7312408491947291
0.00521405325890923,0.7312408491947291
0.00521405325890923,0.7321559297218155
0.005219090991526534,0.7321559297218155
0.005219090991526534,0.7322474377745242
0.005239241921995748,0.7322474377745242
0.005239241921995748,0.7324304538799414
0.005249317387230355,0.7324304538799414
0.005249317387230355,0.7325219619326501
0.005254355119847659,0.7325219619326501
0.005254355119847659,0.7327049780380673
0.005259392852464962,0.7327049780380673
0.005259392852464962,0.732796486090776
0.005264430585082266,0.732796486090776
0.005264430585082266,0.7328879941434846
0.00526946831769957,0.7328879941434846
0.00526946831769957,0.7331625183016105
0.005284581515551481,0.7331625183016105
0.005284581515551481,0.7336200585651538
0.005289619248168784,0.7336200585651538
0.005289619248168784,0.7338945827232797
0.005294656980786088,0.7338945827232797
0.005294656980786088,0.7339860907759883
0.005299694713403392,0.7339860907759883
0.005299694713403392,0.7343521229868228
0.0053148079112553025,0.7343521229868228
0.0053148079112553025,0.7347181551976574
0.0053198456438726055,0.7347181551976574
0.0053198456438726055,0.734809663250366
0.005329921109107213,0.734809663250366
0.005329921109107213,0.7349011713030746
0.00533999657434182,0.7349011713030746
0.00533999657434182,0.7349926793557833
0.005355109772193731,0.7349926793557833
0.005355109772193731,0.7350841874084919
0.005385336167897553,0.7350841874084919
0.005385336167897553,0.7354502196193266
0.00539541163313216,0.7354502196193266
0.00539541163313216,0.7356332357247438
0.0054105248309840705,0.7356332357247438
0.0054105248309840705,0.7357247437774525
0.005425638028835981,0.7357247437774525
0.005425638028835981,0.7359992679355783
0.005430675761453285,0.7359992679355783
0.005430675761453285,0.7363653001464129
0.005460902157157107,0.7363653001464129
0.005460902157157107,0.7367313323572474
0.00546593988977441,0.7367313323572474
0.00546593988977441,0.7372803806734992
0.005481053087626321,0.7372803806734992
0.005481053087626321,0.737371888726208
0.005486090820243625,0.737371888726208
0.005486090820243625,0.7374633967789166
0.0054911285528609285,0.7374633967789166
0.0054911285528609285,0.7375549048316252
0.005496166285478232,0.7375549048316252
0.005496166285478232,0.7376464128843339
0.005506241750712839,0.7376464128843339
0.005506241750712839,0.7377379209370425
0.005511279483330142,0.7377379209370425
0.005511279483330142,0.7378294289897511
0.005526392681182053,0.7378294289897511
0.005526392681182053,0.7379209370424598
0.005541505879033964,0.7379209370424598
0.005541505879033964,0.7380124450951684
0.005546543611651268,0.7380124450951684
0.005546543611651268,0.738103953147877
0.005561656809503179,0.738103953147877
0.005561656809503179,0.7381954612005857
0.005571732274737786,0.7381954612005857
0.005571732274737786,0.7382869692532943
0.005596920937824304,0.7382869692532943
0.005596920937824304,0.7383784773060029
0.005601958670441607,0.7383784773060029
0.005601958670441607,0.7384699853587116
0.005612034135676215,0.7384699853587116
0.005612034135676215,0.7385614934114202
0.005617071868293518,0.7385614934114202
0.005617071868293518,0.739385065885798
0.005622109600910822,0.739385065885798
0.005622109600910822,0.7395680819912153
0.005627147333528126,0.7395680819912153
0.005627147333528126,0.7396595900439239
0.005632185066145429,0.7396595900439239
0.005632185066145429,0.7398426061493412
0.005642260531380037,0.7398426061493412
0.005642260531380037,0.7399341142020498
0.00564729826399734,0.7399341142020498
0.00564729826399734,0.7404831625183016
0.005662411461849251,0.7404831625183016
0.005662411461849251,0.7405746705710102
0.005667449194466555,0.7405746705710102
0.005667449194466555,0.7406661786237189
0.0056724869270838585,0.7406661786237189
0.0056724869270838585,0.7409407027818448
0.0056775246597011615,0.7409407027818448
0.0056775246597011615,0.7413067349926794
0.005687600124935769,0.7413067349926794
0.005687600124935769,0.741398243045388
0.005692637857553072,0.741398243045388
0.005692637857553072,0.7417642752562226
0.005712788788022287,0.7417642752562226
0.005712788788022287,0.7419472913616398
0.005722864253256894,0.7419472913616398
0.005722864253256894,0.7421303074670571
0.005727901985874198,0.7421303074670571
0.005727901985874198,0.7422218155197657
0.005732939718491501,0.7422218155197657
0.005732939718491501,0.742404831625183
0.005737977451108805,0.742404831625183
0.005737977451108805,0.7424963396778916
0.005743015183726109,0.7424963396778916
0.005743015183726109,0.7430453879941434
0.005748052916343412,0.7430453879941434
0.005748052916343412,0.7433199121522694
0.0057581283815780196,0.7433199121522694
0.0057581283815780196,0.743685944363104
0.005763166114195323,0.743685944363104
0.005763166114195323,0.7440519765739385
0.005788354777281841,0.7440519765739385
0.005788354777281841,0.7441434846266471
0.005793392509899144,0.7441434846266471
0.005793392509899144,0.7445095168374817
0.005798430242516448,0.7445095168374817
0.005798430242516448,0.7447840409956076
0.005818581172985663,0.7447840409956076
0.005818581172985663,0.7449670571010248
0.005823618905602966,0.7449670571010248
0.005823618905602966,0.7450585651537335
0.005843769836072181,0.7450585651537335
0.005843769836072181,0.7457906295754027
0.005879033964393306,0.7457906295754027
0.005879033964393306,0.7458821376281113
0.005884071697010609,0.7458821376281113
0.005884071697010609,0.7459736456808199
0.005894147162245217,0.7459736456808199
0.005894147162245217,0.7460651537335286
0.00589918489486252,0.7460651537335286
0.00589918489486252,0.7461566617862372
0.005904222627479824,0.7461566617862372
0.005904222627479824,0.7463396778916545
0.005919335825331735,0.7463396778916545
0.005919335825331735,0.7464311859443631
0.005924373557949039,0.7464311859443631
0.005924373557949039,0.7465226939970717
0.005934449023183646,0.7465226939970717
0.005934449023183646,0.746705710102489
0.005949562221035556,0.746705710102489
0.005949562221035556,0.7467972181551976
0.005959637686270163,0.7467972181551976
0.005959637686270163,0.7468887262079063
0.005964675418887467,0.7468887262079063
0.005964675418887467,0.7472547584187409
0.005974750884122074,0.7472547584187409
0.005974750884122074,0.7476207906295754
0.005979788616739378,0.7476207906295754
0.005979788616739378,0.7477122986822841
0.005984826349356681,0.7477122986822841
0.005984826349356681,0.7478953147877013
0.005989864081973985,0.7478953147877013
0.005989864081973985,0.74798682284041
0.006025128210295111,0.74798682284041
0.006025128210295111,0.7483528550512445
0.006030165942912414,0.7483528550512445
0.006030165942912414,0.7484443631039531
0.0060352036755297175,0.7484443631039531
0.0060352036755297175,0.7486273792093704
0.006040241408147021,0.7486273792093704
0.006040241408147021,0.748718887262079
0.006055354605998932,0.748718887262079
0.006055354605998932,0.7488103953147877
0.006060392338616235,0.7488103953147877
0.006060392338616235,0.7490849194729137
0.006065430071233539,0.7490849194729137
0.006065430071233539,0.7492679355783309
0.006075505536468146,0.7492679355783309
0.006075505536468146,0.7494509516837482
0.006085581001702754,0.7494509516837482
0.006085581001702754,0.7495424597364568
0.006095656466937361,0.7495424597364568
0.006095656466937361,0.7498169838945827
0.006100694199554665,0.7498169838945827
0.006100694199554665,0.7500915080527086
0.006120845130023879,0.7500915080527086
0.006120845130023879,0.7501830161054173
0.0061258828626411825,0.7501830161054173
0.0061258828626411825,0.7503660322108345
0.006130920595258486,0.7503660322108345
0.006130920595258486,0.7504575402635432
0.006140996060493093,0.7504575402635432
0.006140996060493093,0.7510065885797951
0.0061510715257277,0.7510065885797951
0.0061510715257277,0.7510980966325037
0.006156109258345004,0.7510980966325037
0.006156109258345004,0.751281112737921
0.006161146990962308,0.751281112737921
0.006161146990962308,0.7515556368960469
0.006171222456196915,0.7515556368960469
0.006171222456196915,0.7517386530014641
0.006176260188814219,0.7517386530014641
0.006176260188814219,0.7518301610541728
0.006181297921431522,0.7518301610541728
0.006181297921431522,0.7519216691068814
0.006186335654048826,0.7519216691068814
0.006186335654048826,0.75201317715959
0.006201448851900737,0.75201317715959
0.006201448851900737,0.7524707174231332
0.006221599782369951,0.7524707174231332
0.006221599782369951,0.7526537335285505
0.006226637514987254,0.7526537335285505
0.006226637514987254,0.7529282576866764
0.006251826178073772,0.7529282576866764
0.006251826178073772,0.7530197657393851
0.006256863910691076,0.7530197657393851
0.006256863910691076,0.7531112737920937
0.00626190164330838,0.7531112737920937
0.00626190164330838,0.7532027818448024
0.006271977108542987,0.7532027818448024
0.006271977108542987,0.7534773060029283
0.006277014841160291,0.7534773060029283
0.006277014841160291,0.7536603221083455
0.006282052573777594,0.7536603221083455
0.006282052573777594,0.7539348462664714
0.006287090306394898,0.7539348462664714
0.006287090306394898,0.7540263543191801
0.006292128039012202,0.7540263543191801
0.006292128039012202,0.7543923865300146
0.0063122789694814154,0.7543923865300146
0.0063122789694814154,0.7545754026354319
0.006317316702098719,0.7545754026354319
0.006317316702098719,0.7546669106881405
0.006322354434716023,0.7546669106881405
0.006322354434716023,0.7549414348462665
0.00633242989995063,0.7549414348462665
0.00633242989995063,0.7550329428989752
0.006337467632567934,0.7550329428989752
0.006337467632567934,0.7552159590043924
0.006347543097802541,0.7552159590043924
0.006347543097802541,0.7553074670571011
0.006372731760889059,0.7553074670571011
0.006372731760889059,0.7554904831625183
0.006377769493506363,0.7554904831625183
0.006377769493506363,0.755581991215227
0.0063828072261236666,0.755581991215227
0.0063828072261236666,0.7556734992679356
0.0063928826913582735,0.7556734992679356
0.0063928826913582735,0.7561310395314788
0.006413033621827488,0.7561310395314788
0.006413033621827488,0.7564055636896047
0.006423109087062095,0.7564055636896047
0.006423109087062095,0.7565885797950219
0.006448297750148613,0.7565885797950219
0.006448297750148613,0.7568631039531479
0.006453335482765917,0.7568631039531479
0.006453335482765917,0.7572291361639825
0.006458373215383221,0.7572291361639825
0.006458373215383221,0.7576866764275256
0.0064734864132351315,0.7576866764275256
0.0064734864132351315,0.7578696925329429
0.0064785241458524346,0.7578696925329429
0.0064785241458524346,0.7582357247437774
0.006508750541556256,0.7582357247437774
0.006508750541556256,0.7583272327964861
0.006523863739408167,0.7583272327964861
0.006523863739408167,0.7584187408491947
0.006544014669877382,0.7584187408491947
0.006544014669877382,0.7585102489019033
0.006549052402494685,0.7585102489019033
0.006549052402494685,0.758601756954612
0.006559127867729293,0.758601756954612
0.006559127867729293,0.7587847730600292
0.006564165600346596,0.7587847730600292
0.006564165600346596,0.758876281112738
0.0065692033329638995,0.758876281112738
0.0065692033329638995,0.7590592972181552
0.006574241065581203,0.7590592972181552
0.006574241065581203,0.7591508052708639
0.00658431653081581,0.7591508052708639
0.00658431653081581,0.7592423133235725
0.006589354263433114,0.7592423133235725
0.006589354263433114,0.7593338213762811
0.006594391996050417,0.7593338213762811
0.006594391996050417,0.759608345534407
0.006604467461285025,0.759608345534407
0.006604467461285025,0.7596998535871157
0.006609505193902328,0.7596998535871157
0.006609505193902328,0.7598828696925329
0.006614542926519632,0.7598828696925329
0.006614542926519632,0.7600658857979502
0.006649807054840758,0.7600658857979502
0.006649807054840758,0.7602489019033675
0.006664920252692668,0.7602489019033675
0.006664920252692668,0.760614934114202
0.006674995717927275,0.760614934114202
0.006674995717927275,0.7607979502196194
0.006680033450544579,0.7607979502196194
0.006680033450544579,0.7611639824304539
0.006690108915779186,0.7611639824304539
0.006690108915779186,0.7612554904831625
0.006700184381013793,0.7612554904831625
0.006700184381013793,0.7614385065885798
0.006705222113631097,0.7614385065885798
0.006705222113631097,0.7615300146412884
0.006710259846248401,0.7615300146412884
0.006710259846248401,0.7617130307467057
0.006725373044100312,0.7617130307467057
0.006725373044100312,0.761896046852123
0.006730410776717615,0.761896046852123
0.006730410776717615,0.7621705710102489
0.006745523974569526,0.7621705710102489
0.006745523974569526,0.7625366032210834
0.0067505617071868295,0.7625366032210834
0.0067505617071868295,0.762902635431918
0.006755599439804133,0.762902635431918
0.006755599439804133,0.7630856515373353
0.006760637172421436,0.7630856515373353
0.006760637172421436,0.7632686676427526
0.006785825835507954,0.7632686676427526
0.006785825835507954,0.7635431918008785
0.006790863568125258,0.7635431918008785
0.006790863568125258,0.7636346998535871
0.006800939033359865,0.7636346998535871
0.006800939033359865,0.7637262079062958
0.00682108996382908,0.7637262079062958
0.00682108996382908,0.7638177159590044
0.006826127696446384,0.7638177159590044
0.006826127696446384,0.763909224011713
0.006831165429063687,0.763909224011713
0.006831165429063687,0.7641837481698389
0.0068362031616809905,0.7641837481698389
0.0068362031616809905,0.7644582723279648
0.0068462786269155975,0.7644582723279648
0.0068462786269155975,0.7647327964860908
0.006851316359532901,0.7647327964860908
0.006851316359532901,0.7650073206442167
0.006886580487854027,0.7650073206442167
0.006886580487854027,0.7650988286969254
0.006896655953088634,0.7650988286969254
0.006896655953088634,0.7653733528550513
0.006901693685705938,0.7653733528550513
0.006901693685705938,0.7654648609077599
0.006906731418323241,0.7654648609077599
0.006906731418323241,0.7656478770131772
0.006911769150940545,0.7656478770131772
0.006911769150940545,0.7658308931185944
0.006916806883557849,0.7658308931185944
0.006916806883557849,0.7659224011713031
0.0069268823487924555,0.7659224011713031
0.0069268823487924555,0.7660139092240117
0.006941995546644366,0.7660139092240117
0.006941995546644366,0.7664714494875549
0.00694703327926167,0.7664714494875549
0.00694703327926167,0.7665629575402635
0.006952071011878973,0.7665629575402635
0.006952071011878973,0.7667459736456809
0.006957108744496277,0.7667459736456809
0.006957108744496277,0.7669289897510981
0.006967184209730884,0.7669289897510981
0.006967184209730884,0.7670204978038068
0.006997410605434706,0.7670204978038068
0.006997410605434706,0.767203513909224
0.00700244833805201,0.767203513909224
0.00700244833805201,0.7673865300146413
0.0070175615359039205,0.7673865300146413
0.0070175615359039205,0.7677525622254758
0.007037712466373135,0.7677525622254758
0.007037712466373135,0.7679355783308931
0.007047787931607742,0.7679355783308931
0.007047787931607742,0.7680270863836017
0.007062901129459653,0.7680270863836017
0.007062901129459653,0.768210102489019
0.00707297659469426,0.768210102489019
0.00707297659469426,0.7683016105417276
0.007088089792546171,0.7683016105417276
0.007088089792546171,0.7686676427525623
0.007093127525163475,0.7686676427525623
0.007093127525163475,0.7688506588579795
0.0071032029903980816,0.7688506588579795
0.0071032029903980816,0.7689421669106882
0.007133429386101903,0.7689421669106882
0.007133429386101903,0.7690336749633968
0.00714350485133651,0.7690336749633968
0.00714350485133651,0.7691251830161054
0.007153580316571118,0.7691251830161054
0.007153580316571118,0.7692166910688141
0.007163655781805725,0.7692166910688141
0.007163655781805725,0.7693081991215227
0.007168693514423029,0.7693081991215227
0.007168693514423029,0.76949121522694
0.007178768979657636,0.76949121522694
0.007178768979657636,0.7695827232796486
0.0072039576427441535,0.7695827232796486
0.0072039576427441535,0.7697657393850659
0.007208995375361457,0.7697657393850659
0.007208995375361457,0.7699487554904831
0.007219070840596064,0.7699487554904831
0.007219070840596064,0.7703147877013177
0.007224108573213368,0.7703147877013177
0.007229146305830672,0.7704062957540263
0.007239221771065279,0.7704062957540263
0.007239221771065279,0.7704978038067349
0.007244259503682583,0.7704978038067349
0.007244259503682583,0.770772327964861
0.00725433496891719,0.770772327964861
0.00725433496891719,0.7709553440702782
0.007259372701534494,0.7709553440702782
0.007259372701534494,0.7711383601756955
0.007269448166769101,0.7711383601756955
0.007269448166769101,0.7712298682284041
0.0072845613646210115,0.7712298682284041
0.0072845613646210115,0.7714128843338214
0.007299674562472922,0.7714128843338214
0.007299674562472922,0.77150439238653
0.007304712295090226,0.77150439238653
0.007304712295090226,0.7715959004392386
0.007309750027707529,0.7715959004392386
0.007309750027707529,0.7716874084919473
0.007319825492942136,0.7716874084919473
0.007319825492942136,0.7718704245973645
0.007329900958176744,0.7718704245973645
0.007329900958176744,0.7719619326500732
0.007345014156028655,0.7719619326500732
0.007345014156028655,0.7720534407027818
0.007365165086497869,0.7720534407027818
0.007365165086497869,0.7722364568081991
0.007370202819115173,0.7722364568081991
0.007370202819115173,0.7723279648609077
0.007385316016967083,0.7723279648609077
0.007385316016967083,0.7724194729136163
0.00739539148220169,0.7724194729136163
0.00739539148220169,0.7725109809663251
0.007415542412670905,0.7725109809663251
0.007415542412670905,0.7726939970717424
0.007420580145288209,0.7726939970717424
0.007420580145288209,0.772785505124451
0.007425617877905512,0.772785505124451
0.007425617877905512,0.7728770131771596
0.007430655610522816,0.7728770131771596
0.007430655610522816,0.7729685212298683
0.00743569334314012,0.7729685212298683
0.00743569334314012,0.7731515373352855
0.007440731075757423,0.7731515373352855
0.007440731075757423,0.7733345534407028
0.0074608820062266375,0.7733345534407028
0.0074608820062266375,0.7734260614934114
0.0074659197388439414,0.7734260614934114
0.0074659197388439414,0.7737005856515373
0.0074709574714612445,0.7737005856515373
0.0074709574714612445,0.7738836017569546
0.007481032936695852,0.7738836017569546
0.007481032936695852,0.7739751098096632
0.007486070669313155,0.7739751098096632
0.007486070669313155,0.7740666178623719
0.007491108401930459,0.7740666178623719
0.007491108401930459,0.7741581259150805
0.007496146134547763,0.7741581259150805
0.007496146134547763,0.7743411420204978
0.007501183867165066,0.7743411420204978
0.007501183867165066,0.7745241581259151
0.007516297065016977,0.7745241581259151
0.007516297065016977,0.7748901903367497
0.007521334797634281,0.7748901903367497
0.007521334797634281,0.7749816983894583
0.007526372530251585,0.7749816983894583
0.007526372530251585,0.7751647144948756
0.007546523460720799,0.7751647144948756
0.007546523460720799,0.7753477306002928
0.0075515611933381025,0.7753477306002928
0.0075515611933381025,0.7754392386530015
0.007571712123807317,0.7754392386530015
0.007571712123807317,0.7756222547584187
0.00757674985642462,0.7756222547584187
0.00757674985642462,0.7757137628111274
0.007586825321659227,0.7757137628111274
0.007586825321659227,0.775805270863836
0.007601938519511138,0.775805270863836
0.007601938519511138,0.7759882869692533
0.007606976252128442,0.7759882869692533
0.007606976252128442,0.7761713030746705
0.007622089449980353,0.7761713030746705
0.007622089449980353,0.7763543191800878
0.00763216491521496,0.7763543191800878
0.00763216491521496,0.7766288433382138
0.007637202647832264,0.7766288433382138
0.007637202647832264,0.7768118594436311
0.0076422403804495675,0.7768118594436311
0.0076422403804495675,0.7769948755490483
0.007657353578301478,0.7769948755490483
0.007657353578301478,0.777086383601757
0.007672466776153389,0.777086383601757
0.007672466776153389,0.7772693997071742
0.007682542241387996,0.7772693997071742
0.007682542241387996,0.7773609077598829
0.0076875799740053,0.7773609077598829
0.0076875799740053,0.7777269399707174
0.007692617706622603,0.7777269399707174
0.007692617706622603,0.7780014641288433
0.007697655439239907,0.7780014641288433
0.007697655439239907,0.7781844802342606
0.007707730904474514,0.7781844802342606
0.007707730904474514,0.7782759882869692
0.007717806369709122,0.7782759882869692
0.007717806369709122,0.7783674963396779
0.007722844102326425,0.7783674963396779
0.007722844102326425,0.7784590043923866
0.007742995032795639,0.7784590043923866
0.007742995032795639,0.7785505124450952
0.007763145963264854,0.7785505124450952
0.007763145963264854,0.7787335285505125
0.007773221428499461,0.7787335285505125
0.007773221428499461,0.7788250366032211
0.007783296893734068,0.7788250366032211
0.007783296893734068,0.7789165446559297
0.007788334626351372,0.7789165446559297
0.007788334626351372,0.7790080527086384
0.007808485556820587,0.7790080527086384
0.007808485556820587,0.7791910688140556
0.00781352328943789,0.7791910688140556
0.00781352328943789,0.7792825768667643
0.007818561022055193,0.7792825768667643
0.007818561022055193,0.7795571010248902
0.007853825150376319,0.7795571010248902
0.007853825150376319,0.7796486090775988
0.007858862882993622,0.7796486090775988
0.007858862882993622,0.7797401171303074
0.007863900615610925,0.7797401171303074
0.007863900615610925,0.7799231332357247
0.00788405154608014,0.7799231332357247
0.00788405154608014,0.7800146412884333
0.007919315674401265,0.7800146412884333
0.007919315674401265,0.780106149341142
0.00795457980272239,0.780106149341142
0.00795457980272239,0.7801976573938506
0.007969693000574301,0.7801976573938506
0.007974730733191606,0.7802891654465594
0.007974730733191606,0.7806551976573939
0.007979768465808909,0.7806551976573939
0.007979768465808909,0.7808382137628112
0.007984806198426212,0.7808382137628112
0.007984806198426212,0.7810212298682284
0.007989843931043517,0.7810212298682284
0.007989843931043517,0.7812042459736457
0.00800999486151273,0.7812042459736457
0.00800999486151273,0.781387262079063
0.008025108059364641,0.781387262079063
0.008025108059364641,0.7814787701317716
0.008040221257216552,0.7814787701317716
0.008040221257216552,0.7817532942898975
0.00805029672245116,0.7817532942898975
0.00805029672245116,0.7818448023426061
0.008055334455068463,0.7818448023426061
0.008055334455068463,0.7820278184480234
0.008095636316006892,0.7820278184480234
0.008095636316006892,0.782119326500732
0.008110749513858803,0.782119326500732
0.008110749513858803,0.7823023426061494
0.008115787246476106,0.7823023426061494
0.008115787246476106,0.7824853587115667
0.00813593817694532,0.7824853587115667
0.00813593817694532,0.7825768667642753
0.008140975909562625,0.7825768667642753
0.008140975909562625,0.7826683748169839
0.008161126840031839,0.7826683748169839
0.008161126840031839,0.7827598828696926
0.008166164572649142,0.7827598828696926
0.008166164572649142,0.7828513909224012
0.008181277770501053,0.7828513909224012
0.008181277770501053,0.7829428989751098
0.008186315503118357,0.7829428989751098
0.008186315503118357,0.7830344070278185
0.008206466433587571,0.7830344070278185
0.008206466433587571,0.783400439238653
0.008216541898822179,0.783400439238653
0.008216541898822179,0.7835834553440703
0.008221579631439482,0.7835834553440703
0.008221579631439482,0.7837664714494875
0.008241730561908696,0.7837664714494875
0.008241730561908696,0.7842240117130308
0.008246768294525999,0.7842240117130308
0.008246768294525999,0.7843155197657394
0.00826188149237791,0.7843155197657394
0.00826188149237791,0.7844070278184481
0.008266919224995214,0.7844070278184481
0.008266919224995214,0.7845900439238653
0.008287070155464428,0.7845900439238653
0.008287070155464428,0.7847730600292826
0.008307221085933642,0.7847730600292826
0.008307221085933642,0.7848645680819912
0.00831729655116825,0.7848645680819912
0.00831729655116825,0.7850475841874085
0.008322334283785553,0.7850475841874085
0.008322334283785553,0.7851390922401171
0.008327372016402858,0.7851390922401171
0.008327372016402858,0.7853221083455344
0.00833240974902016,0.7853221083455344
0.00833240974902016,0.7855051244509517
0.008342485214254769,0.7855051244509517
0.008342485214254769,0.7855966325036603
0.008352560679489375,0.7855966325036603
0.008352560679489375,0.7856881405563689
0.00835759841210668,0.7856881405563689
0.00835759841210668,0.7857796486090776
0.008407975738279715,0.7857796486090776
0.008407975738279715,0.7858711566617862
0.008413013470897018,0.7858711566617862
0.008413013470897018,0.7859626647144948
0.008423088936131626,0.7859626647144948
0.008423088936131626,0.7861456808199122
0.008433164401366234,0.7861456808199122
0.008433164401366234,0.7863286969253295
0.008438202133983537,0.7863286969253295
0.008438202133983537,0.7864202049780381
0.008448277599218144,0.7864202049780381
0.008448277599218144,0.7866032210834554
0.00845835306445275,0.7866032210834554
0.00845835306445275,0.7869692532942899
0.008463390797070055,0.7869692532942899
0.008463390797070055,0.7873352855051244
0.008473466262304661,0.7873352855051244
0.008473466262304661,0.7874267935578331
0.00849865492539118,0.7874267935578331
0.00849865492539118,0.7876098096632503
0.00851376812324309,0.7876098096632503
0.00851376812324309,0.787701317715959
0.008518805855860394,0.787701317715959
0.008518805855860394,0.7877928257686676
0.008523843588477699,0.7877928257686676
0.008523843588477699,0.7880673499267935
0.00853895678632961,0.7880673499267935
0.00853895678632961,0.7881588579795022
0.008549032251564215,0.7881588579795022
0.008549032251564215,0.7884333821376281
0.00855406998418152,0.7884333821376281
0.00855406998418152,0.7885248901903368
0.008559107716798823,0.7885248901903368
0.008559107716798823,0.7886163982430454
0.008564145449416126,0.7886163982430454
0.008564145449416126,0.788707906295754
0.008614522775589164,0.788707906295754
0.008614522775589164,0.7887994143484627
0.008629635973441074,0.7887994143484627
0.008629635973441074,0.7888909224011713
0.008649786903910288,0.7888909224011713
0.008649786903910288,0.78898243045388
0.008654824636527591,0.78898243045388
0.008654824636527591,0.7890739385065886
0.008659862369144896,0.7890739385065886
0.008659862369144896,0.7891654465592972
0.008664900101762199,0.7891654465592972
0.008664900101762199,0.7892569546120058
0.008685051032231413,0.7892569546120058
0.008685051032231413,0.7894399707174231
0.008690088764848718,0.7894399707174231
0.008690088764848718,0.789714494875549
0.008700164230083324,0.789714494875549
0.008700164230083324,0.7898060029282576
0.008705201962700629,0.7898060029282576
0.008705201962700629,0.7902635431918009
0.008710239695317932,0.7902635431918009
0.008710239695317932,0.7904465592972182
0.008715277427935235,0.7904465592972182
0.008715277427935235,0.79099560761347
0.008750541556256361,0.79099560761347
0.008750541556256361,0.7911786237188873
0.008755579288873664,0.7911786237188873
0.008755579288873664,0.7912701317715959
0.008785805684577486,0.7912701317715959
0.008785805684577486,0.7913616398243045
0.008790843417194789,0.7913616398243045
0.008790843417194789,0.7914531478770132
0.008795881149812092,0.7914531478770132
0.008795881149812092,0.791727672035139
0.008800918882429397,0.791727672035139
0.008800918882429397,0.7918191800878477
0.0088059566150467,0.7918191800878477
0.0088059566150467,0.7920937042459737
0.008816032080281307,0.7920937042459737
0.008816032080281307,0.7921852122986823
0.008846258475985129,0.7921852122986823
0.008846258475985129,0.792276720351391
0.008851296208602432,0.792276720351391
0.008851296208602432,0.7923682284040996
0.008856333941219735,0.7923682284040996
0.008856333941219735,0.7924597364568082
0.00886137167383704,0.7924597364568082
0.00886137167383704,0.7925512445095169
0.008891598069540861,0.7925512445095169
0.008891598069540861,0.7926427525622255
0.008896635802158165,0.7926427525622255
0.008896635802158165,0.7927342606149341
0.008901673534775468,0.7927342606149341
0.008901673534775468,0.7928257686676428
0.008916786732627378,0.7928257686676428
0.008916786732627378,0.7929172767203514
0.008921824465244683,0.7929172767203514
0.008921824465244683,0.7931918008784773
0.00893189993047929,0.7931918008784773
0.00893189993047929,0.7933748169838946
0.0089470131283312,0.7933748169838946
0.0089470131283312,0.7937408491947291
0.008957088593565808,0.7937408491947291
0.008957088593565808,0.7938323572474377
0.00896212632618311,0.7938323572474377
0.00896212632618311,0.7939238653001464
0.008967164058800416,0.7939238653001464
0.008967164058800416,0.7940153733528551
0.00898731498926963,0.7940153733528551
0.00898731498926963,0.7941068814055637
0.008992352721886933,0.7941068814055637
0.008992352721886933,0.7941983894582724
0.009027616850208059,0.7941983894582724
0.009027616850208059,0.794289897510981
0.009032654582825362,0.794289897510981
0.009032654582825362,0.7943814055636896
0.00904273004805997,0.7943814055636896
0.00904273004805997,0.7946559297218155
0.009062880978529184,0.7946559297218155
0.009062880978529184,0.7947474377745242
0.009067918711146487,0.7947474377745242
0.009067918711146487,0.7948389458272328
0.009077994176381094,0.7948389458272328
0.009077994176381094,0.7949304538799414
0.009083031908998397,0.7949304538799414
0.009083031908998397,0.7950219619326501
0.009088069641615702,0.7950219619326501
0.009088069641615702,0.795296486090776
0.009098145106850308,0.795296486090776
0.009098145106850308,0.7953879941434846
0.009108220572084916,0.7953879941434846
0.009108220572084916,0.7954795021961932
0.009118296037319524,0.7954795021961932
0.009118296037319524,0.7957540263543191
0.009133409235171435,0.7957540263543191
0.009133409235171435,0.7958455344070278
0.009138446967788738,0.7958455344070278
0.009138446967788738,0.7962115666178624
0.00914348470040604,0.7962115666178624
0.00914348470040604,0.796303074670571
0.009148522433023346,0.796303074670571
0.009148522433023346,0.7963945827232797
0.009153560165640649,0.7963945827232797
0.009153560165640649,0.7964860907759883
0.009158597898257952,0.7964860907759883
0.009158597898257952,0.7965775988286969
0.009163635630875256,0.7965775988286969
0.009163635630875256,0.7966691068814056
0.009173711096109862,0.7966691068814056
0.009173711096109862,0.7970351390922401
0.009178748828727167,0.7970351390922401
0.009178748828727167,0.7971266471449487
0.00918378656134447,0.7971266471449487
0.00918378656134447,0.797309663250366
0.009188824293961773,0.797309663250366
0.009188824293961773,0.7974926793557833
0.009249277085369417,0.7974926793557833
0.009249277085369417,0.7975841874084919
0.009254314817986721,0.7975841874084919
0.009254314817986721,0.7976756954612005
0.009259352550604024,0.7976756954612005
0.009259352550604024,0.7977672035139092
0.009274465748455935,0.7977672035139092
0.009274465748455935,0.7978587115666179
0.009279503481073238,0.7978587115666179
0.009279503481073238,0.7979502196193266
0.009284541213690543,0.7979502196193266
0.009284541213690543,0.7980417276720352
0.009294616678925149,0.7980417276720352
0.009294616678925149,0.7981332357247438
0.009304692144159757,0.7981332357247438
0.009304692144159757,0.7984992679355783
0.009314767609394363,0.7984992679355783
0.009314767609394363,0.7987737920937042
0.009334918539863579,0.7987737920937042
0.009334918539863579,0.7988653001464129
0.009339956272480882,0.7988653001464129
0.009339956272480882,0.7989568081991215
0.00935003173771549,0.7989568081991215
0.00935003173771549,0.7990483162518301
0.009360107202950095,0.7990483162518301
0.009360107202950095,0.7991398243045388
0.0093651449355674,0.7991398243045388
0.0093651449355674,0.7994143484626647
0.009380258133419311,0.7994143484626647
0.009380258133419311,0.7995058565153733
0.009420559994357739,0.7995058565153733
0.009420559994357739,0.799597364568082
0.00943567319220965,0.799597364568082
0.00943567319220965,0.7996888726207906
0.009445748657444257,0.7996888726207906
0.009445748657444257,0.7999633967789166
0.00949108825099999,0.7999633967789166
0.00949108825099999,0.8000549048316252
0.009501163716234598,0.8000549048316252
0.009501163716234598,0.8001464128843339
0.0095062014488519,0.8001464128843339
0.0095062014488519,0.8002379209370425
0.009511239181469204,0.8002379209370425
0.009511239181469204,0.8003294289897511
0.009516276914086508,0.8003294289897511
0.009516276914086508,0.8004209370424598
0.009526352379321115,0.8004209370424598
0.009526352379321115,0.800603953147877
0.00954650330979033,0.800603953147877
0.00954650330979033,0.8007869692532943
0.009551541042407633,0.8007869692532943
0.009551541042407633,0.8008784773060029
0.009561616507642241,0.8008784773060029
0.009561616507642241,0.8009699853587116
0.009576729705494152,0.8009699853587116
0.009576729705494152,0.8011530014641288
0.009581767438111455,0.8011530014641288
0.009581767438111455,0.8012445095168375
0.009591842903346063,0.8012445095168375
0.009591842903346063,0.8014275256222547
0.009611993833815276,0.8014275256222547
0.009611993833815276,0.8015190336749634
0.00963214476428449,0.8015190336749634
0.00963214476428449,0.801610541727672
0.009647257962136401,0.801610541727672
0.009647257962136401,0.8017020497803806
0.009652295694753706,0.8017020497803806
0.009652295694753706,0.8020680819912153
0.009657333427371009,0.8020680819912153
0.009657333427371009,0.8021595900439239
0.00967244662522292,0.8021595900439239
0.00967244662522292,0.8022510980966325
0.009682522090457528,0.8022510980966325
0.009682522090457528,0.8023426061493412
0.00968755982307483,0.8023426061493412
0.00968755982307483,0.8024341142020498
0.009722823951395955,0.8024341142020498
0.009722823951395955,0.8026171303074671
0.00972786168401326,0.8026171303074671
0.00972786168401326,0.8027086383601757
0.009737937149247866,0.8027086383601757
0.009737937149247866,0.8028001464128843
0.009753050347099777,0.8028001464128843
0.009753050347099777,0.802891654465593
0.009758088079717082,0.802891654465593
0.009758088079717082,0.8029831625183016
0.009783276742803599,0.8029831625183016
0.009783276742803599,0.8031661786237189
0.009793352208038206,0.8031661786237189
0.009793352208038206,0.8032576866764275
0.009818540871124725,0.8032576866764275
0.009818540871124725,0.8035322108345534
0.009828616336359331,0.8035322108345534
0.009828616336359331,0.803623718887262
0.009843729534211242,0.803623718887262
0.009843729534211242,0.8037152269399708
0.009878993662532367,0.8037152269399708
0.009878993662532367,0.8038067349926794
0.009884031395149671,0.8038067349926794
0.009884031395149671,0.803898243045388
0.009894106860384277,0.803898243045388
0.009894106860384277,0.8042642752562226
0.009929370988705404,0.8042642752562226
0.009929370988705404,0.8045387994143485
0.009964635117026529,0.8045387994143485
0.009964635117026529,0.8048133235724744
0.009969672849643832,0.8048133235724744
0.009969672849643832,0.8049963396778916
0.009974710582261136,0.8049963396778916
0.009974710582261136,0.8051793557833089
0.009989823780113047,0.8051793557833089
0.009989823780113047,0.8053623718887262
0.009999899245347653,0.8053623718887262
0.009999899245347653,0.8055453879941434
0.010020050175816869,0.8055453879941434
0.010020050175816869,0.8057284040995608
0.010025087908434172,0.8057284040995608
0.010025087908434172,0.8060029282576867
0.010030125641051475,0.8060029282576867
0.010030125641051475,0.8060944363103953
0.01003516337366878,0.8060944363103953
0.01003516337366878,0.806185944363104
0.010045238838903386,0.806185944363104
0.010045238838903386,0.8062774524158126
0.010055314304137994,0.8062774524158126
0.010055314304137994,0.8063689604685212
0.010070427501989904,0.8063689604685212
0.010070427501989904,0.8065519765739385
0.010075465234607207,0.8065519765739385
0.010075465234607207,0.8066434846266471
0.010090578432459118,0.8066434846266471
0.010090578432459118,0.8067349926793558
0.010110729362928334,0.8067349926793558
0.010110729362928334,0.8070095168374817
0.010115767095545637,0.8070095168374817
0.010115767095545637,0.8071925329428989
0.010125842560780245,0.8071925329428989
0.010125842560780245,0.8075585651537335
0.010130880293397548,0.8075585651537335
0.010130880293397548,0.8077415812591509
0.01013591802601485,0.8077415812591509
0.01013591802601485,0.8078330893118595
0.010140955758632155,0.8078330893118595
0.010140955758632155,0.8079245973645681
0.010181257619570583,0.8079245973645681
0.010181257619570583,0.8080161054172768
0.010201408550039799,0.8080161054172768
0.010201408550039799,0.808199121522694
0.010211484015274405,0.808199121522694
0.010211484015274405,0.8083821376281113
0.01021652174789171,0.8083821376281113
0.01021652174789171,0.8084736456808199
0.010226597213126316,0.8084736456808199
0.010226597213126316,0.8086566617862372
0.01023163494574362,0.8086566617862372
0.01023163494574362,0.8087481698389458
0.010241710410978227,0.8087481698389458
0.010241710410978227,0.8088396778916545
0.010256823608830137,0.8088396778916545
0.010256823608830137,0.8089311859443631
0.010266899074064745,0.8089311859443631
0.010266899074064745,0.8091142020497804
0.010276974539299353,0.8091142020497804
0.010276974539299353,0.8092972181551976
0.010292087737151264,0.8092972181551976
0.010292087737151264,0.8095717423133236
0.01030216320238587,0.8095717423133236
0.01030216320238587,0.8096632503660323
0.010322314132855085,0.8096632503660323
0.010322314132855085,0.8097547584187409
0.010327351865472388,0.8097547584187409
0.010327351865472388,0.8099377745241582
0.01035757826117621,0.8099377745241582
0.01035757826117621,0.8100292825768668
0.010362615993793513,0.8100292825768668
0.010362615993793513,0.8101207906295754
0.010382766924262727,0.8101207906295754
0.010382766924262727,0.8102122986822841
0.010387804656880032,0.8102122986822841
0.010387804656880032,0.8103038067349927
0.010402917854731943,0.8103038067349927
0.010402917854731943,0.81048682284041
0.010423068785201156,0.81048682284041
0.010423068785201156,0.8105783308931186
0.01044321971567037,0.8105783308931186
0.01044321971567037,0.8106698389458272
0.010448257448287675,0.8106698389458272
0.010448257448287675,0.8107613469985359
0.010463370646139586,0.8107613469985359
0.010463370646139586,0.8110358711566618
0.010488559309226103,0.8110358711566618
0.010488559309226103,0.811218887262079
0.010493597041843408,0.811218887262079
0.010493597041843408,0.8113103953147877
0.01049863477446071,0.8113103953147877
0.01049863477446071,0.8114019033674963
0.010503672507078014,0.8114019033674963
0.010503672507078014,0.8114934114202049
0.01052382343754723,0.8114934114202049
0.01052382343754723,0.8117679355783309
0.010533898902781835,0.8117679355783309
0.010533898902781835,0.8119509516837482
0.01053893663539914,0.8119509516837482
0.01053893663539914,0.8120424597364568
0.010574200763720265,0.8120424597364568
0.010574200763720265,0.8121339677891655
0.010599389426806783,0.8121339677891655
0.010599389426806783,0.8125
0.010604427159424086,0.8125
0.010604427159424086,0.8125915080527086
0.010614502624658694,0.8125915080527086
0.010614502624658694,0.8127745241581259
0.010619540357275997,0.8127745241581259
0.010619540357275997,0.8128660322108345
0.0106245780898933,0.8128660322108345
0.0106245780898933,0.8129575402635432
0.010629615822510605,0.8129575402635432
0.010629615822510605,0.8132320644216691
0.010639691287745211,0.8132320644216691
0.010639691287745211,0.8133235724743777
0.010654804485597122,0.8133235724743777
0.010654804485597122,0.8134150805270863
0.010659842218214427,0.8134150805270863
0.010659842218214427,0.8135980966325037
0.01066487995083173,0.8135980966325037
0.01066487995083173,0.8136896046852123
0.010669917683449033,0.8136896046852123
0.010669917683449033,0.813781112737921
0.010690068613918248,0.813781112737921
0.010690068613918248,0.8140556368960469
0.01070518181177016,0.8140556368960469
0.01070518181177016,0.8142386530014641
0.01072029500962207,0.8142386530014641
0.01072029500962207,0.8143301610541728
0.010725332742239373,0.8143301610541728
0.010725332742239373,0.81451317715959
0.010730370474856676,0.81451317715959
0.010730370474856676,0.8146046852122987
0.010745483672708587,0.8146046852122987
0.010745483672708587,0.8146961932650073
0.010755559137943195,0.8146961932650073
0.010755559137943195,0.8148792093704246
0.010765634603177802,0.8148792093704246
0.010765634603177802,0.8149707174231332
0.010785785533647016,0.8149707174231332
0.010785785533647016,0.8150622254758418
0.010800898731498927,0.8150622254758418
0.010800898731498927,0.8151537335285505
0.010810974196733535,0.8151537335285505
0.010810974196733535,0.8152452415812591
0.010826087394585446,0.8152452415812591
0.010826087394585446,0.8153367496339677
0.010831125127202749,0.8153367496339677
0.010831125127202749,0.8154282576866764
0.010836162859820052,0.8154282576866764
0.010836162859820052,0.8157027818448024
0.010841200592437357,0.8157027818448024
0.010841200592437357,0.815794289897511
0.010851276057671963,0.815794289897511
0.010851276057671963,0.8158857979502196
0.010866389255523873,0.8158857979502196
0.010866389255523873,0.8160688140556369
0.010871426988141178,0.8160688140556369
0.010871426988141178,0.8161603221083455
0.010876464720758481,0.8161603221083455
0.010876464720758481,0.8162518301610542
0.010896615651227695,0.8162518301610542
0.010896615651227695,0.8163433382137628
0.010911728849079606,0.8163433382137628
0.010911728849079606,0.8165263543191801
0.010916766581696909,0.8165263543191801
0.010916766581696909,0.8167093704245973
0.010936917512166125,0.8167093704245973
0.010936917512166125,0.816800878477306
0.010982257105721857,0.816800878477306
0.010982257105721857,0.8168923865300146
0.01098729483833916,0.8168923865300146
0.01098729483833916,0.8170754026354319
0.010997370303573768,0.8170754026354319
0.010997370303573768,0.8171669106881405
0.011007445768808374,0.8171669106881405
0.011007445768808374,0.8172584187408491
0.011022558966660285,0.8172584187408491
0.011022558966660285,0.8173499267935578
0.01102759669927759,0.8173499267935578
0.01102759669927759,0.8175329428989752
0.011062860827598714,0.8175329428989752
0.011062860827598714,0.8176244509516838
0.011072936292833322,0.8176244509516838
0.011072936292833322,0.8177159590043924
0.011083011758067928,0.8177159590043924
0.011083011758067928,0.8179904831625183
0.011123313619006358,0.8179904831625183
0.011123313619006358,0.818081991215227
0.011143464549475571,0.818081991215227
0.011143464549475571,0.8181734992679356
0.011148502282092876,0.8181734992679356
0.011148502282092876,0.8183565153733529
0.011173690945179393,0.8183565153733529
0.011173690945179393,0.8184480234260615
0.011178728677796698,0.8184480234260615
0.011178728677796698,0.818814055636896
0.011183766410414001,0.818814055636896
0.011183766410414001,0.8189055636896047
0.011193841875648609,0.8189055636896047
0.011193841875648609,0.8189970717423133
0.011203917340883215,0.8189970717423133
0.011203917340883215,0.8190885797950219
0.01120895507350052,0.8190885797950219
0.01120895507350052,0.8192715959004392
0.01122406827135243,0.8192715959004392
0.01122406827135243,0.8193631039531479
0.011229106003969733,0.8193631039531479
0.011229106003969733,0.8195461200585652
0.011239181469204341,0.8195461200585652
0.011239181469204341,0.8196376281112738
0.011249256934438947,0.8196376281112738
0.011249256934438947,0.8199121522693997
0.011274445597525466,0.8199121522693997
0.011274445597525466,0.820095168374817
0.01129459652799468,0.820095168374817
0.01129459652799468,0.8201866764275256
0.011299634260611984,0.8201866764275256
0.011299634260611984,0.8202781844802343
0.01130970972584659,0.8202781844802343
0.01130970972584659,0.8203696925329429
0.011314747458463895,0.8203696925329429
0.011314747458463895,0.8205527086383602
0.011319785191081198,0.8205527086383602
0.011324822923698501,0.8206442166910688
0.01135001158678502,0.8206442166910688
0.01135001158678502,0.8208272327964861
0.011355049319402323,0.8208272327964861
0.011355049319402323,0.8209187408491947
0.011410464378192663,0.8209187408491947
0.011410464378192663,0.821101756954612
0.011415502110809966,0.821101756954612
0.011415502110809966,0.8211932650073206
0.011420539843427271,0.8211932650073206
0.011420539843427271,0.8216508052708639
0.011425577576044574,0.8216508052708639
0.011425577576044574,0.8217423133235725
0.01143565304127918,0.8217423133235725
0.01143565304127918,0.8218338213762811
0.011445728506513788,0.8218338213762811
0.011445728506513788,0.8219253294289898
0.011450766239131091,0.8219253294289898
0.011450766239131091,0.822108345534407
0.011455803971748396,0.822108345534407
0.011455803971748396,0.8221998535871157
0.011465879436983002,0.8221998535871157
0.011465879436983002,0.8224743777452416
0.01147595490221761,0.8224743777452416
0.01147595490221761,0.8227489019033675
0.011480992634834913,0.8227489019033675
0.011480992634834913,0.8228404099560761
0.01149106810006952,0.8228404099560761
0.01149106810006952,0.8229319180087847
0.011511219030538734,0.8229319180087847
0.011511219030538734,0.823114934114202
0.011521294495773342,0.823114934114202
0.011521294495773342,0.8232979502196194
0.011526332228390645,0.8232979502196194
0.011526332228390645,0.823389458272328
0.01153136996100795,0.823389458272328
0.01153136996100795,0.8234809663250366
0.011536407693625253,0.8234809663250366
0.011536407693625253,0.8238469985358712
0.01154648315885986,0.8238469985358712
0.01154648315885986,0.8239385065885798
0.011551520891477164,0.8239385065885798
0.011551520891477164,0.8240300146412884
0.011556558624094467,0.8240300146412884
0.011556558624094467,0.8242130307467057
0.011596860485032896,0.8242130307467057
0.011596860485032896,0.8243045387994143
0.011606935950267504,0.8243045387994143
0.011606935950267504,0.824396046852123
0.01161701141550211,0.824396046852123
0.01161701141550211,0.8244875549048316
0.011622049148119415,0.8244875549048316
0.011622049148119415,0.8245790629575402
0.011627086880736718,0.8245790629575402
0.011627086880736718,0.8246705710102489
0.011637162345971326,0.8246705710102489
0.011637162345971326,0.8248535871156661
0.011677464206909753,0.8248535871156661
0.011677464206909753,0.8250366032210834
0.011717766067848183,0.8250366032210834
0.011717766067848183,0.825128111273792
0.011722803800465486,0.825128111273792
0.011722803800465486,0.8253111273792094
0.01172784153308279,0.8253111273792094
0.01172784153308279,0.8254941434846267
0.011747992463552005,0.8254941434846267
0.011747992463552005,0.8258601756954612
0.01179836978972504,0.8258601756954612
0.01179836978972504,0.8260431918008785
0.011823558452811559,0.8260431918008785
0.011823558452811559,0.8261346998535871
0.011833633918046167,0.8261346998535871
0.011833633918046167,0.8265007320644217
0.01183867165066347,0.8265007320644217
0.01183867165066347,0.8265922401171303
0.011843709383280773,0.8265922401171303
0.011843709383280773,0.8266837481698389
0.01185378484851538,0.8266837481698389
0.01185378484851538,0.8268667642752562
0.011863860313749988,0.8268667642752562
0.011863860313749988,0.8269582723279648
0.011889048976836505,0.8269582723279648
0.011889048976836505,0.8270497803806734
0.011899124442071113,0.8270497803806734
0.011899124442071113,0.8271412884333821
0.011939426303009542,0.8271412884333821
0.011939426303009542,0.8272327964860908
0.011959577233478756,0.8272327964860908
0.011959577233478756,0.8273243045387995
0.011984765896565273,0.8273243045387995
0.011984765896565273,0.8274158125915081
0.011989803629182578,0.8274158125915081
0.011989803629182578,0.8275073206442167
0.012030105490121006,0.8275073206442167
0.012030105490121006,0.8275988286969254
0.012040180955355613,0.8275988286969254
0.012040180955355613,0.827690336749634
0.012045218687972916,0.827690336749634
0.012045218687972916,0.8277818448023426
0.012050256420590221,0.8277818448023426
0.012050256420590221,0.8278733528550513
0.012070407351059435,0.8278733528550513
0.012070407351059435,0.8280563689604685
0.012075445083676738,0.8280563689604685
0.012075445083676738,0.8281478770131772
0.01212078467723247,0.8281478770131772
0.01212078467723247,0.8282393850658858
0.012135897875084381,0.8282393850658858
0.012135897875084381,0.8283308931185944
0.012140935607701686,0.8283308931185944
0.012140935607701686,0.8284224011713031
0.012166124270788203,0.8284224011713031
0.012166124270788203,0.8285139092240117
0.01217619973602281,0.8285139092240117
0.01217619973602281,0.828696925329429
0.01220138839910933,0.828696925329429
0.01220138839910933,0.8288799414348462
0.012206426131726632,0.8288799414348462
0.012206426131726632,0.8289714494875549
0.012231614794813151,0.8289714494875549
0.012231614794813151,0.8290629575402635
0.012236652527430454,0.8290629575402635
0.012236652527430454,0.8292459736456809
0.012276954388368884,0.8292459736456809
0.012276954388368884,0.8293374816983895
0.012312218516690008,0.8293374816983895
0.012312218516690008,0.8294289897510981
0.012317256249307311,0.8294289897510981
0.012317256249307311,0.8295204978038068
0.012322293981924616,0.8295204978038068
0.012322293981924616,0.8296120058565154
0.012327331714541919,0.8296120058565154
0.012327331714541919,0.8297950219619327
0.01234244491239383,0.8297950219619327
0.01234244491239383,0.8301610541727672
0.012352520377628438,0.8301610541727672
0.012352520377628438,0.8302525622254758
0.01235755811024574,0.8302525622254758
0.01235755811024574,0.8303440702781845
0.012377709040714955,0.8303440702781845
0.012377709040714955,0.8304355783308931
0.01238274677333226,0.8304355783308931
0.01238274677333226,0.8305270863836017
0.012407935436418776,0.8305270863836017
0.012407935436418776,0.8306185944363104
0.012423048634270687,0.8306185944363104
0.012423048634270687,0.830710102489019
0.012473425960443724,0.830710102489019
0.012473425960443724,0.8308016105417276
0.012488539158295633,0.8308016105417276
0.012488539158295633,0.8309846266471449
0.012508690088764849,0.8309846266471449
0.012508690088764849,0.8310761346998536
0.012543954217085974,0.8310761346998536
0.012543954217085974,0.8312591508052709
0.012548991949703277,0.8312591508052709
0.012548991949703277,0.8313506588579795
0.012569142880172492,0.8313506588579795
0.012569142880172492,0.8316251830161054
0.012584256078024403,0.8316251830161054
0.012584256078024403,0.8318081991215227
0.012604407008493617,0.8318081991215227
0.012604407008493617,0.8318997071742313
0.01260944474111092,0.8318997071742313
0.01260944474111092,0.83199121522694
0.012624557938962831,0.83199121522694
0.012624557938962831,0.8321742313323572
0.012629595671580136,0.8321742313323572
0.012629595671580136,0.8322657393850659
0.012634633404197439,0.8322657393850659
0.012634633404197439,0.8324487554904831
0.012639671136814742,0.8324487554904831
0.012639671136814742,0.8325402635431918
0.012695086195605082,0.8325402635431918
0.012695086195605082,0.8326317715959004
0.01270516166083969,0.8326317715959004
0.01270516166083969,0.832723279648609
0.012710199393456993,0.832723279648609
0.012710199393456993,0.8328147877013177
0.012740425789160814,0.8328147877013177
0.012740425789160814,0.8329062957540263
0.012765614452247333,0.8329062957540263
0.012765614452247333,0.8329978038067349
0.012780727650099244,0.8329978038067349
0.012780727650099244,0.8331808199121523
0.012795840847951155,0.8331808199121523
0.012795840847951155,0.833272327964861
0.012821029511037672,0.833272327964861
0.012821029511037672,0.8334553440702782
0.01284621817412419,0.8334553440702782
0.01284621817412419,0.8335468521229868
0.012866369104593404,0.8335468521229868
0.012866369104593404,0.8336383601756955
0.012876444569828012,0.8336383601756955
0.012876444569828012,0.8337298682284041
0.012891557767679923,0.8337298682284041
0.012891557767679923,0.8339128843338214
0.01290163323291453,0.8339128843338214
0.01290163323291453,0.83400439238653
0.012906670965531834,0.83400439238653
0.012906670965531834,0.8340959004392386
0.012921784163383744,0.8340959004392386
0.012921784163383744,0.8341874084919473
0.012926821896001047,0.8341874084919473
0.012926821896001047,0.8342789165446559
0.012931859628618352,0.8342789165446559
0.012931859628618352,0.8343704245973645
0.012936897361235655,0.8343704245973645
0.012936897361235655,0.8345534407027818
0.012941935093852958,0.8345534407027818
0.012941935093852958,0.8346449487554904
0.012977199222174085,0.8346449487554904
0.012977199222174085,0.8347364568081991
0.01298727468740869,0.8347364568081991
0.01298727468740869,0.8351939970717424
0.013002387885260602,0.8351939970717424
0.013002387885260602,0.8354685212298683
0.01302757654834712,0.8354685212298683
0.01302757654834712,0.8356515373352855
0.013032614280964423,0.8356515373352855
0.013032614280964423,0.8358345534407028
0.013042689746199031,0.8358345534407028
0.013042689746199031,0.8359260614934114
0.013052765211433637,0.8359260614934114
0.013052765211433637,0.83601756954612
0.013062840676668245,0.83601756954612
0.013062840676668245,0.8361090775988287
0.013093067072372067,0.8361090775988287
0.013093067072372067,0.836292093704246
0.013123293468075888,0.836292093704246
0.013123293468075888,0.8363836017569546
0.013138406665927799,0.8363836017569546
0.013138406665927799,0.8364751098096632
0.01315351986377971,0.8364751098096632
0.01315351986377971,0.8365666178623719
0.013158557596397013,0.8365666178623719
0.013158557596397013,0.8367496339677891
0.013183746259483532,0.8367496339677891
0.013183746259483532,0.8371156661786238
0.013198859457335442,0.8371156661786238
0.013198859457335442,0.8372071742313324
0.013234123585656567,0.8372071742313324
0.013234123585656567,0.8375732064421669
0.013274425446594997,0.8375732064421669
0.013274425446594997,0.8376647144948756
0.01329457637706421,0.8376647144948756
0.01329457637706421,0.8377562225475842
0.013309689574916121,0.8377562225475842
0.013309689574916121,0.8378477306002928
0.01333487823800264,0.8378477306002928
0.01333487823800264,0.8379392386530015
0.013355029168471854,0.8379392386530015
0.013355029168471854,0.8380307467057101
0.013360066901089158,0.8380307467057101
0.013360066901089158,0.8381222547584187
0.01337518009894107,0.8381222547584187
0.01337518009894107,0.8382137628111274
0.013415481959879497,0.8382137628111274
0.013415481959879497,0.8383967789165446
0.013440670622966016,0.8383967789165446
0.013440670622966016,0.8384882869692533
0.013455783820817926,0.8384882869692533
0.013455783820817926,0.8386713030746705
0.01346082155343523,0.8386713030746705
0.01346082155343523,0.8387628111273792
0.01347593475128714,0.8387628111273792
0.01347593475128714,0.8391288433382138
0.013496085681756356,0.8391288433382138
0.013496085681756356,0.8392203513909224
0.013501123414373659,0.8392203513909224
0.013501123414373659,0.8393118594436311
0.013521274344842873,0.8393118594436311
0.013521274344842873,0.839586383601757
0.013546463007929391,0.839586383601757
0.013546463007929391,0.8396778916544656
0.013551500740546694,0.8396778916544656
0.013551500740546694,0.8400439238653001
0.013561576205781302,0.8400439238653001
0.013561576205781302,0.8401354319180088
0.013622028997188946,0.8401354319180088
0.013622028997188946,0.8405929721815519
0.013627066729806249,0.8405929721815519
0.013627066729806249,0.8406844802342606
0.013652255392892767,0.8406844802342606
0.013652255392892767,0.8407759882869692
0.013662330858127373,0.8407759882869692
0.013662330858127373,0.8408674963396779
0.013682481788596589,0.8408674963396779
0.013682481788596589,0.8409590043923866
0.013707670451683106,0.8409590043923866
0.013707670451683106,0.8414165446559297
0.013722783649535017,0.8414165446559297
0.013722783649535017,0.8415080527086384
0.013732859114769624,0.8415080527086384
0.013732859114769624,0.841599560761347
0.013742934580004232,0.841599560761347
0.013742934580004232,0.8416910688140556
0.013747972312621535,0.8416910688140556
0.013747972312621535,0.8417825768667643
0.013758047777856143,0.8417825768667643
0.013758047777856143,0.8419655929721815
0.013813462836646482,0.8419655929721815
0.013813462836646482,0.8420571010248902
0.013858802430202214,0.8420571010248902
0.013858802430202214,0.8421486090775988
0.013873915628054125,0.8421486090775988
0.013873915628054125,0.8422401171303074
0.013883991093288733,0.8422401171303074
0.013883991093288733,0.8423316251830161
0.013909179756375251,0.8423316251830161
0.013909179756375251,0.8424231332357247
0.013924292954227162,0.8424231332357247
0.013924292954227162,0.8425146412884333
0.013934368419461768,0.8425146412884333
0.013934368419461768,0.842606149341142
0.013954519349930984,0.842606149341142
0.013954519349930984,0.8429721815519766
0.013969632547782895,0.8429721815519766
0.013969632547782895,0.8430636896046853
0.0139797080130175,0.8430636896046853
0.0139797080130175,0.8431551976573939
0.013994821210869412,0.8431551976573939
0.013994821210869412,0.8432467057101025
0.014014972141338627,0.8432467057101025
0.014014972141338627,0.8433382137628112
0.014055274002277055,0.8433382137628112
0.014055274002277055,0.8434297218155198
0.014070387200128966,0.8434297218155198
0.014070387200128966,0.8435212298682284
0.014085500397980876,0.8435212298682284
0.014085500397980876,0.843612737920937
0.014095575863215484,0.843612737920937
0.014095575863215484,0.8437042459736457
0.014100613595832787,0.8437042459736457
0.014100613595832787,0.8437957540263543
0.014115726793684698,0.8437957540263543
0.014115726793684698,0.843887262079063
0.01416106638724043,0.843887262079063
0.01416106638724043,0.8439787701317716
0.014176179585092341,0.8439787701317716
0.014176179585092341,0.8440702781844802
0.014181217317709644,0.8440702781844802
0.014181217317709644,0.8441617862371888
0.014196330515561555,0.8441617862371888
0.014196330515561555,0.8443448023426061
0.014221519178648074,0.8443448023426061
0.014221519178648074,0.8444363103953147
0.014251745574351896,0.8444363103953147
0.014251745574351896,0.8445278184480234
0.014266858772203806,0.8445278184480234
0.014266858772203806,0.8448023426061494
0.014276934237438414,0.8448023426061494
0.014276934237438414,0.844893850658858
0.014292047435290325,0.844893850658858
0.014292047435290325,0.8449853587115667
0.014302122900524931,0.8449853587115667
0.014302122900524931,0.8451683748169839
0.01432731156361145,0.8451683748169839
0.01432731156361145,0.8452598828696926
0.014332349296228753,0.8452598828696926
0.014332349296228753,0.8453513909224012
0.014347462494080664,0.8453513909224012
0.014347462494080664,0.8454428989751098
0.01436761342454988,0.8454428989751098
0.01436761342454988,0.8455344070278185
0.014372651157167182,0.8455344070278185
0.014372651157167182,0.8456259150805271
0.014417990750722915,0.8456259150805271
0.014417990750722915,0.8457174231332357
0.014423028483340218,0.8457174231332357
0.014423028483340218,0.8458089311859444
0.014463330344278647,0.8458089311859444
0.014463330344278647,0.845900439238653
0.01446836807689595,0.845900439238653
0.01446836807689595,0.8459919472913616
0.014478443542130558,0.8459919472913616
0.014478443542130558,0.8460834553440703
0.01450866993783438,0.8460834553440703
0.01450866993783438,0.8462664714494875
0.014518745403068987,0.8462664714494875
0.014518745403068987,0.8464494875549048
0.01452378313568629,0.8464494875549048
0.01452378313568629,0.8465409956076134
0.014594311392328542,0.8465409956076134
0.014594311392328542,0.8467240117130308
0.014624537788032362,0.8467240117130308
0.014624537788032362,0.8468155197657394
0.01464972645111888,0.8468155197657394
0.01464972645111888,0.8469985358711567
0.014659801916353488,0.8469985358711567
0.014659801916353488,0.8470900439238653
0.014669877381588094,0.8470900439238653
0.014669877381588094,0.8472730600292826
0.014695066044674613,0.8472730600292826
0.014695066044674613,0.8473645680819912
0.014700103777291916,0.8473645680819912
0.014700103777291916,0.8476390922401171
0.01470514150990922,0.8476390922401171
0.01470514150990922,0.8477306002928258
0.014715216975143827,0.8477306002928258
0.014715216975143827,0.8478221083455344
0.014725292440378434,0.8478221083455344
0.014725292440378434,0.847913616398243
0.014735367905613042,0.847913616398243
0.014735367905613042,0.8480051244509517
0.014750481103464953,0.8480051244509517
