fpr,tpr
0.0,0.0
0.0,0.0003403675970047651
0.0,0.0006807351940095302
3.415183907653427e-05,0.0006807351940095302
3.415183907653427e-05,0.012933968686181076
5.1227758614801405e-05,0.012933968686181076
5.1227758614801405e-05,0.06773315180394826
5.1227758614801405e-05,0.06841388699795779
5.1227758614801405e-05,0.16609938733832538
5.1227758614801405e-05,0.16678012253233493
5.1227758614801405e-05,0.25629680054458814
6.830367815306854e-05,0.25629680054458814
6.830367815306854e-05,0.2835262083049694
6.830367815306854e-05,0.2842069434989789
6.830367815306854e-05,0.291354663036079
8.537959769133568e-05,0.291354663036079
8.537959769133568e-05,0.2981620149761743
0.00010245551722960281,0.2981620149761743
0.00010245551722960281,0.3230088495575221
0.00010245551722960281,0.32368958475153164
0.00010245551722960281,0.33968686181075564
0.00011953143676786995,0.33968686181075564
0.00011953143676786995,0.3587474472430225
0.0001366073563061371,0.3587474472430225
0.0001366073563061371,0.386997957794418
0.00015368327584440423,0.386997957794418
0.00015368327584440423,0.4251191286589517
0.00017075919538267137,0.4251191286589517
0.00017075919538267137,0.43567052416609936
0.00018783511492093848,0.43567052416609936
0.00018783511492093848,0.43703199455411845
0.00020491103445920562,0.43703199455411845
0.00020491103445920562,0.4543907420013615
0.00022198695399747276,0.4543907420013615
0.00022198695399747276,0.4690265486725664
0.0002390628735357399,0.4690265486725664
0.0002390628735357399,0.4707283866575902
0.000256138793074007,0.4707283866575902
0.000256138793074007,0.4754935330156569
0.0002732147126122742,0.4754935330156569
0.0002732147126122742,0.47617426820966646
0.0002902906321505413,0.47617426820966646
0.0002902906321505413,0.4850238257317903
0.00030736655168880846,0.4850238257317903
0.00030736655168880846,0.4952348536419333
0.00032444247122707557,0.4952348536419333
0.00032444247122707557,0.49659632402995235
0.00034151839076534274,0.49659632402995235
0.00034151839076534274,0.5003403675970047
0.00035859431030360985,0.5003403675970047
0.00035859431030360985,0.5132743362831859
0.00037567022984187696,0.5132743362831859
0.00037567022984187696,0.5153165418652145
0.00039274614938014413,0.5153165418652145
0.00039274614938014413,0.5176991150442478
0.00040982206891841124,0.5176991150442478
0.00040982206891841124,0.5217835262083049
0.0004268979884566784,0.5217835262083049
0.0004268979884566784,0.5394826412525527
0.0004439739079949455,0.5394826412525527
0.0004439739079949455,0.5398230088495575
0.0004610498275332127,0.5398230088495575
0.0004610498275332127,0.5401633764465623
0.0004781257470714798,0.5401633764465623
0.0004781257470714798,0.552076242341729
0.0004952016666097469,0.552076242341729
0.0004952016666097469,0.5636487406398911
0.000512277586148014,0.5636487406398911
0.000512277586148014,0.5643294758339006
0.0005293535056862812,0.5643294758339006
0.0005293535056862812,0.5738597685500341
0.0005464294252245484,0.5738597685500341
0.0005464294252245484,0.5847515316541865
0.0005635053447628155,0.5847515316541865
0.0005635053447628155,0.5881552076242341
0.0005976571838393497,0.5881552076242341
0.0005976571838393497,0.5908781484002723
0.0006147331033776169,0.5908781484002723
0.0006147331033776169,0.5939414567733152
0.000631809022915884,0.5939414567733152
0.000631809022915884,0.5949625595643295
0.0006488849424541511,0.5949625595643295
0.0006488849424541511,0.5966643975493533
0.0006659608619924183,0.5966643975493533
0.0006659608619924183,0.5973451327433629
0.0006830367815306855,0.5973451327433629
0.0006830367815306855,0.5983662355343772
0.0007001127010689526,0.5983662355343772
0.0007001127010689526,0.5997277059223962
0.0007171886206072197,0.5997277059223962
0.0007171886206072197,0.60142954390742
0.0007342645401454868,0.60142954390742
0.0007342645401454868,0.6078965282505105
0.0007513404596837539,0.6078965282505105
0.0007513404596837539,0.6089176310415249
0.0007684163792220211,0.6089176310415249
0.0007684163792220211,0.6106194690265486
0.0007854922987602883,0.6106194690265486
0.0007854922987602883,0.6116405718175629
0.0008025682182985554,0.6116405718175629
0.0008025682182985554,0.6143635125936011
0.0008367200573750896,0.6143635125936011
0.0008367200573750896,0.6157249829816202
0.0008708718964516239,0.6157249829816202
0.0008708718964516239,0.6160653505786249
0.000887947815989891,0.6160653505786249
0.000887947815989891,0.6167460857726345
0.0009050237355281582,0.6167460857726345
0.0009050237355281582,0.617426820966644
0.0009220996550664254,0.617426820966644
0.0009220996550664254,0.6177671885636488
0.0009391755746046925,0.6177671885636488
0.0009391755746046925,0.6194690265486725
0.0009562514941429596,0.6194690265486725
0.0009562514941429596,0.6198093941456774
0.0009733274136812267,0.6198093941456774
0.0009733274136812267,0.6204901293396868
0.0009904033332194938,0.6204901293396868
0.0009904033332194938,0.6215112321307011
0.001007479252757761,0.6215112321307011
0.001007479252757761,0.6218515997277059
0.001024555172296028,0.6218515997277059
0.001024555172296028,0.6238938053097345
0.0010416310918342953,0.6238938053097345
0.0010416310918342953,0.6300204220558203
0.0010757829309108295,0.6300204220558203
0.0010757829309108295,0.6313818924438394
0.0010928588504490967,0.6313818924438394
0.0010928588504490967,0.6317222600408441
0.001127010689525631,0.6317222600408441
0.001127010689525631,0.634785568413887
0.0011611625286021652,0.634785568413887
0.0011611625286021652,0.6354663036078966
0.0011782384481404324,0.6354663036078966
0.0011782384481404324,0.6358066712049013
0.0011953143676786994,0.6358066712049013
0.0011953143676786994,0.6378488767869299
0.0012123902872169666,0.6378488767869299
0.0012123902872169666,0.6385296119809394
0.0012294662067552338,0.6385296119809394
0.0012294662067552338,0.6388699795779442
0.0012806939653700353,0.6388699795779442
0.0012806939653700353,0.6409121851599727
0.0012977698849083023,0.6409121851599727
0.0012977698849083023,0.6415929203539823
0.0013148458044465695,0.6415929203539823
0.0013148458044465695,0.6432947583390062
0.0013319217239848365,0.6432947583390062
0.0013319217239848365,0.6443158611300204
0.0013489976435231037,0.6443158611300204
0.0013489976435231037,0.646358066712049
0.001366073563061371,0.646358066712049
0.001366073563061371,0.6470388019060586
0.001383149482599638,0.6470388019060586
0.001383149482599638,0.647719537100068
0.0014173013216761722,0.647719537100068
0.0014173013216761722,0.6497617426820966
0.0014343772412144394,0.6497617426820966
0.0014343772412144394,0.6507828454731109
0.0014514531607527066,0.6507828454731109
0.0014514531607527066,0.6514635806671205
0.0014685290802909736,0.6514635806671205
0.0014685290802909736,0.65214431586113
0.0014856049998292408,0.65214431586113
0.0014856049998292408,0.6545268890401634
0.0015026809193675078,0.6545268890401634
0.0015026809193675078,0.6572498298162015
0.001519756838905775,0.6572498298162015
0.001519756838905775,0.6606535057862492
0.0015368327584440423,0.6606535057862492
0.0015368327584440423,0.6633764465622872
0.0015539086779823093,0.6633764465622872
0.0015539086779823093,0.6650782845473111
0.0015709845975205765,0.6650782845473111
0.0015709845975205765,0.6660993873383254
0.0015880605170588435,0.6660993873383254
0.0015880605170588435,0.6674608577263444
0.001622212356135378,0.6674608577263444
0.001622212356135378,0.668141592920354
0.001639288275673645,0.668141592920354
0.001639288275673645,0.6708645336963921
0.0016563641952119122,0.6708645336963921
0.0016563641952119122,0.6718856364874064
0.0017075919538267136,0.6718856364874064
0.0017075919538267136,0.6742682096664397
0.0017246678733649806,0.6742682096664397
0.0017246678733649806,0.6746085772634445
0.0017417437929032479,0.6746085772634445
0.0017417437929032479,0.6749489448604493
0.001758819712441515,0.6749489448604493
0.001758819712441515,0.6756296800544588
0.001775895631979782,0.6756296800544588
0.001775895631979782,0.6759700476514636
0.0017929715515180493,0.6759700476514636
0.0017929715515180493,0.6769911504424779
0.001878351149209385,0.6769911504424779
0.001878351149209385,0.6790333560245064
0.001895427068747652,0.6790333560245064
0.001895427068747652,0.6807351940095303
0.0019125029882859192,0.6807351940095303
0.0019125029882859192,0.6814159292035398
0.0019295789078241864,0.6814159292035398
0.0019295789078241864,0.6820966643975493
0.0019466548273624534,0.6820966643975493
0.0019466548273624534,0.6827773995915589
0.0019808066664389876,0.6827773995915589
0.0019808066664389876,0.6837985023825732
0.001997882585977255,0.6837985023825732
0.001997882585977255,0.6848196051735874
0.002014958505515522,0.6848196051735874
0.002014958505515522,0.6892443839346494
0.002049110344592056,0.6892443839346494
0.002049110344592056,0.6895847515316542
0.0020661862641303233,0.6895847515316542
0.0020661862641303233,0.692648059904697
0.0020832621836685905,0.692648059904697
0.0020832621836685905,0.6946902654867256
0.002117414022745125,0.6946902654867256
0.002117414022745125,0.6950306330837305
0.002151565861821659,0.6950306330837305
0.002151565861821659,0.697072838665759
0.002168641781359926,0.697072838665759
0.002168641781359926,0.6974132062627638
0.0022027936204364607,0.6974132062627638
0.0022027936204364607,0.6977535738597685
0.002254021379051262,0.6977535738597685
0.002254021379051262,0.6980939414567733
0.0022881732181277963,0.6980939414567733
0.0022881732181277963,0.6987746766507829
0.0023223250572043303,0.6987746766507829
0.0023223250572043303,0.6994554118447924
0.0023564768962808648,0.6994554118447924
0.0023564768962808648,0.7011572498298162
0.002373552815819132,0.7011572498298162
0.002373552815819132,0.7018379850238258
0.0023906287353573988,0.7018379850238258
0.0023906287353573988,0.7025187202178352
0.002407704654895666,0.7025187202178352
0.002407704654895666,0.7042205582028591
0.0024247805744339332,0.7042205582028591
0.0024247805744339332,0.7045609257998638
0.0024418564939722004,0.7045609257998638
0.0024418564939722004,0.7049012933968686
0.0024589324135104677,0.7049012933968686
0.0024589324135104677,0.7055820285908782
0.0024930842525870017,0.7055820285908782
0.0024930842525870017,0.7059223961878829
0.002527236091663536,0.7059223961878829
0.002527236091663536,0.7069434989788972
0.0025955397698166046,0.7069434989788972
0.0025955397698166046,0.7072838665759019
0.002612615689354872,0.7072838665759019
0.002612615689354872,0.7083049693669162
0.002629691608893139,0.7083049693669162
0.002629691608893139,0.7086453369639211
0.0026467675284314062,0.7086453369639211
0.0026467675284314062,0.7089857045609258
0.002663843447969673,0.7089857045609258
0.002663843447969673,0.7106875425459497
0.0026809193675079402,0.7106875425459497
0.0026809193675079402,0.7123893805309734
0.002732147126122742,0.7123893805309734
0.002732147126122742,0.713070115724983
0.002766298965199276,0.713070115724983
0.002766298965199276,0.7134104833219878
0.0028004508042758103,0.7134104833219878
0.0028004508042758103,0.7140912185159973
0.0028175267238140776,0.7140912185159973
0.0028175267238140776,0.7157930565010211
0.0028516785628906116,0.7157930565010211
0.0028516785628906116,0.7164737916950307
0.002868754482428879,0.7164737916950307
0.002868754482428879,0.7168141592920354
0.002885830401967146,0.7168141592920354
0.002885830401967146,0.717494894486045
0.00291998224104368,0.717494894486045
0.00291998224104368,0.7178352620830497
0.0029370581605819472,0.7178352620830497
0.0029370581605819472,0.7181756296800544
0.0029541340801202145,0.7181756296800544
0.0029541340801202145,0.7185159972770592
0.0029712099996584817,0.7185159972770592
0.0029712099996584817,0.7195371000680735
0.0030053618387350157,0.7195371000680735
0.0030053618387350157,0.7198774676650783
0.003022437758273283,0.7198774676650783
0.003022437758273283,0.720217835262083
0.00303951367781155,0.720217835262083
0.00303951367781155,0.7205582028590878
0.0030565895973498174,0.7205582028590878
0.0030565895973498174,0.7219196732471069
0.003124893275502886,0.7219196732471069
0.003124893275502886,0.7236215112321307
0.0032102728731942215,0.7236215112321307
0.0032102728731942215,0.7253233492171546
0.0032273487927324887,0.7253233492171546
0.0032273487927324887,0.7256637168141593
0.003244424712270756,0.7256637168141593
0.003244424712270756,0.7266848196051736
0.0032615006318090227,0.7266848196051736
0.0032615006318090227,0.7270251872021783
0.00327857655134729,0.7270251872021783
0.00327857655134729,0.7280462899931927
0.003295652470885557,0.7280462899931927
0.003295652470885557,0.7294077603812117
0.0033127283904238244,0.7294077603812117
0.0033127283904238244,0.7297481279782164
0.0033298043099620916,0.7297481279782164
0.0033298043099620916,0.7311095983662356
0.0033639561490386256,0.7311095983662356
0.0033639561490386256,0.7314499659632403
0.003381032068576893,0.7314499659632403
0.003381032068576893,0.731790333560245
0.00339810798811516,0.731790333560245
0.00339810798811516,0.7331518039482642
0.0034151839076534273,0.7331518039482642
0.0034151839076534273,0.7338325391422736
0.00351763942488303,0.7338325391422736
0.00351763942488303,0.7341729067392784
0.003534715344421297,0.7341729067392784
0.003534715344421297,0.7358747447243023
0.003551791263959564,0.7358747447243023
0.003551791263959564,0.7365554799183118
0.0035859431030360986,0.7365554799183118
0.0035859431030360986,0.7368958475153166
0.0036200949421126326,0.7368958475153166
0.0036200949421126326,0.7372362151123213
0.003654246781189167,0.7372362151123213
0.003654246781189167,0.737576582709326
0.0037054745398039683,0.737576582709326
0.0037054745398039683,0.7392784206943499
0.00375670229841877,0.7392784206943499
0.00375670229841877,0.7402995234853642
0.003773778217957037,0.7402995234853642
0.003773778217957037,0.7413206262763785
0.003790854137495304,0.7413206262763785
0.003790854137495304,0.742001361470388
0.0038250059765718384,0.742001361470388
0.0038250059765718384,0.7426820966643976
0.0038420818961101056,0.7426820966643976
0.0038420818961101056,0.7430224642614023
0.003859157815648373,0.7430224642614023
0.003859157815648373,0.7437031994554119
0.003893309654724907,0.7437031994554119
0.003893309654724907,0.7443839346494214
0.00399576517195451,0.7443839346494214
0.00399576517195451,0.7447243022464262
0.0040128410914927765,0.7447243022464262
0.0040128410914927765,0.7450646698434309
0.004081144769645845,0.7450646698434309
0.004081144769645845,0.7460857726344452
0.004098220689184112,0.7460857726344452
0.004098220689184112,0.7464261402314499
0.00411529660872238,0.7464261402314499
0.00411529660872238,0.7467665078284548
0.004132372528260647,0.7467665078284548
0.004132372528260647,0.7471068754254595
0.004166524367337181,0.7471068754254595
0.004166524367337181,0.7474472430224642
0.004217752125951982,0.7474472430224642
0.004217752125951982,0.7481279782164738
0.00423482804549025,0.7481279782164738
0.00423482804549025,0.7484683458134785
0.0042689798845667835,0.7484683458134785
0.0042689798845667835,0.7501701837985024
0.004320207643181586,0.7501701837985024
0.004320207643181586,0.7505105513955072
0.004337283562719852,0.7505105513955072
0.004337283562719852,0.7508509189925119
0.004371435401796387,0.7508509189925119
0.004371435401796387,0.7515316541865215
0.004388511321334654,0.7515316541865215
0.004388511321334654,0.7518720217835262
0.004422663160411188,0.7518720217835262
0.004422663160411188,0.7522123893805309
0.004439739079949455,0.7522123893805309
0.004439739079949455,0.7532334921715452
0.0044568149994877225,0.7532334921715452
0.0044568149994877225,0.7539142273655548
0.004473890919025989,0.7539142273655548
0.004473890919025989,0.7542545949625595
0.004508042758102524,0.7542545949625595
0.004508042758102524,0.7545949625595644
0.0045251186776407906,0.7545949625595644
0.0045251186776407906,0.7552756977535738
0.004542194597179058,0.7552756977535738
0.004542194597179058,0.7556160653505786
0.004576346436255593,0.7556160653505786
0.004576346436255593,0.7559564329475834
0.0045934223557938594,0.7559564329475834
0.0045934223557938594,0.7566371681415929
0.004610498275332126,0.7566371681415929
0.004610498275332126,0.7569775357385977
0.004627574194870394,0.7569775357385977
0.004627574194870394,0.7576582709326072
0.004644650114408661,0.7576582709326072
0.004644650114408661,0.757998638529612
0.004661726033946928,0.757998638529612
0.004661726033946928,0.7586793737236215
0.004678801953485195,0.7586793737236215
0.004678801953485195,0.7597004765146358
0.004695877873023462,0.7597004765146358
0.004695877873023462,0.7607215793056501
0.004730029712099996,0.7607215793056501
0.004730029712099996,0.7610619469026548
0.004747105631638264,0.7610619469026548
0.004747105631638264,0.762423417290674
0.004764181551176531,0.762423417290674
0.004764181551176531,0.7631041524846834
0.0047812574707147976,0.7631041524846834
0.0047812574707147976,0.7641252552756977
0.004798333390253065,0.7641252552756977
0.004798333390253065,0.7648059904697073
0.004815409309791332,0.7648059904697073
0.004815409309791332,0.765146358066712
0.0048324852293296,0.765146358066712
0.0048324852293296,0.7654867256637168
0.0048495611488678664,0.7654867256637168
0.0048495611488678664,0.7661674608577264
0.004866637068406134,0.7661674608577264
0.004866637068406134,0.7665078284547311
0.004900788907482668,0.7665078284547311
0.004900788907482668,0.7675289312457454
0.0049690925856357366,0.7675289312457454
0.0049690925856357366,0.7678692988427501
0.005020320344250538,0.7678692988427501
0.005020320344250538,0.7685500340367597
0.0050373962637888054,0.7685500340367597
0.0050373962637888054,0.7692307692307693
0.0051056999419418735,0.7692307692307693
0.0051056999419418735,0.7702518720217836
0.005122775861480141,0.7702518720217836
0.005122775861480141,0.770932607215793
0.005139851781018408,0.770932607215793
0.005139851781018408,0.7726344452008169
0.005174003620094942,0.7726344452008169
0.005174003620094942,0.7746766507828454
0.005191079539633209,0.7746766507828454
0.005191079539633209,0.775357385976855
0.005225231378709744,0.775357385976855
0.005225231378709744,0.7756977535738597
0.0052935350568628125,0.7756977535738597
0.0052935350568628125,0.7760381211708646
0.005327686895939346,0.7760381211708646
0.005327686895939346,0.776718856364874
0.005395990574092415,0.776718856364874
0.005395990574092415,0.7777399591558883
0.005430142413168949,0.7777399591558883
0.005430142413168949,0.7784206943498979
0.005481370171783751,0.7784206943498979
0.005481370171783751,0.7787610619469026
0.005515522010860285,0.7787610619469026
0.005515522010860285,0.7794417971409122
0.005532597930398552,0.7794417971409122
0.005532597930398552,0.779782164737917
0.005583825689013353,0.779782164737917
0.005583825689013353,0.7804628999319265
0.0056179775280898875,0.7804628999319265
0.0056179775280898875,0.7821647379169503
0.005669205286704689,0.7821647379169503
0.005669205286704689,0.782505105513955
0.005686281206242956,0.782505105513955
0.005686281206242956,0.7828454731109599
0.005771660803934292,0.7828454731109599
0.005771660803934292,0.7835262083049693
0.00583996448208736,0.7835262083049693
0.00583996448208736,0.7838665759019742
0.0058741163211638945,0.7838665759019742
0.0058741163211638945,0.7848876786929885
0.005891192240702162,0.7848876786929885
0.005891192240702162,0.7862491490810075
0.005908268160240429,0.7862491490810075
0.005908268160240429,0.7886317222600409
0.00595949591885523,0.7886317222600409
0.00595949591885523,0.7896528250510552
0.005976571838393498,0.7896528250510552
0.005976571838393498,0.7903335602450646
0.005993647757931765,0.7903335602450646
0.005993647757931765,0.7906739278420695
0.006027799597008299,0.7906739278420695
0.006027799597008299,0.7913546630360789
0.006044875516546566,0.7913546630360789
0.006044875516546566,0.7920353982300885
0.0060619514360848335,0.7920353982300885
0.0060619514360848335,0.7930565010211028
0.006096103275161367,0.7930565010211028
0.006096103275161367,0.7933968686181075
0.006164406953314436,0.7933968686181075
0.006164406953314436,0.7937372362151123
0.006181482872852703,0.7937372362151123
0.006181482872852703,0.7944179714091218
0.00619855879239097,0.7944179714091218
0.00619855879239097,0.7950987066031314
0.006249786551005772,0.7950987066031314
0.006249786551005772,0.7954390742001362
0.006283938390082306,0.7954390742001362
0.006283938390082306,0.7957794417971409
0.006301014309620573,0.7957794417971409
0.006301014309620573,0.7961198093941457
0.0063180902291588405,0.7961198093941457
0.0063180902291588405,0.7964601769911505
0.006335166148697107,0.7964601769911505
0.006335166148697107,0.7978216473791695
0.006369317987773642,0.7978216473791695
0.006369317987773642,0.7985023825731791
0.006403469826850176,0.7985023825731791
0.006403469826850176,0.7995234853641934
0.006420545746388443,0.7995234853641934
0.006420545746388443,0.7998638529611981
0.006454697585464977,0.7998638529611981
0.006454697585464977,0.8002042205582028
0.006488849424541512,0.8002042205582028
0.006488849424541512,0.8012253233492171
0.006505925344079779,0.8012253233492171
0.006505925344079779,0.8022464261402315
0.00655715310269458,0.8022464261402315
0.00655715310269458,0.802927161334241
0.006608380861309381,0.802927161334241
0.006608380861309381,0.8036078965282505
0.006693760459000717,0.8036078965282505
0.006693760459000717,0.8039482641252553
0.006762064137153786,0.8039482641252553
0.006762064137153786,0.8042886317222601
0.00679621597623032,0.8042886317222601
0.00679621597623032,0.8053097345132744
0.006881595573921656,0.8053097345132744
0.006881595573921656,0.8059904697072838
0.00691574741299819,0.8059904697072838
0.00691574741299819,0.8070115724982981
0.006932823332536457,0.8070115724982981
0.006932823332536457,0.8090537780803267
0.006966975171612991,0.8090537780803267
0.006966975171612991,0.8097345132743363
0.007001127010689526,0.8097345132743363
0.007001127010689526,0.8104152484683458
0.007018202930227793,0.8104152484683458
0.007018202930227793,0.8107556160653506
0.00703527884976606,0.8107556160653506
0.00703527884976606,0.8124574540503744
0.007052354769304327,0.8124574540503744
0.007052354769304327,0.813138189244384
0.007120658447457396,0.813138189244384
0.007120658447457396,0.814499659632403
0.007171886206072197,0.814499659632403
0.007171886206072197,0.8155207624234173
0.007188962125610464,0.8155207624234173
0.007188962125610464,0.815861130020422
0.007206038045148732,0.815861130020422
0.007206038045148732,0.8165418652144316
0.007257265803763533,0.8165418652144316
0.007257265803763533,0.8168822328114363
0.0072743417233018,0.8168822328114363
0.0072743417233018,0.8172226004084411
0.007291417642840067,0.8172226004084411
0.007291417642840067,0.8179033356024507
0.007325569481916601,0.8179033356024507
0.007325569481916601,0.8182437031994554
0.0073426454014548686,0.8182437031994554
0.0073426454014548686,0.8185840707964602
0.00739387316006967,0.8185840707964602
0.00739387316006967,0.818924438393465
0.007428024999146204,0.818924438393465
0.007428024999146204,0.8199455411844793
0.007547556435914074,0.8199455411844793
0.007547556435914074,0.8206262763784887
0.00763293603360541,0.8206262763784887
0.00763293603360541,0.8209666439754936
0.007667087872681944,0.8209666439754936
0.007667087872681944,0.8213070115724983
0.007684163792220211,0.8213070115724983
0.007684163792220211,0.821647379169503
0.007718315631296746,0.821647379169503
0.007718315631296746,0.8230088495575221
0.0077353915508350125,0.8230088495575221
0.0077353915508350125,0.8233492171545269
0.007752467470373279,0.8233492171545269
0.007752467470373279,0.8243703199455412
0.007769543389911547,0.8243703199455412
0.007769543389911547,0.824710687542546
0.007803695228988081,0.824710687542546
0.007803695228988081,0.8250510551395507
0.007820771148526348,0.8250510551395507
0.007820771148526348,0.8253914227365555
0.007854922987602882,0.8253914227365555
0.007854922987602882,0.8257317903335603
0.007889074826679417,0.8257317903335603
0.007889074826679417,0.826072157930565
0.007906150746217684,0.826072157930565
0.007906150746217684,0.8264125255275698
0.00799153034390902,0.8264125255275698
0.00799153034390902,0.8267528931245746
0.008025682182985553,0.8267528931245746
0.008025682182985553,0.827433628318584
0.008042758102523822,0.827433628318584
0.008042758102523822,0.8281143635125936
0.008076909941600355,0.8281143635125936
0.008076909941600355,0.8287950987066032
0.008145213619753424,0.8287950987066032
0.008145213619753424,0.8291354663036079
0.00816228953929169,0.8291354663036079
0.00816228953929169,0.8294758339006126
0.008179365458829958,0.8294758339006126
0.008179365458829958,0.8301565690946222
0.008196441378368224,0.8301565690946222
0.008196441378368224,0.8304969366916269
0.008213517297906493,0.8304969366916269
0.008213517297906493,0.8311776718856365
0.00823059321744476,0.8311776718856365
0.00823059321744476,0.8315180394826412
0.008367200573750896,0.8315180394826412
0.008367200573750896,0.831858407079646
0.008384276493289164,0.831858407079646
0.008384276493289164,0.8321987746766508
0.008452580171442231,0.8321987746766508
0.008452580171442231,0.8325391422736556
0.0084696560909805,0.8325391422736556
0.0084696560909805,0.8328795098706603
0.0085208838495953,0.8328795098706603
0.0085208838495953,0.8332198774676651
0.008537959769133567,0.8332198774676651
0.008537959769133567,0.8335602450646699
0.008606263447286636,0.8335602450646699
0.008606263447286636,0.8339006126616746
0.008674567125439705,0.8339006126616746
0.008674567125439705,0.8342409802586793
0.008691643044977972,0.8342409802586793
0.008691643044977972,0.8345813478556842
0.008708718964516238,0.8345813478556842
0.008708718964516238,0.8352620830496936
0.008742870803592774,0.8352620830496936
0.008742870803592774,0.8356024506466985
0.008777022642669307,0.8356024506466985
0.008777022642669307,0.8362831858407079
0.00882825040128411,0.8362831858407079
0.00882825040128411,0.8366235534377128
0.008845326320822376,0.8366235534377128
0.008845326320822376,0.8373042886317222
0.008862402240360643,0.8373042886317222
0.008862402240360643,0.8383253914227365
0.008896554079437178,0.8383253914227365
0.008896554079437178,0.8390061266167461
0.008947781838051979,0.8390061266167461
0.008947781838051979,0.8393464942137508
0.009016085516205048,0.8393464942137508
0.009016085516205048,0.8396868618107556
0.009050237355281581,0.8396868618107556
0.009050237355281581,0.8400272294077604
0.00906731327481985,0.8400272294077604
0.00906731327481985,0.8403675970047652
0.009152692872511185,0.8403675970047652
0.009152692872511185,0.8407079646017699
0.009186844711587719,0.8407079646017699
0.009186844711587719,0.8413886997957795
0.009220996550664252,0.8413886997957795
0.009220996550664252,0.8417290673927842
0.009255148389740788,0.8417290673927842
0.009255148389740788,0.8420694349897889
0.009306376148355588,0.8420694349897889
0.009306376148355588,0.8424098025867938
0.009340527987432123,0.8424098025867938
0.009340527987432123,0.8441116405718175
0.009408831665585192,0.8441116405718175
0.009408831665585192,0.8444520081688224
0.009425907585123459,0.8444520081688224
0.009425907585123459,0.8461538461538461
0.009442983504661726,0.8461538461538461
0.009442983504661726,0.8464942137508509
0.009460059424199993,0.8464942137508509
0.009460059424199993,0.8468345813478557
0.009494211263276528,0.8468345813478557
0.009494211263276528,0.8471749489448605
0.009699122297735733,0.8471749489448605
0.009699122297735733,0.8475153165418652
0.009869881493118404,0.8475153165418652
0.009869881493118404,0.84785568413887
0.010006488849424542,0.84785568413887
0.010006488849424542,0.8481960517358748
0.010023564768962809,0.8481960517358748
0.010023564768962809,0.8485364193328795
0.010040640688501076,0.8485364193328795
0.010040640688501076,0.8488767869298843
0.010177248044807213,0.8488767869298843
0.010177248044807213,0.8495575221238938
0.010211399883883747,0.8495575221238938
0.010211399883883747,0.8498978897208985
0.010228475803422014,0.8498978897208985
0.010228475803422014,0.8509189925119128
0.010262627642498549,0.8509189925119128
0.010262627642498549,0.8515997277059224
0.010279703562036816,0.8515997277059224
0.010279703562036816,0.8519400953029271
0.010365083159728151,0.8519400953029271
0.010365083159728151,0.852280462899932
0.010535842355110823,0.852280462899932
0.010535842355110823,0.8526208304969367
0.010569994194187356,0.8526208304969367
0.010569994194187356,0.8533015656909462
0.01067244971141696,0.8533015656909462
0.01067244971141696,0.8539823008849557
0.01079198114818483,0.8539823008849557
0.01079198114818483,0.8543226684819605
0.010809057067723097,0.8543226684819605
0.010809057067723097,0.85500340367597
0.010996892182644035,0.85500340367597
0.010996892182644035,0.8553437712729748
0.011013968102182303,0.8553437712729748
0.011013968102182303,0.8556841388699796
0.011048119941258837,0.8556841388699796
0.011048119941258837,0.8560245064669844
0.011116423619411906,0.8560245064669844
0.011116423619411906,0.8563648740639891
0.011184727297564975,0.8563648740639891
0.011184727297564975,0.8570456092579987
0.011218879136641508,0.8570456092579987
0.011218879136641508,0.8573859768550034
0.011235955056179775,0.8573859768550034
0.011235955056179775,0.8577263444520081
0.01132133465387111,0.8577263444520081
0.01132133465387111,0.8587474472430224
0.011406714251562446,0.8587474472430224
0.011406714251562446,0.8597685500340367
0.011423790171100713,0.8597685500340367
0.011423790171100713,0.8601089176310415
0.011440866090638982,0.8601089176310415
0.011440866090638982,0.8604492852280463
0.01156039752740685,0.8604492852280463
0.01156039752740685,0.860789652825051
0.011594549366483384,0.860789652825051
0.011594549366483384,0.8618107556160653
0.011611625286021653,0.8618107556160653
0.011611625286021653,0.8621511232130701
0.01162870120555992,0.8621511232130701
0.01162870120555992,0.8624914908100749
0.011799460400942591,0.8624914908100749
0.011799460400942591,0.8628318584070797
0.011833612240019125,0.8628318584070797
0.011833612240019125,0.863852961198094
0.011850688159557391,0.863852961198094
0.011850688159557391,0.8645336963921034
0.011936067757248727,0.8645336963921034
0.011936067757248727,0.8648740639891083
0.01198729551586353,0.8648740639891083
0.01198729551586353,0.8655547991831177
0.012021447354940063,0.8655547991831177
0.012021447354940063,0.8658951667801226
0.012123902872169667,0.8658951667801226
0.012123902872169667,0.8672566371681416
0.012140978791707934,0.8672566371681416
0.012140978791707934,0.8675970047651463
0.0121580547112462,0.8675970047651463
0.0121580547112462,0.8679373723621511
0.012431269423858474,0.8679373723621511
0.012431269423858474,0.8682777399591559
0.012448345343396741,0.8682777399591559
0.012448345343396741,0.8686181075561606
0.012670332297394215,0.8686181075561606
0.012670332297394215,0.8689584751531654
0.012738635975547283,0.8689584751531654
0.012738635975547283,0.869639210347175
0.012841091492776886,0.869639210347175
0.012841091492776886,0.8699795779441797
0.01287524333185342,0.8699795779441797
0.01287524333185342,0.871000680735194
0.012909395170929955,0.871000680735194
0.012909395170929955,0.8713410483321987
0.012977698849083024,0.8713410483321987
0.012977698849083024,0.8716814159292036
0.01299477476862129,0.8716814159292036
0.01299477476862129,0.8720217835262083
0.013148458044465695,0.8720217835262083
0.013148458044465695,0.872362151123213
0.013250913561695297,0.872362151123213
0.013250913561695297,0.8727025187202179
0.013267989481233564,0.8727025187202179
0.013267989481233564,0.8730428863172226
0.013370444998463167,0.8730428863172226
0.013370444998463167,0.8733832539142273
0.013387520918001434,0.8733832539142273
0.013387520918001434,0.8737236215112322
0.013541204193845838,0.8737236215112322
0.013541204193845838,0.8740639891082369
0.013643659711075442,0.8740639891082369
0.013643659711075442,0.8744043567052416
0.013660735630613709,0.8744043567052416
0.013660735630613709,0.8747447243022465
0.013729039308766778,0.8747447243022465
0.013729039308766778,0.8750850918992512
0.013763191147843312,0.8750850918992512
0.013763191147843312,0.8754254594962559
0.013780267067381578,0.8754254594962559
0.013780267067381578,0.8764465622872702
0.013865646665072914,0.8764465622872702
0.013865646665072914,0.876786929884275
0.01388272258461118,0.876786929884275
0.01388272258461118,0.8774676650782846
0.013916874423687716,0.8774676650782846
0.013916874423687716,0.8778080326752893
0.013933950343225983,0.8778080326752893
0.013933950343225983,0.8781484002722941
0.01407055769953212,0.8781484002722941
0.01407055769953212,0.8791695030633083
0.014087633619070387,0.8791695030633083
0.014087633619070387,0.8798502382573179
0.014104709538608654,0.8798502382573179
0.014104709538608654,0.8801906058543226
0.01419008913629999,0.8801906058543226
0.01419008913629999,0.8808713410483322
0.014258392814453059,0.8808713410483322
0.014258392814453059,0.8815520762423418
0.014360848331682661,0.8815520762423418
0.014360848331682661,0.8818924438393465
0.014377924251220928,0.8818924438393465
0.014377924251220928,0.8822328114363512
0.014634063044294935,0.8822328114363512
0.014634063044294935,0.882573179033356
0.014651138963833202,0.882573179033356
0.014651138963833202,0.8829135466303608
0.014753594481062806,0.8829135466303608
0.014753594481062806,0.8832539142273655
0.014804822239677606,0.8832539142273655
0.014804822239677606,0.8835942818243703
0.014873125917830675,0.8835942818243703
0.014873125917830675,0.8842750170183798
0.015060961032751613,0.8842750170183798
0.015060961032751613,0.8846153846153846
0.01531709982582562,0.8846153846153846
0.01531709982582562,0.8849557522123894
0.015402479423516956,0.8849557522123894
0.015402479423516956,0.8856364874063989
0.015487859021208292,0.8856364874063989
0.015487859021208292,0.8863172226004085
0.015522010860284827,0.8863172226004085
0.015522010860284827,0.8866575901974132
0.01562446637751443,0.8866575901974132
0.01562446637751443,0.8869979577944179
0.01567569413612923,0.8869979577944179
0.01567569413612923,0.8873383253914228
0.015761073733820567,0.8873383253914228
0.015761073733820567,0.8880190605854322
0.015829377411973634,0.8880190605854322
0.015829377411973634,0.8883594281824371
0.015863529251050168,0.8883594281824371
0.015863529251050168,0.8886997957794418
0.016051364365971106,0.8886997957794418
0.016051364365971106,0.8890401633764465
0.01610259212458591,0.8890401633764465
0.01610259212458591,0.8893805309734514
0.01632457907858338,0.8893805309734514
0.01632457907858338,0.8897208985704561
0.01634165499812165,0.8897208985704561
0.016358730917659915,0.8900612661674608
0.016375806837198182,0.8900612661674608
0.016375806837198182,0.8904016337644656
0.016529490113042587,0.8904016337644656
0.016529490113042587,0.8907420013614704
0.01663194563027219,0.8907420013614704
0.01663194563027219,0.8910823689584751
0.01668317338888699,0.8910823689584751
0.01668317338888699,0.8917631041524847
0.016717325227963525,0.8917631041524847
0.016717325227963525,0.8921034717494895
0.01673440114750179,0.8921034717494895
0.01673440114750179,0.8924438393464942
0.016836856664731396,0.8924438393464942
0.016836856664731396,0.892784206943499
0.016905160342884463,0.892784206943499
0.016905160342884463,0.8934649421375085
0.016922236262422733,0.8934649421375085
0.016922236262422733,0.8938053097345132
0.017075919538267134,0.8938053097345132
0.017075919538267134,0.8941456773315181
0.017092995457805404,0.8941456773315181
0.017092995457805404,0.8944860449285228
0.017144223216420205,0.8944860449285228
0.017144223216420205,0.8948264125255275
0.017195450975035005,0.8948264125255275
0.017195450975035005,0.8951667801225324
0.017485741607185547,0.8951667801225324
0.017485741607185547,0.8955071477195371
0.017502817526723814,0.8955071477195371
0.017502817526723814,0.8958475153165418
0.017554045285338615,0.8958475153165418
0.017554045285338615,0.8961878829135467
0.017724804480721286,0.8961878829135467
0.017724804480721286,0.8968686181075561
0.01775895631979782,0.8968686181075561
0.01775895631979782,0.897208985704561
0.01782725999795089,0.897208985704561
0.01782725999795089,0.8978897208985704
0.01792971551518049,0.8978897208985704
0.01792971551518049,0.8982300884955752
0.017980943273795295,0.8982300884955752
0.017980943273795295,0.89857045609258
0.018083398791024895,0.89857045609258
0.018083398791024895,0.8989108236895847
0.018100474710563162,0.8989108236895847
0.018100474710563162,0.8995915588835943
0.018254157986407567,0.8995915588835943
0.018254157986407567,0.899931926480599
0.018271233905945834,0.899931926480599
0.018271233905945834,0.9002722940776038
0.01835661350363717,0.9002722940776038
0.01835661350363717,0.9006126616746086
0.018390765342713705,0.9006126616746086
0.018390765342713705,0.9009530292716134
0.018646904135787713,0.9009530292716134
0.018646904135787713,0.9012933968686181
0.01866398005532598,0.9012933968686181
0.01866398005532598,0.9016337644656228
0.018681055974864247,0.9016337644656228
0.018681055974864247,0.9019741320626277
0.01912502988285919,0.9019741320626277
0.01912502988285919,0.9023144996596324
0.01919333356101226,0.9023144996596324
0.01919333356101226,0.9026548672566371
0.019210409480550528,0.9026548672566371
0.019210409480550528,0.902995234853642
0.0193811686759332,0.902995234853642
0.0193811686759332,0.9036759700476514
0.019432396434548,0.9036759700476514
0.019432396434548,0.904356705241661
0.019466548273624536,0.904356705241661
0.019466548273624536,0.9046970728386657
0.019517776032239337,0.9046970728386657
0.019517776032239337,0.9050374404356705
0.019637307469007208,0.9050374404356705
0.019637307469007208,0.90571817562968
0.01996174994023428,0.90571817562968
0.01996174994023428,0.9060585432266848
0.020183736894231755,0.9060585432266848
0.020183736894231755,0.9063989108236896
0.020234964652846556,0.9063989108236896
0.020234964652846556,0.9070796460176991
0.02033742017007616,0.9070796460176991
0.02033742017007616,0.9074200136147039
0.020491103445920564,0.9074200136147039
0.020491103445920564,0.9077603812117087
0.02079846999760937,0.9077603812117087
0.02079846999760937,0.9084411164057182
0.02096922919299204,0.9084411164057182
0.02096922919299204,0.9091218515997277
0.02100338103206858,0.9091218515997277
0.02100338103206858,0.9098025867937373
0.021139988388374713,0.9098025867937373
0.021139988388374713,0.910142954390742
0.02122536798606605,0.910142954390742
0.02122536798606605,0.9104833219877467
0.021566886376831393,0.9104833219877467
0.021566886376831393,0.9108236895847516
0.021652265974522727,0.9108236895847516
0.021652265974522727,0.9111640571817563
0.021840101089443665,0.9111640571817563
0.021840101089443665,0.911504424778761
0.022079163962979407,0.911504424778761
0.022079163962979407,0.9118447923757659
0.02236945459512995,0.9118447923757659
0.02236945459512995,0.9121851599727706
0.022437758273283016,0.9121851599727706
0.022437758273283016,0.9125255275697753
0.022488986031897817,0.9125255275697753
0.022488986031897817,0.9128658951667801
0.022574365629589154,0.9128658951667801
0.022574365629589154,0.9132062627637849
0.022762200744510092,0.9132062627637849
0.022762200744510092,0.9135466303607896
0.023172022813428502,0.9135466303607896
0.023172022813428502,0.9138869979577944
0.02383798367542092,0.9138869979577944
0.02383798367542092,0.9142273655547992
0.023872135514497454,0.9142273655547992
0.023872135514497454,0.914567733151804
0.02397459103172706,0.914567733151804
0.02397459103172706,0.9149081007488087
0.024008742870803592,0.9149081007488087
0.024008742870803592,0.9152484683458135
0.02409412246849493,0.9152484683458135
0.02409412246849493,0.9155888359428183
0.024111198388033196,0.9155888359428183
0.024111198388033196,0.915929203539823
0.0242648816638776,0.915929203539823
0.0242648816638776,0.9162695711368277
0.0243673371811072,0.9162695711368277
0.0243673371811072,0.9166099387338326
0.024640551893719477,0.9166099387338326
0.024640551893719477,0.9169503063308373
0.024760083330487348,0.9169503063308373
0.024760083330487348,0.917290673927842
0.024828387008640415,0.917290673927842
0.024828387008640415,0.9176310415248469
0.02498207028448482,0.9176310415248469
0.02498207028448482,0.9179714091218516
0.025357740514326696,0.9179714091218516
0.025357740514326696,0.9183117767188563
0.025545575629247634,0.9183117767188563
0.025545575629247634,0.9186521443158612
0.02564803114647724,0.9186521443158612
0.02564803114647724,0.9189925119128659
0.02581879034185991,0.9189925119128659
0.02581879034185991,0.9193328795098706
0.025972473617704314,0.9193328795098706
0.025972473617704314,0.9196732471068755
0.026143232813086986,0.9196732471068755
0.026143232813086986,0.9200136147038802
0.026672586318773266,0.9200136147038802
0.026672586318773266,0.9203539823008849
0.026740889996926333,0.9203539823008849
0.026740889996926333,0.9210347174948945
0.026809193675079404,0.9210347174948945
0.026809193675079404,0.9213750850918992
0.027167787985383014,0.9213750850918992
0.027167787985383014,0.921715452688904
0.02730439534168915,0.921715452688904
0.02730439534168915,0.9220558202859088
0.027406850858918752,0.9220558202859088
0.027406850858918752,0.9227365554799183
0.027509306376148356,0.9227365554799183
0.027509306376148356,0.9230769230769231
0.027577610054301423,0.9230769230769231
0.027577610054301423,0.9234172906739279
0.02759468597383969,0.9234172906739279
0.02759468597383969,0.9237576582709326
0.027611761893377957,0.9237576582709326
0.027611761893377957,0.9240980258679373
0.027816672927837165,0.9240980258679373
0.027816672927837165,0.9244383934649422
0.028772924421980123,0.9244383934649422
0.028772924421980123,0.9247787610619469
0.028841228100133193,0.9247787610619469
0.028841228100133193,0.9251191286589516
0.02885830401967146,0.9251191286589516
0.02885830401967146,0.9254594962559565
0.02949011304258734,0.9254594962559565
0.02949011304258734,0.9257998638529612
0.029507188962125612,0.9257998638529612
0.029507188962125612,0.9261402314499659
0.02952426488166388,0.9261402314499659
0.02952426488166388,0.9264805990469708
0.029541340801202146,0.9264805990469708
0.029541340801202146,0.9268209666439755
0.02969502407704655,0.9268209666439755
0.02969502407704655,0.9271613342409802
0.029831631433352684,0.9271613342409802
0.029831631433352684,0.9278420694349898
0.02993408695058229,0.9278420694349898
0.02993408695058229,0.9281824370319945
0.030087770226426693,0.9281824370319945
0.030087770226426693,0.9285228046289993
0.03027560534134763,0.9285228046289993
0.03027560534134763,0.9292035398230089
0.030446364536730303,0.9292035398230089
0.030446364536730303,0.9295439074200136
0.031009869881493117,0.9295439074200136
0.031009869881493117,0.9298842750170184
0.031624602984870735,0.9298842750170184
0.031624602984870735,0.9302246426140232
0.032034425053789145,0.9302246426140232
0.032034425053789145,0.9305650102110279
0.03229056384686315,0.9305650102110279
0.03229056384686315,0.9309053778080327
0.03230763976640142,0.9309053778080327
0.03230763976640142,0.9312457454050375
0.032341791605477954,0.9312457454050375
0.032341791605477954,0.9315861130020422
0.032461323042245825,0.9315861130020422
0.032461323042245825,0.9319264805990469
0.03270038591578157,0.9319264805990469
0.03270038591578157,0.9322668481960518
0.0327345377548581,0.9322668481960518
0.0327345377548581,0.9326072157930565
0.03346880229500358,0.9326072157930565
0.03346880229500358,0.9329475833900612
0.0339298521225368,0.9329475833900612
0.0339298521225368,0.9332879509870661
0.03396400396161333,0.9332879509870661
0.03396400396161333,0.9336283185840708
0.03410061131791947,0.9336283185840708
0.03410061131791947,0.9339686861810755
0.034134763156996005,0.9339686861810755
0.034134763156996005,0.9343090537780804
0.03416891499607254,0.9343090537780804
0.03416891499607254,0.9346494213750851
0.034254294593763876,0.9346494213750851
0.034254294593763876,0.9349897889720898
0.03457873706499095,0.9349897889720898
0.03457873706499095,0.9353301565690946
0.03478364809945016,0.9353301565690946
0.03478364809945016,0.9356705241660994
0.0351251664902155,0.9356705241660994
0.0351251664902155,0.9360108917631041
0.0353300775246747,0.9360108917631041
0.0353300775246747,0.9363512593601089
0.035398381202827775,0.9363512593601089
0.035398381202827775,0.9366916269571137
0.03582527919128445,0.9366916269571137
0.03582527919128445,0.9370319945541185
0.03594481062805232,0.9370319945541185
0.03594481062805232,0.9373723621511232
0.0364229363751238,0.9373723621511232
0.0364229363751238,0.937712729748128
0.03666199924865954,0.937712729748128
0.03666199924865954,0.9380530973451328
0.03679860660496568,0.9380530973451328
0.03679860660496568,0.9383934649421375
0.03710597315665449,0.9383934649421375
0.03710597315665449,0.9387338325391422
0.03714012499573102,0.9387338325391422
0.03714012499573102,0.9390742001361471
0.03722550459342235,0.9390742001361471
0.03722550459342235,0.9394145677331518
0.037464567466958094,0.9394145677331518
0.037464567466958094,0.9397549353301565
0.03775485809910864,0.9397549353301565
0.03775485809910864,0.9400953029271614
0.03835251528294799,0.9400953029271614
0.03835251528294799,0.9404356705241661
0.03859157815648372,0.9404356705241661
0.03859157815648372,0.9407760381211708
0.03869403367371333,0.9407760381211708
0.03869403367371333,0.9411164057181757
0.038728185512789864,0.9411164057181757
0.038728185512789864,0.9414567733151804
0.03874526143232813,0.9414567733151804
0.03874526143232813,0.9417971409121851
0.0388135651104812,0.9417971409121851
0.0388135651104812,0.94213750850919
0.03983812028277723,0.94213750850919
0.03983812028277723,0.9424778761061947
0.04055530890338445,0.9424778761061947
0.04055530890338445,0.9428182437031994
0.04057238482292271,0.9428182437031994
0.04057238482292271,0.9431586113002042
0.040606536661999246,0.9431586113002042
0.040606536661999246,0.943498978897209
0.04072606809876712,0.943498978897209
0.04072606809876712,0.9438393464942137
0.041033434650455926,0.9438393464942137
0.041033434650455926,0.9441797140912185
0.0411529660872238,0.9441797140912185
0.0411529660872238,0.9445200816882233
0.041340801202144735,0.9445200816882233
0.041340801202144735,0.944860449285228
0.04161401591475701,0.944860449285228
0.04161401591475701,0.9452008168822328
0.042297052696287696,0.9452008168822328
0.042297052696287696,0.9455411844792376
0.04304839315597145,0.9455411844792376
0.04304839315597145,0.9458815520762424
0.043424063385813325,0.9458815520762424
0.043424063385813325,0.9462219196732471
0.04349236706396639,0.9462219196732471
0.04349236706396639,0.9465622872702518
0.043646050339810796,0.9465622872702518
0.043646050339810796,0.9469026548672567
0.04378265769611694,0.9469026548672567
0.04378265769611694,0.9472430224642614
0.043850961374270005,0.9472430224642614
0.043850961374270005,0.9475833900612661
0.044380314879956285,0.9475833900612661
0.044380314879956285,0.947923757658271
0.044482770397185886,0.947923757658271
0.044482770397185886,0.9482641252552757
0.044585225914415494,0.9482641252552757
0.044585225914415494,0.9486044928522804
0.0448925924661043,0.9486044928522804
0.0448925924661043,0.9489448604492853
0.04506335166148697,0.9489448604492853
0.04506335166148697,0.94928522804629
0.04559270516717325,0.94928522804629
0.04559270516717325,0.9496255956432947
0.04566100884532632,0.9496255956432947
0.04566100884532632,0.9499659632402995
0.04581469212117072,0.9499659632402995
0.04581469212117072,0.9503063308373043
0.04620743827055087,0.9503063308373043
0.04620743827055087,0.950646698434309
0.04630989378778047,0.950646698434309
0.04630989378778047,0.9513274336283186
0.046463577063624875,0.9513274336283186
0.04649772890270141,0.9513274336283186
0.046566032580854476,0.9513274336283186
0.046566032580854476,0.9516678012253234
0.04711246200607903,0.9516678012253234
0.04711246200607903,0.9520081688223281
0.04714661384515556,0.9520081688223281
0.04714661384515556,0.9523485364193329
0.0472832212014617,0.9523485364193329
0.0472832212014617,0.9526889040163377
0.047419828557767836,0.9526889040163377
0.047419828557767836,0.9530292716133424
0.047436904477306106,0.9530292716133424
0.047436904477306106,0.9533696392103471
0.04794918206345412,0.9533696392103471
0.04794918206345412,0.953710006807352
0.04808578941976025,0.953710006807352
0.04808578941976025,0.9540503744043567
0.04858099108637,0.9540503744043567
0.04858099108637,0.9543907420013614
0.05008367200573751,0.9543907420013614
0.05008367200573751,0.9547311095983663
0.05382329838461801,0.9547311095983663
0.05382329838461801,0.955071477195371
0.054506335166148695,0.955071477195371
0.054506335166148695,0.9554118447923757
0.05508691643044978,0.9554118447923757
0.05508691643044978,0.9557522123893806
0.055223523786755914,0.9557522123893806
0.055223523786755914,0.9560925799863853
0.05582118097059527,0.9560925799863853
0.05582118097059527,0.95643294758339
0.056060243844131004,0.95643294758339
0.056060243844131004,0.9567733151803949
0.05739216556811584,0.9567733151803949
0.05739216556811584,0.9571136827773996
0.058707011372562415,0.9571136827773996
0.058707011372562415,0.9574540503744043
0.05903145384378949,0.9574540503744043
0.05903145384378949,0.9577944179714091
0.0593900481540931,0.9577944179714091
0.0593900481540931,0.9581347855684139
0.05956080734947577,0.9581347855684139
0.05956080734947577,0.9584751531654186
0.05971449062532017,0.9584751531654186
0.05971449062532017,0.9588155207624234
0.060363375567774324,0.9588155207624234
0.060363375567774324,0.9591558883594282
0.060482907004542195,0.9591558883594282
0.060482907004542195,0.959496255956433
0.060670742119463134,0.959496255956433
0.060670742119463134,0.9598366235534377
0.06292476349851439,0.9598366235534377
0.06292476349851439,0.9601769911504425
0.06301014309620573,0.9601769911504425
0.06301014309620573,0.9605173587474473
0.0653153922338718,0.9605173587474473
0.0653153922338718,0.960857726344452
0.06534954407294832,0.960857726344452
0.06534954407294832,0.9611980939414567
0.06570813838325194,0.9611980939414567
0.06570813838325194,0.9615384615384616
0.06601550493494075,0.9615384615384616
0.06601550493494075,0.9618788291354663
0.06698883234862198,0.9618788291354663
0.06698883234862198,0.962219196732471
0.06707421194631331,0.962219196732471
0.06707421194631331,0.9625595643294759
0.06710836378538984,0.9625595643294759
0.06710836378538984,0.9628999319264806
0.06823537447491547,0.9628999319264806
0.06823537447491547,0.9632402995234853
0.0690550186127523,0.9632402995234853
0.0690550186127523,0.9635806671204902
0.07156517878487756,0.9635806671204902
0.07156517878487756,0.9639210347174949
0.07340937809501041,0.9639210347174949
0.07340937809501041,0.9642614023144996
0.07387042792254363,0.9642614023144996
0.07387042792254363,0.9646017699115044
0.0741948703937707,0.9646017699115044
0.0741948703937707,0.9649421375085092
0.07477545165807178,0.9649421375085092
0.07477545165807178,0.9652825051055139
0.0764318158532837,0.9652825051055139
0.0764318158532837,0.9656228727025187
0.07720023223250572,0.9656228727025187
0.07720023223250572,0.9659632402995235
0.07778081349680681,0.9659632402995235
0.07778081349680681,0.9663036078965282
0.07824186332434002,0.9663036078965282
0.07824186332434002,0.966643975493533
0.07848092619787575,0.966643975493533
0.07848092619787575,0.9669843430905378
0.07875414091048803,0.9669843430905378
0.07875414091048803,0.9673247106875426
0.07933472217478911,0.9673247106875426
0.07933472217478911,0.9676650782845473
0.08020559407124074,0.9676650782845473
0.08020559407124074,0.9680054458815521
0.08114476964584542,0.9680054458815521
0.08114476964584542,0.9683458134785569
0.08133260476076637,0.9683458134785569
0.08133260476076637,0.9686861810755616
0.0813667565998429,0.9686861810755616
0.0813667565998429,0.9690265486725663
0.08280113384105735,0.9690265486725663
0.08280113384105735,0.9693669162695712
0.08326218366859055,0.9693669162695712
0.08326218366859055,0.9697072838665759
0.08449164987534578,0.9697072838665759
0.08449164987534578,0.9700476514635806
0.08462825723165192,0.9700476514635806
0.08462825723165192,0.9703880190605855
0.08788975786346094,0.9703880190605855
0.08788975786346094,0.9707283866575902
0.08802636521976709,0.9707283866575902
0.08802636521976709,0.9710687542545949
0.08814589665653495,0.9710687542545949
0.08814589665653495,0.9714091218515998
0.09038284211604795,0.9714091218515998
0.09038284211604795,0.9717494894486045
0.09104880297804037,0.9717494894486045
0.09104880297804037,0.9720898570456092
0.09244902838017827,0.9720898570456092
0.09244902838017827,0.972430224642614
0.09291007820771148,0.972430224642614
0.09291007820771148,0.9727705922396188
0.09473720159830606,0.9727705922396188
0.09473720159830606,0.9731109598366235
0.0967521601038216,0.9731109598366235
0.0967521601038216,0.9734513274336283
0.09900618148287285,0.9734513274336283
0.09900618148287285,0.9737916950306331
0.09929647211502339,0.9737916950306331
0.09929647211502339,0.9741320626276379
0.10047471056316383,0.9741320626276379
0.10047471056316383,0.9744724302246426
0.10289949113759776,0.9744724302246426
0.10289949113759776,0.9748127978216474
0.104128957344353,0.9748127978216474
0.104128957344353,0.9751531654186522
0.10494860148218982,0.9751531654186522
0.10498275332126634,0.9751531654186522
0.10739045797616202,0.9751531654186522
0.10739045797616202,0.9754935330156569
0.10744168573477682,0.9754935330156569
0.10744168573477682,0.9758339006126616
0.11263276527441003,0.9758339006126616
0.11263276527441003,0.9761742682096665
0.11331580205594072,0.9761742682096665
0.11331580205594072,0.9765146358066712
0.11358901676855299,0.9765146358066712
0.11358901676855299,0.9768550034036759
0.11782384481404323,0.9768550034036759
0.11782384481404323,0.9771953710006808
0.1204876882620129,0.9771953710006808
0.1204876882620129,0.9775357385976855
0.12093166217000785,0.9775357385976855
0.12093166217000785,0.9778761061946902
0.12255387452614323,0.9778761061946902
0.12255387452614323,0.9782164737916951
0.12398825176735767,0.9782164737916951
0.12398825176735767,0.9785568413886998
0.1262081213073324,0.9785568413886998
0.1262081213073324,0.9788972089857045
0.12627642498548547,0.9788972089857045
0.12627642498548547,0.9792375765827094
0.1290085721116082,0.9792375765827094
0.12904272395068475,0.9792375765827094
0.12975991257129196,0.9792375765827094
0.12975991257129196,0.9795779441797141
0.12991359584713638,0.9795779441797141
0.12991359584713638,0.9799183117767188
0.1317748710768075,0.9799183117767188
0.1317748710768075,0.9802586793737236
0.13235545234110857,0.9802586793737236
0.13235545234110857,0.9805990469707284
0.13558280113384105,0.9805990469707284
0.13558280113384105,0.9809394145677331
0.13653905262798402,0.9809394145677331
0.13653905262798402,0.9812797821647379
0.1366927359038284,0.9812797821647379
0.13672688774290495,0.9812797821647379
0.13674396366244324,0.9812797821647379
0.13674396366244324,0.9816201497617427
0.1386223148116526,0.9816201497617427
0.1386223148116526,0.9819605173587475
0.14053481779993854,0.9819605173587475
0.14053481779993854,0.9823008849557522
0.14495748096034972,0.9823008849557522
0.14495748096034972,0.982641252552757
0.1466309210750999,0.982641252552757
0.1466309210750999,0.9829816201497618
0.14762132440831938,0.9829816201497618
0.14762132440831938,0.9833219877467665
0.14789453912093167,0.9833219877467665
0.14789453912093167,0.9836623553437712
0.14898739797138075,0.9836623553437712
0.14898739797138075,0.9840027229407761
0.14987534578737066,0.9840027229407761
0.14990949762644717,0.9840027229407761
0.1517195450975035,0.9840027229407761
0.1517195450975035,0.9843430905377808
0.1517707728561183,0.9843430905377808
0.1517707728561183,0.9846834581347855
0.15207813940780712,0.9846834581347855
0.15207813940780712,0.9850238257317904
0.15252211331580207,0.9850238257317904
0.15252211331580207,0.9853641933287951
0.153478364809945,0.9853641933287951
0.153478364809945,0.9857045609257998
0.15366619992486596,0.9857045609257998
0.15366619992486596,0.9860449285228047
0.15885727946449915,0.9860449285228047
0.15885727946449915,0.9863852961198094
0.15936955705064718,0.9863852961198094
0.15936955705064718,0.9867256637168141
0.16097469348724427,0.9867256637168141
0.16097469348724427,0.9870660313138189
0.16119668044124177,0.9870660313138189
0.16119668044124177,0.9874063989108237
0.16201632457907858,0.9874063989108237
0.16201632457907858,0.9877467665078284
0.16406543492367065,0.9877467665078284
0.16406543492367065,0.9880871341048332
0.16691711348656124,0.9880871341048332
0.16691711348656124,0.988427501701838
0.17188620607219698,0.988427501701838
0.17188620607219698,0.9887678692988427
0.17371332946279158,0.9887678692988427
0.17371332946279158,0.9891082368958475
0.17480618831324066,0.9891082368958475
0.1748403401523172,0.9891082368958475
0.17740172808305726,0.9891082368958475
0.17740172808305726,0.9894486044928523
0.18030463440456268,0.9894486044928523
0.18030463440456268,0.989788972089857
0.18042416584133056,0.989788972089857
0.18042416584133056,0.9901293396868618
0.1868959393463338,0.9901293396868618
0.1868959393463338,0.9904697072838666
0.18817663331170384,0.9904697072838666
0.18817663331170384,0.9908100748808714
0.1972439465865237,0.9908100748808714
0.1972439465865237,0.9911504424778761
0.20016392882756737,0.9911504424778761
0.2001980806666439,0.9911504424778761
0.2105290119872955,0.9911504424778761
0.2105290119872955,0.9914908100748808
0.2140808032512551,0.9914908100748808
0.2140808032512551,0.9918311776718857
0.21855469417028106,0.9918311776718857
0.2185888460093576,0.9918311776718857
0.23091765991598648,0.9918311776718857
0.23091765991598648,0.9921715452688904
0.23434991974317818,0.9921715452688904
0.23438407158225472,0.9921715452688904
0.23648440968546156,0.9921715452688904
0.2365185615245381,0.9921715452688904
0.23675762439807382,0.9921715452688904
0.23675762439807382,0.9925119128658951
0.23861889962774496,0.9925119128658951
0.23861889962774496,0.9928522804629
0.24075338957002834,0.9928522804629
0.24078754140910488,0.9928522804629
0.24539803968443702,0.9928522804629
0.24539803968443702,0.9931926480599047
0.24548341928212833,0.9931926480599047
0.24548341928212833,0.9935330156569094
0.26216659267101533,0.9935330156569094
0.26216659267101533,0.9938733832539143
0.2718486390492128,0.9938733832539143
0.2718486390492128,0.994213750850919
0.2767152761176189,0.994213750850919
0.2767152761176189,0.9945541184479237
0.27729585738192003,0.9945541184479237
0.27729585738192003,0.9948944860449285
0.2828626071513951,0.9948944860449285
0.2828626071513951,0.9952348536419333
0.29145179467914345,0.9952348536419333
0.29148594651822,0.9952348536419333
0.2920836037020594,0.9952348536419333
0.2921177555411359,0.9952348536419333
0.30272190157439977,0.9952348536419333
0.30272190157439977,0.995575221238938
0.3049246951948362,0.995575221238938
0.3049246951948362,0.9959155888359428
0.3065639834705099,0.9959155888359428
0.3065639834705099,0.9962559564329476
0.3130016051364366,0.9962559564329476
0.3130016051364366,0.9965963240299524
0.31494825996379905,0.9965963240299524
0.31498241180287556,0.9965963240299524
0.32563778559475426,0.9965963240299524
0.3256719374338308,0.9965963240299524
0.3301287524333185,0.9965963240299524
0.3301629042723951,0.9965963240299524
0.34247464225948565,0.9965963240299524
0.3425087940985622,0.9965963240299524
0.34440422116730984,0.9965963240299524
0.3444383730063864,0.9965963240299524
0.34939038967248387,0.9965963240299524
0.3494245415115604,0.9965963240299524
0.3648440968546156,0.9965963240299524
0.3648782486936922,0.9965963240299524
0.37718998668078274,0.9965963240299524
0.3772241385198593,0.9965963240299524
0.37724121443939757,0.9965963240299524
0.3772753662784741,0.9965963240299524
0.377394897715242,0.9965963240299524
0.3774290495543185,0.9965963240299524
0.38610361667975823,0.9965963240299524
0.38613776851883475,0.9965963240299524
0.38989447081725354,0.9965963240299524
0.38989447081725354,0.9969366916269571
0.3922338717939961,0.9969366916269571
0.3922680236330726,0.9969366916269571
0.3951538540350398,0.9969366916269571
0.39518800587411634,0.9969366916269571
0.39882517673576723,0.9969366916269571
0.39882517673576723,0.9972770592239619
0.40036200949421125,0.9972770592239619
0.4003961613332878,0.9972770592239619
0.40160855162050474,0.9972770592239619
0.4016427034595813,0.9972770592239619
0.4022574365629589,0.9972770592239619
0.40229158840203544,0.9972770592239619
0.4025648031146477,0.9972770592239619
0.4025989549537243,0.9972770592239619
0.4109320036883986,0.9972770592239619
0.4109661555274752,0.9972770592239619
0.419265052423073,0.9972770592239619
0.4192992042621495,0.9972770592239619
0.4241658413305556,0.9972770592239619
0.4241999931696322,0.9972770592239619
0.42643693862914517,0.9972770592239619
0.42643693862914517,0.9976174268209667
0.42676138110037226,0.9976174268209667
0.4267955329394488,0.9976174268209667
0.42836651753696936,0.9976174268209667
0.4284006693760459,0.9976174268209667
0.43202076431815856,0.9976174268209667
0.43205491615723507,0.9976174268209667
0.43647757931764625,0.9976174268209667
0.4365117311567228,0.9976174268209667
0.4504456814999488,0.9976174268209667
0.4504798333390253,0.9976174268209667
0.458385984085243,0.9976174268209667
0.4584201359243195,0.9976174268209667
0.46151087736074586,0.9976174268209667
0.46151087736074586,0.9979577944179714
0.4690413578771217,0.9979577944179714
0.4690755097161982,0.9979577944179714
0.46938287626788705,0.9979577944179714
0.46941702810696356,0.9979577944179714
0.47066357023325706,0.9979577944179714
0.47069772207233357,0.9979577944179714
0.48302653597896245,0.9979577944179714
0.483060687818039,0.9979577944179714
0.48370957276049314,0.9979577944179714
0.48370957276049314,0.9982981620149761
0.494501553908678,0.9982981620149761
0.4945357057477545,0.9982981620149761
0.494757692701752,0.9982981620149761
0.49479184454082853,0.9982981620149761
0.49723370103480075,0.9982981620149761
0.49726785287387726,0.9982981620149761
0.4994706464943137,0.9982981620149761
0.49950479833339023,0.9982981620149761
0.5009562514941429,0.9982981620149761
0.5009904033332195,0.9982981620149761
0.5083159728151361,0.9982981620149761
0.5083501246542126,0.9982981620149761
0.5141047095386087,0.9982981620149761
0.5141388613776852,0.9982981620149761
0.5206960144803797,0.9982981620149761
0.5207301663194563,0.9982981620149761
0.5225572897100509,0.9982981620149761
0.5225914415491274,0.9982981620149761
0.5249137666063317,0.9982981620149761
0.5249479184454083,0.9982981620149761
0.5253065127557119,0.9982981620149761
0.5253406645947885,0.9982981620149761
0.5276629896519928,0.9982981620149761
0.5276629896519928,0.998638529611981
0.5280898876404494,0.998638529611981
0.528124039479526,0.998638529611981
0.5297974795942761,0.998638529611981
0.5298316314333527,0.998638529611981
0.5346811925822206,0.998638529611981
0.5347153444212971,0.998638529611981
0.5367986066049657,0.998638529611981
0.5368327584440422,0.998638529611981
0.5395990574092415,0.998638529611981
0.539633209248318,0.998638529611981
0.5463269697073188,0.998638529611981
0.5463611215463953,0.998638529611981
0.5583142652231823,0.998638529611981
0.5583484170622588,0.998638529611981
0.5594412759127079,0.998638529611981
0.5594754277517844,0.998638529611981
0.571531026945801,0.998638529611981
0.5715651787848776,0.998638529611981
0.5861821659096342,0.998638529611981
0.5862163177487107,0.998638529611981
0.5942419999316964,0.998638529611981
0.5942761517707729,0.998638529611981
0.5956763771729108,0.998638529611981
0.5957105290119873,0.998638529611981
0.5963081861958266,0.998638529611981
0.5963423380349032,0.998638529611981
0.5982206891841125,0.998638529611981
0.598254841023189,0.998638529611981
0.6179433762508111,0.998638529611981
0.6179775280898876,0.998638529611981
0.6222977357330692,0.998638529611981
0.6223318875721457,0.998638529611981
0.6269082340084013,0.998638529611981
0.6269423858474779,0.998638529611981
0.6280010928588504,0.998638529611981
0.6280352446979269,0.998638529611981
0.6294696219391415,0.998638529611981
0.629503773778218,0.998638529611981
0.6311259861343533,0.998638529611981
0.6311601379734298,0.998638529611981
0.6367439636624432,0.998638529611981
0.6367781155015197,0.998638529611981
0.6392028960759537,0.998638529611981
0.6392028960759537,0.9989788972089857
0.6393395034322599,0.9989788972089857
0.6393736552713364,0.9989788972089857
0.6492435367644548,0.9989788972089857
0.6492776886035313,0.9989788972089857
0.654246781189167,0.9989788972089857
0.6542809330282435,0.9989788972089857
0.6648509272224309,0.9989788972089857
0.6648509272224309,0.9993192648059904
0.6698541716471432,0.9993192648059904
0.6698883234862197,0.9993192648059904
0.6780847648645879,0.9993192648059904
0.6781189167036645,0.9993192648059904
0.684095488542058,0.9993192648059904
0.6841296403811346,0.9993192648059904
0.6925139168744237,0.9993192648059904
0.6925480687135003,0.9993192648059904
0.7041596939995218,0.9993192648059904
0.7041938458385985,0.9993192648059904
0.7222943205491615,0.9993192648059904
0.722328472388238,0.9993192648059904
0.7300467880195348,0.9993192648059904
0.7300809398586113,0.9993192648059904
0.7355110822717803,0.9993192648059904
0.7355452341108568,0.9993192648059904
0.7382944571565179,0.9993192648059904
0.7383286089955944,0.9993192648059904
0.7394556196851201,0.9993192648059904
0.7394897715241966,0.9993192648059904
0.7420853112940132,0.9993192648059904
0.7421194631330897,0.9993192648059904
0.7461493801441208,0.9993192648059904
0.7461835319831973,0.9993192648059904
0.748215566408251,0.9993192648059904
0.7482497182473277,0.9993192648059904
0.7543799733615655,0.9993192648059904
0.7544141252006421,0.9993192648059904
0.7649841193948295,0.9993192648059904
0.765018271233906,0.9993192648059904
0.7664526484751204,0.9993192648059904
0.7664868003141969,0.9993192648059904
0.7713875892216796,0.9993192648059904
0.7714217410607561,0.9993192648059904
0.7883439773231788,0.9993192648059904
0.7883781291622554,0.9993192648059904
0.8006386393907312,0.9993192648059904
0.8006727912298077,0.9993192648059904
0.8074690072060381,0.9993192648059904
0.8075031590451146,0.9993192648059904
0.8165021686417814,0.9993192648059904
0.8165363204808579,0.9993192648059904
0.8187391141012944,0.9993192648059904
0.8187732659403709,0.9993192648059904
0.8256036337556777,0.9993192648059904
0.8256377855947543,0.9993192648059904
0.8298213858816297,0.9993192648059904
0.8298555377207063,0.9993192648059904
0.8379836754209214,0.9993192648059904
0.838017827259998,0.9993192648059904
0.841535466684881,0.9993192648059904
0.8415696185239575,0.9993192648059904
0.8465728629486697,0.9993192648059904
0.8466070147877464,0.9993192648059904
0.8603189781769748,0.9993192648059904
0.8603531300160514,0.9993192648059904
0.865697892831529,0.9993192648059904
0.8657320446706055,0.9993192648059904
0.8682763566818074,0.9993192648059904
0.8683105085208839,0.9993192648059904
0.8958198148970322,0.9993192648059904
0.8958198148970322,0.9996596324029953
0.901625627540043,0.9996596324029953
0.9016597793791196,0.9996596324029953
0.903025852942181,0.9996596324029953
0.9030600047812575,0.9996596324029953
0.911341825757317,0.9996596324029953
0.9113759775963935,0.9996596324029953
0.9171647143198661,0.9996596324029953
0.9171647143198661,1.0
0.9422663160411188,1.0
0.9423004678801954,1.0
0.9740616782213722,1.0
0.9740958300604488,1.0
1.0,1.0
