fpr,tpr
0.0,0.0
1.7075919538267136e-05,0.0
3.415183907653427e-05,0.0
3.415183907653427e-05,0.1024506466984343
3.415183907653427e-05,0.10313138189244384
3.415183907653427e-05,0.12661674608577264
3.415183907653427e-05,0.12729748127978216
3.415183907653427e-05,0.12968005445881553
5.1227758614801405e-05,0.12968005445881553
5.1227758614801405e-05,0.13682777399591559
6.830367815306854e-05,0.13682777399591559
6.830367815306854e-05,0.2916950306330837
8.537959769133568e-05,0.2916950306330837
8.537959769133568e-05,0.30905377808032675
0.00010245551722960281,0.30905377808032675
0.00010245551722960281,0.314499659632403
0.00011953143676786995,0.314499659632403
0.00011953143676786995,0.3410483321987747
0.0001366073563061371,0.3410483321987747
0.0001366073563061371,0.37950987066031316
0.00015368327584440423,0.37950987066031316
0.00015368327584440423,0.4336283185840708
0.00017075919538267137,0.4336283185840708
0.00017075919538267137,0.4407760381211709
0.00018783511492093848,0.4407760381211709
0.00018783511492093848,0.44588155207624236
0.00020491103445920562,0.44588155207624236
0.00020491103445920562,0.45371000680735196
0.00022198695399747276,0.45371000680735196
0.00022198695399747276,0.4560925799863853
0.0002390628735357399,0.4560925799863853
0.0002390628735357399,0.45745405037440434
0.000256138793074007,0.45745405037440434
0.000256138793074007,0.45779441797140913
0.0002732147126122742,0.45779441797140913
0.0002732147126122742,0.476855003403676
0.0002902906321505413,0.476855003403676
0.0002902906321505413,0.4911504424778761
0.00030736655168880846,0.4911504424778761
0.00030736655168880846,0.5
0.00032444247122707557,0.5
0.00032444247122707557,0.5119128658951668
0.00034151839076534274,0.5119128658951668
0.00034151839076534274,0.5241660993873384
0.00035859431030360985,0.5241660993873384
0.00035859431030360985,0.5473110959836623
0.00037567022984187696,0.5473110959836623
0.00037567022984187696,0.5541184479237576
0.00039274614938014413,0.5541184479237576
0.00039274614938014413,0.5558202859087815
0.00040982206891841124,0.5558202859087815
0.00040982206891841124,0.5588835942818243
0.0004268979884566784,0.5588835942818243
0.0004268979884566784,0.5612661674608578
0.0004610498275332127,0.5612661674608578
0.0004610498275332127,0.5660313138189245
0.0004952016666097469,0.5660313138189245
0.0004952016666097469,0.5687542545949625
0.000512277586148014,0.5687542545949625
0.000512277586148014,0.5704560925799864
0.0005293535056862812,0.5704560925799864
0.0005293535056862812,0.5742001361470388
0.0005464294252245484,0.5742001361470388
0.0005464294252245484,0.5755616065350578
0.0005635053447628155,0.5755616065350578
0.0005635053447628155,0.5772634445200817
0.0005805812643010826,0.5772634445200817
0.0005805812643010826,0.5779441797140912
0.0005976571838393497,0.5779441797140912
0.0005976571838393497,0.5786249149081008
0.0006147331033776169,0.5786249149081008
0.0006147331033776169,0.5793056501021103
0.000631809022915884,0.5793056501021103
0.000631809022915884,0.5820285908781484
0.0006488849424541511,0.5820285908781484
0.0006488849424541511,0.5830496936691627
0.0006659608619924183,0.5830496936691627
0.0006659608619924183,0.5837304288631723
0.0006830367815306855,0.5837304288631723
0.0006830367815306855,0.5864533696392104
0.0007001127010689526,0.5864533696392104
0.0007001127010689526,0.5871341048332199
0.0007171886206072197,0.5871341048332199
0.0007171886206072197,0.5922396187882913
0.0007342645401454868,0.5922396187882913
0.0007342645401454868,0.5939414567733152
0.0007513404596837539,0.5939414567733152
0.0007513404596837539,0.5949625595643295
0.0007684163792220211,0.5949625595643295
0.0007684163792220211,0.5959836623553437
0.0007854922987602883,0.5959836623553437
0.0007854922987602883,0.5966643975493533
0.0008196441378368225,0.5966643975493533
0.0008196441378368225,0.5993873383253914
0.0008367200573750896,0.5993873383253914
0.0008367200573750896,0.60142954390742
0.0008537959769133568,0.60142954390742
0.0008537959769133568,0.6034717494894486
0.0008708718964516239,0.6034717494894486
0.0008708718964516239,0.6109598366235535
0.000887947815989891,0.6109598366235535
0.000887947815989891,0.6113002042205582
0.0009050237355281582,0.6113002042205582
0.0009050237355281582,0.6147038801906058
0.0009220996550664254,0.6147038801906058
0.0009220996550664254,0.6153846153846154
0.0009391755746046925,0.6153846153846154
0.0009391755746046925,0.6164057181756297
0.0009562514941429596,0.6164057181756297
0.0009562514941429596,0.6218515997277059
0.0009904033332194938,0.6218515997277059
0.0009904033332194938,0.6252552756977535
0.001007479252757761,0.6252552756977535
0.001007479252757761,0.627637848876787
0.001024555172296028,0.627637848876787
0.001024555172296028,0.6286589516678013
0.0010416310918342953,0.6286589516678013
0.0010416310918342953,0.6293396868618107
0.0010587070113725625,0.6293396868618107
0.0010587070113725625,0.6310415248468346
0.0010757829309108295,0.6310415248468346
0.0010757829309108295,0.6313818924438394
0.0010928588504490967,0.6313818924438394
0.0010928588504490967,0.6320626276378489
0.0011099347699873637,0.6320626276378489
0.0011099347699873637,0.6341048332198774
0.001127010689525631,0.6341048332198774
0.001127010689525631,0.6354663036078966
0.0011440866090638982,0.6354663036078966
0.0011440866090638982,0.6385296119809394
0.0011611625286021652,0.6385296119809394
0.0011611625286021652,0.6388699795779442
0.0011953143676786994,0.6388699795779442
0.0011953143676786994,0.639210347174949
0.0012465421262935008,0.639210347174949
0.0012465421262935008,0.6409121851599727
0.001263618045831768,0.6409121851599727
0.001263618045831768,0.6412525527569776
0.0012806939653700353,0.6412525527569776
0.0012806939653700353,0.6436351259360109
0.0012977698849083023,0.6436351259360109
0.0012977698849083023,0.6470388019060586
0.0013148458044465695,0.6470388019060586
0.0013148458044465695,0.6480599046970729
0.0013319217239848365,0.6480599046970729
0.0013319217239848365,0.6487406398910823
0.001366073563061371,0.6487406398910823
0.001366073563061371,0.6490810074880872
0.001383149482599638,0.6490810074880872
0.001383149482599638,0.6507828454731109
0.0014002254021379052,0.6507828454731109
0.0014002254021379052,0.6518039482641252
0.0014173013216761722,0.6518039482641252
0.0014173013216761722,0.6535057862491491
0.0014343772412144394,0.6535057862491491
0.0014343772412144394,0.6541865214431586
0.0014514531607527066,0.6541865214431586
0.0014514531607527066,0.6555479918311776
0.0014685290802909736,0.6555479918311776
0.0014685290802909736,0.6558883594281825
0.0015026809193675078,0.6558883594281825
0.0015026809193675078,0.6572498298162015
0.001519756838905775,0.6572498298162015
0.001519756838905775,0.6623553437712729
0.0015368327584440423,0.6623553437712729
0.0015368327584440423,0.6664397549353301
0.0015539086779823093,0.6664397549353301
0.0015539086779823093,0.6667801225323349
0.0015880605170588435,0.6667801225323349
0.0015880605170588435,0.6671204901293397
0.0016051364365971107,0.6671204901293397
0.0016051364365971107,0.6684819605173588
0.001639288275673645,0.6684819605173588
0.001639288275673645,0.6688223281143635
0.0016563641952119122,0.6688223281143635
0.0016563641952119122,0.6695030633083731
0.0016734401147501792,0.6695030633083731
0.0016734401147501792,0.6698434309053778
0.0017075919538267136,0.6698434309053778
0.0017075919538267136,0.6705241660993874
0.0017246678733649806,0.6705241660993874
0.0017246678733649806,0.6712049012933968
0.001758819712441515,0.6712049012933968
0.001758819712441515,0.6722260040844111
0.001775895631979782,0.6722260040844111
0.001775895631979782,0.672566371681416
0.0018100474710563163,0.672566371681416
0.0018100474710563163,0.673927842069435
0.0018271233905945835,0.673927842069435
0.0018271233905945835,0.675289312457454
0.0018441993101328507,0.675289312457454
0.0018441993101328507,0.6756296800544588
0.0018612752296711178,0.6756296800544588
0.0018612752296711178,0.6766507828454731
0.001878351149209385,0.6766507828454731
0.001878351149209385,0.6793737236215113
0.0019125029882859192,0.6793737236215113
0.0019125029882859192,0.6800544588155207
0.0019466548273624534,0.6800544588155207
0.0019466548273624534,0.6803948264125256
0.0019637307469007204,0.6803948264125256
0.0019637307469007204,0.6814159292035398
0.0019808066664389876,0.6814159292035398
0.0019808066664389876,0.686861810755616
0.002014958505515522,0.686861810755616
0.002014958505515522,0.6875425459496256
0.0020320344250537893,0.6875425459496256
0.0020320344250537893,0.6885636487406399
0.0020661862641303233,0.6885636487406399
0.0020661862641303233,0.6906058543226685
0.0021344899422833918,0.6906058543226685
0.0021344899422833918,0.6909462219196733
0.002151565861821659,0.6909462219196733
0.002151565861821659,0.6933287950987066
0.002168641781359926,0.6933287950987066
0.002168641781359926,0.6940095302927162
0.0022027936204364607,0.6940095302927162
0.0022027936204364607,0.6957113682777399
0.002254021379051262,0.6957113682777399
0.002254021379051262,0.697072838665759
0.002271097298589529,0.697072838665759
0.002271097298589529,0.6980939414567733
0.0023223250572043303,0.6980939414567733
0.0023223250572043303,0.6984343090537781
0.0023394009767425976,0.6984343090537781
0.0023394009767425976,0.7004765146358066
0.002407704654895666,0.7004765146358066
0.002407704654895666,0.7008168822328115
0.0024247805744339332,0.7008168822328115
0.0024247805744339332,0.7021783526208305
0.0024589324135104677,0.7021783526208305
0.0024589324135104677,0.7042205582028591
0.0024930842525870017,0.7042205582028591
0.0024930842525870017,0.7055820285908782
0.002510160172125269,0.7055820285908782
0.002510160172125269,0.7062627637848877
0.002527236091663536,0.7062627637848877
0.002527236091663536,0.7072838665759019
0.0025443120112018033,0.7072838665759019
0.0025443120112018033,0.7083049693669162
0.0025613879307400706,0.7083049693669162
0.0025613879307400706,0.7110279101429544
0.0025784638502783373,0.7110279101429544
0.0025784638502783373,0.7117086453369639
0.0025955397698166046,0.7117086453369639
0.0025955397698166046,0.7120490129339687
0.0026467675284314062,0.7120490129339687
0.0026467675284314062,0.7123893805309734
0.002663843447969673,0.7123893805309734
0.002663843447969673,0.7151123213070115
0.0026809193675079402,0.7151123213070115
0.0026809193675079402,0.7154526889040164
0.0027150712065844747,0.7154526889040164
0.0027150712065844747,0.7161334240980258
0.002732147126122742,0.7161334240980258
0.002732147126122742,0.7171545268890401
0.002766298965199276,0.7171545268890401
0.002766298965199276,0.717494894486045
0.002783374884737543,0.717494894486045
0.002783374884737543,0.7178352620830497
0.0028004508042758103,0.7178352620830497
0.0028004508042758103,0.7181756296800544
0.0028175267238140776,0.7181756296800544
0.0028175267238140776,0.7185159972770592
0.0028346026433523444,0.7185159972770592
0.0028346026433523444,0.7215793056501021
0.0028516785628906116,0.7215793056501021
0.0028516785628906116,0.7219196732471069
0.002868754482428879,0.7219196732471069
0.002868754482428879,0.7222600408441117
0.002885830401967146,0.7222600408441117
0.002885830401967146,0.723281143635126
0.0029029063215054132,0.723281143635126
0.0029029063215054132,0.7236215112321307
0.0029370581605819472,0.7236215112321307
0.0029370581605819472,0.7239618788291354
0.0029541340801202145,0.7239618788291354
0.0029541340801202145,0.724642614023145
0.0029712099996584817,0.724642614023145
0.0029712099996584817,0.7249829816201497
0.002988285919196749,0.7249829816201497
0.002988285919196749,0.7266848196051736
0.0030053618387350157,0.7266848196051736
0.0030053618387350157,0.7270251872021783
0.003022437758273283,0.7270251872021783
0.003022437758273283,0.7283866575901974
0.00303951367781155,0.7283866575901974
0.00303951367781155,0.729067392784207
0.0030736655168880846,0.729067392784207
0.0030736655168880846,0.7307692307692307
0.0030907414364263514,0.7307692307692307
0.0030907414364263514,0.731790333560245
0.0031078173559646186,0.731790333560245
0.0031078173559646186,0.7324710687542546
0.003176121034117687,0.7324710687542546
0.003176121034117687,0.7328114363512593
0.0032102728731942215,0.7328114363512593
0.0032102728731942215,0.7341729067392784
0.0032273487927324887,0.7341729067392784
0.0032273487927324887,0.7345132743362832
0.00327857655134729,0.7345132743362832
0.00327857655134729,0.7351940095302927
0.003295652470885557,0.7351940095302927
0.003295652470885557,0.7365554799183118
0.0033298043099620916,0.7365554799183118
0.0033298043099620916,0.7392784206943499
0.0033639561490386256,0.7392784206943499
0.0033639561490386256,0.7396187882913546
0.00339810798811516,0.7396187882913546
0.00339810798811516,0.7406398910823689
0.0034322598271916945,0.7406398910823689
0.0034322598271916945,0.7409802586793737
0.0034493357467299613,0.7409802586793737
0.0034493357467299613,0.7447243022464262
0.003500563505344763,0.7447243022464262
0.003500563505344763,0.7460857726344452
0.00351763942488303,0.7460857726344452
0.00351763942488303,0.7477876106194691
0.003603019022574366,0.7477876106194691
0.003603019022574366,0.7481279782164738
0.0036200949421126326,0.7481279782164738
0.0036200949421126326,0.7494894486044928
0.0036371708616509,0.7494894486044928
0.0036371708616509,0.7515316541865215
0.0036713227007274343,0.7515316541865215
0.0036713227007274343,0.7518720217835262
0.0037054745398039683,0.7518720217835262
0.0037054745398039683,0.7525527569775358
0.0037225504593422355,0.7525527569775358
0.0037225504593422355,0.7532334921715452
0.0037396263788805027,0.7532334921715452
0.0037396263788805027,0.7539142273655548
0.00375670229841877,0.7539142273655548
0.00375670229841877,0.7556160653505786
0.003773778217957037,0.7556160653505786
0.003773778217957037,0.7562968005445881
0.003790854137495304,0.7562968005445881
0.003790854137495304,0.7566371681415929
0.003807930057033571,0.7566371681415929
0.003807930057033571,0.7573179033356024
0.0038250059765718384,0.7573179033356024
0.0038250059765718384,0.7583390061266168
0.003859157815648373,0.7583390061266168
0.003859157815648373,0.7586793737236215
0.0038762337351866396,0.7586793737236215
0.0038762337351866396,0.7590197413206263
0.003910385574263174,0.7590197413206263
0.003910385574263174,0.7593601089176311
0.003927461493801441,0.7593601089176311
0.003927461493801441,0.7597004765146358
0.003961613332877975,0.7597004765146358
0.003961613332877975,0.7600408441116405
0.003978689252416243,0.7600408441116405
0.003978689252416243,0.7603812117086454
0.00399576517195451,0.7603812117086454
0.00399576517195451,0.7607215793056501
0.0040128410914927765,0.7607215793056501
0.0040128410914927765,0.762423417290674
0.004029917011031044,0.762423417290674
0.004029917011031044,0.7627637848876787
0.004046992930569311,0.7627637848876787
0.004046992930569311,0.7634445200816882
0.004098220689184112,0.7634445200816882
0.004098220689184112,0.763784887678693
0.004132372528260647,0.763784887678693
0.004132372528260647,0.7648059904697073
0.00423482804549025,0.7648059904697073
0.00423482804549025,0.765146358066712
0.004354359482258119,0.765146358066712
0.004354359482258119,0.7658270932607216
0.004388511321334654,0.7658270932607216
0.004388511321334654,0.7661674608577264
0.004405587240872921,0.7661674608577264
0.004405587240872921,0.7668481960517358
0.004422663160411188,0.7668481960517358
0.004422663160411188,0.7685500340367597
0.004439739079949455,0.7685500340367597
0.004439739079949455,0.7692307692307693
0.0044568149994877225,0.7692307692307693
0.0044568149994877225,0.769571136827774
0.004473890919025989,0.769571136827774
0.004473890919025989,0.7699115044247787
0.004490966838564257,0.7699115044247787
0.004490966838564257,0.7716133424098026
0.004508042758102524,0.7716133424098026
0.004508042758102524,0.7719537100068073
0.004627574194870394,0.7719537100068073
0.004627574194870394,0.7729748127978217
0.004644650114408661,0.7729748127978217
0.004644650114408661,0.7736555479918312
0.004661726033946928,0.7736555479918312
0.004661726033946928,0.773995915588836
0.004695877873023462,0.773995915588836
0.004695877873023462,0.775357385976855
0.004747105631638264,0.775357385976855
0.004747105631638264,0.7756977535738597
0.004764181551176531,0.7756977535738597
0.004764181551176531,0.7760381211708646
0.004815409309791332,0.7760381211708646
0.004815409309791332,0.7773995915588836
0.004900788907482668,0.7773995915588836
0.004900788907482668,0.7784206943498979
0.004917864827020935,0.7784206943498979
0.004917864827020935,0.7794417971409122
0.004934940746559202,0.7794417971409122
0.004934940746559202,0.779782164737917
0.00495201666609747,0.779782164737917
0.00495201666609747,0.7801225323349217
0.0049690925856357366,0.7801225323349217
0.0049690925856357366,0.7808032675289313
0.005003244424712271,0.7808032675289313
0.005003244424712271,0.7814840027229408
0.0050373962637888054,0.7814840027229408
0.0050373962637888054,0.7821647379169503
0.005071548102865339,0.7821647379169503
0.005071548102865339,0.782505105513955
0.005088624022403607,0.782505105513955
0.005088624022403607,0.7828454731109599
0.005122775861480141,0.7828454731109599
0.005122775861480141,0.7838665759019742
0.005139851781018408,0.7838665759019742
0.005139851781018408,0.7848876786929885
0.005156927700556675,0.7848876786929885
0.005156927700556675,0.7859087814840027
0.005174003620094942,0.7859087814840027
0.005174003620094942,0.7862491490810075
0.005208155459171477,0.7862491490810075
0.005208155459171477,0.7865895166780122
0.005225231378709744,0.7865895166780122
0.005225231378709744,0.786929884275017
0.00524230729824801,0.786929884275017
0.00524230729824801,0.7872702518720218
0.005259383217786278,0.7872702518720218
0.005259383217786278,0.7879509870660313
0.005276459137324545,0.7879509870660313
0.005276459137324545,0.7882913546630361
0.0052935350568628125,0.7882913546630361
0.0052935350568628125,0.7886317222600409
0.005310610976401079,0.7886317222600409
0.005310610976401079,0.7899931926480599
0.0053618387350158805,0.7899931926480599
0.0053618387350158805,0.7906739278420695
0.005378914654554148,0.7906739278420695
0.005378914654554148,0.7913546630360789
0.005395990574092415,0.7913546630360789
0.005395990574092415,0.7920353982300885
0.005430142413168949,0.7920353982300885
0.005430142413168949,0.7927161334240981
0.005464294252245484,0.7927161334240981
0.005464294252245484,0.7930565010211028
0.005481370171783751,0.7930565010211028
0.005481370171783751,0.7933968686181075
0.005515522010860285,0.7933968686181075
0.005515522010860285,0.7940776038121171
0.0055496738499368195,0.7940776038121171
0.0055496738499368195,0.7947583390061266
0.005583825689013353,0.7947583390061266
0.005583825689013353,0.7954390742001362
0.005669205286704689,0.7954390742001362
0.005669205286704689,0.7964601769911505
0.005686281206242956,0.7964601769911505
0.005686281206242956,0.7968005445881552
0.005737508964857758,0.7968005445881552
0.005737508964857758,0.7971409121851599
0.005754584884396024,0.7971409121851599
0.005754584884396024,0.7974812797821648
0.005771660803934292,0.7974812797821648
0.005771660803934292,0.7981620149761742
0.005788736723472559,0.7981620149761742
0.005788736723472559,0.7988427501701838
0.005822888562549093,0.7988427501701838
0.005822888562549093,0.7991831177671885
0.0058741163211638945,0.7991831177671885
0.0058741163211638945,0.7995234853641934
0.005891192240702162,0.7995234853641934
0.005891192240702162,0.8005445881552076
0.005942419999316963,0.8005445881552076
0.005942419999316963,0.8008849557522124
0.006010723677470031,0.8008849557522124
0.006010723677470031,0.8012253233492171
0.006027799597008299,0.8012253233492171
0.006027799597008299,0.8039482641252553
0.0060619514360848335,0.8039482641252553
0.0060619514360848335,0.8042886317222601
0.0060790273556231,0.8042886317222601
0.0060790273556231,0.8059904697072838
0.006096103275161367,0.8059904697072838
0.006096103275161367,0.8066712049012934
0.006113179194699635,0.8066712049012934
0.006113179194699635,0.8076923076923077
0.0061302551142379015,0.8076923076923077
0.0061302551142379015,0.8080326752893124
0.006181482872852703,0.8080326752893124
0.006181482872852703,0.8083730428863172
0.006215634711929237,0.8083730428863172
0.006215634711929237,0.8090537780803267
0.006266862470544038,0.8090537780803267
0.006266862470544038,0.8093941456773315
0.006283938390082306,0.8093941456773315
0.006283938390082306,0.810074880871341
0.006369317987773642,0.810074880871341
0.006369317987773642,0.8104152484683458
0.006403469826850176,0.8104152484683458
0.006403469826850176,0.8110959836623554
0.006420545746388443,0.8110959836623554
0.006420545746388443,0.8124574540503744
0.006471773505003244,0.8124574540503744
0.006471773505003244,0.8127978216473791
0.006591304941771114,0.8127978216473791
0.006591304941771114,0.813138189244384
0.006608380861309381,0.813138189244384
0.006608380861309381,0.8138189244383934
0.006625456780847649,0.8138189244383934
0.006625456780847649,0.8148400272294077
0.006693760459000717,0.8148400272294077
0.006693760459000717,0.815861130020422
0.006762064137153786,0.815861130020422
0.006762064137153786,0.8165418652144316
0.00679621597623032,0.8165418652144316
0.00679621597623032,0.8172226004084411
0.006813291895768587,0.8172226004084411
0.006813291895768587,0.8175629680054459
0.006847443734845121,0.8175629680054459
0.006847443734845121,0.8179033356024507
0.006932823332536457,0.8179033356024507
0.006932823332536457,0.8185840707964602
0.006949899252074725,0.8185840707964602
0.006949899252074725,0.818924438393465
0.007018202930227793,0.818924438393465
0.007018202930227793,0.8192648059904697
0.00703527884976606,0.8192648059904697
0.00703527884976606,0.8196051735874744
0.007052354769304327,0.8196051735874744
0.007052354769304327,0.8199455411844793
0.007069430688842594,0.8199455411844793
0.007069430688842594,0.8206262763784887
0.0070865066083808615,0.8206262763784887
0.0070865066083808615,0.8213070115724983
0.007103582527919128,0.8213070115724983
0.007103582527919128,0.8219877467665079
0.007206038045148732,0.8219877467665079
0.007206038045148732,0.8223281143635126
0.007240189884225265,0.8223281143635126
0.007240189884225265,0.8233492171545269
0.007325569481916601,0.8233492171545269
0.007325569481916601,0.8243703199455412
0.0073426454014548686,0.8243703199455412
0.0073426454014548686,0.8267528931245746
0.007410949079607937,0.8267528931245746
0.007410949079607937,0.8270932607215793
0.007428024999146204,0.8270932607215793
0.007428024999146204,0.8277739959155889
0.007445100918684471,0.8277739959155889
0.007445100918684471,0.8281143635125936
0.007496328677299272,0.8281143635125936
0.007496328677299272,0.8284547311095983
0.00751340459683754,0.8284547311095983
0.00751340459683754,0.8287950987066032
0.007581708274990608,0.8287950987066032
0.007581708274990608,0.8291354663036079
0.007650011953143677,0.8291354663036079
0.007650011953143677,0.8294758339006126
0.007667087872681944,0.8294758339006126
0.007667087872681944,0.8298162014976175
0.007684163792220211,0.8298162014976175
0.007684163792220211,0.8301565690946222
0.007752467470373279,0.8301565690946222
0.007752467470373279,0.8311776718856365
0.007769543389911547,0.8311776718856365
0.007769543389911547,0.8315180394826412
0.007786619309449814,0.8315180394826412
0.007786619309449814,0.8321987746766508
0.007803695228988081,0.8321987746766508
0.007803695228988081,0.8335602450646699
0.007820771148526348,0.8335602450646699
0.007820771148526348,0.8339006126616746
0.007940302585294217,0.8339006126616746
0.007940302585294217,0.8342409802586793
0.007974454424370753,0.8342409802586793
0.007974454424370753,0.8345813478556842
0.008025682182985553,0.8345813478556842
0.008025682182985553,0.8352620830496936
0.008059834022062088,0.8352620830496936
0.008059834022062088,0.8356024506466985
0.00816228953929169,0.8356024506466985
0.00816228953929169,0.8359428182437032
0.008196441378368224,0.8359428182437032
0.008196441378368224,0.8362831858407079
0.008213517297906493,0.8362831858407079
0.008213517297906493,0.8366235534377128
0.00823059321744476,0.8366235534377128
0.00823059321744476,0.8369639210347175
0.008315972815136095,0.8369639210347175
0.008315972815136095,0.8373042886317222
0.008452580171442231,0.8373042886317222
0.008452580171442231,0.8376446562287271
0.008486732010518767,0.8376446562287271
0.008486732010518767,0.8379850238257318
0.008555035688671836,0.8379850238257318
0.008555035688671836,0.8383253914227365
0.008691643044977972,0.8383253914227365
0.008691643044977972,0.8390061266167461
0.008725794884054507,0.8390061266167461
0.008725794884054507,0.8393464942137508
0.008777022642669307,0.8393464942137508
0.008777022642669307,0.8396868618107556
0.008862402240360643,0.8396868618107556
0.008862402240360643,0.8400272294077604
0.008913629998975445,0.8400272294077604
0.008913629998975445,0.8403675970047652
0.008947781838051979,0.8403675970047652
0.008947781838051979,0.8407079646017699
0.008981933677128514,0.8407079646017699
0.008981933677128514,0.8413886997957795
0.00899900959666678,0.8413886997957795
0.00899900959666678,0.8420694349897889
0.009016085516205048,0.8420694349897889
0.009016085516205048,0.8424098025867938
0.009084389194358116,0.8424098025867938
0.009084389194358116,0.8430905377808032
0.009135616952972917,0.8430905377808032
0.009135616952972917,0.8437712729748128
0.009203920631125986,0.8437712729748128
0.009203920631125986,0.8441116405718175
0.009272224309279055,0.8441116405718175
0.009272224309279055,0.8444520081688224
0.009306376148355588,0.8444520081688224
0.009306376148355588,0.8451327433628318
0.009323452067893857,0.8451327433628318
0.009323452067893857,0.8454731109598366
0.009391755746046924,0.8454731109598366
0.009391755746046924,0.8458134785568414
0.009528363102353062,0.8458134785568414
0.009528363102353062,0.8461538461538461
0.0096649704586592,0.8461538461538461
0.0096649704586592,0.8464942137508509
0.009682046378197466,0.8464942137508509
0.009682046378197466,0.8471749489448605
0.009767425975888802,0.8471749489448605
0.009767425975888802,0.84785568413887
0.009818653734503604,0.84785568413887
0.009818653734503604,0.8492171545268891
0.00983572965404187,0.8492171545268891
0.00983572965404187,0.8495575221238938
0.009852805573580137,0.8495575221238938
0.009852805573580137,0.8498978897208985
0.00995526109080974,0.8498978897208985
0.00995526109080974,0.8505786249149081
0.009972337010348007,0.8505786249149081
0.009972337010348007,0.8509189925119128
0.010040640688501076,0.8509189925119128
0.010040640688501076,0.8512593601089177
0.010108944366654144,0.8512593601089177
0.010108944366654144,0.8515997277059224
0.010177248044807213,0.8515997277059224
0.010177248044807213,0.8519400953029271
0.010245551722960282,0.8519400953029271
0.010245551722960282,0.8526208304969367
0.010296779481575083,0.8526208304969367
0.010296779481575083,0.8539823008849557
0.01048461459649602,0.8539823008849557
0.01048461459649602,0.8543226684819605
0.010518766435572556,0.8543226684819605
0.010518766435572556,0.8560245064669844
0.010587070113725625,0.8560245064669844
0.010587070113725625,0.8567052416609938
0.010655373791878692,0.8567052416609938
0.010655373791878692,0.8570456092579987
0.010740753389570028,0.8570456092579987
0.010740753389570028,0.8573859768550034
0.01079198114818483,0.8573859768550034
0.01079198114818483,0.858066712049013
0.010826132987261363,0.858066712049013
0.010826132987261363,0.8590878148400273
0.010911512584952699,0.8590878148400273
0.010911512584952699,0.8601089176310415
0.010996892182644035,0.8601089176310415
0.010996892182644035,0.8611300204220558
0.011184727297564975,0.8611300204220558
0.011184727297564975,0.8614703880190606
0.01132133465387111,0.8614703880190606
0.01132133465387111,0.8618107556160653
0.011423790171100713,0.8618107556160653
0.011423790171100713,0.8621511232130701
0.011799460400942591,0.8621511232130701
0.011799460400942591,0.8624914908100749
0.011833612240019125,0.8624914908100749
0.011833612240019125,0.8628318584070797
0.011850688159557391,0.8628318584070797
0.011850688159557391,0.8631722260040844
0.011901915918172194,0.8631722260040844
0.011901915918172194,0.8635125936010892
0.012038523274478331,0.8635125936010892
0.012038523274478331,0.863852961198094
0.012055599194016598,0.863852961198094
0.012055599194016598,0.8645336963921034
0.012192206550322734,0.8645336963921034
0.012192206550322734,0.8648740639891083
0.01222635838939927,0.8648740639891083
0.01222635838939927,0.865214431586113
0.012260510228475803,0.865214431586113
0.012260510228475803,0.8655547991831177
0.012345889826167139,0.8655547991831177
0.012345889826167139,0.8662355343771273
0.012414193504320208,0.8662355343771273
0.012414193504320208,0.866575901974132
0.012448345343396741,0.866575901974132
0.012448345343396741,0.8669162695711369
0.01246542126293501,0.8669162695711369
0.01246542126293501,0.8672566371681416
0.012499573102011543,0.8672566371681416
0.012499573102011543,0.8675970047651463
0.01251664902154981,0.8675970047651463
0.01251664902154981,0.8679373723621511
0.012653256377855948,0.8679373723621511
0.012653256377855948,0.8682777399591559
0.012670332297394215,0.8682777399591559
0.012670332297394215,0.8686181075561606
0.012789863734162084,0.8686181075561606
0.012789863734162084,0.8692988427501702
0.01282401557323862,0.8692988427501702
0.01282401557323862,0.8699795779441797
0.012926471090468222,0.8699795779441797
0.012926471090468222,0.8703199455411845
0.01306307844677436,0.8703199455411845
0.01306307844677436,0.8706603131381893
0.01311430620538916,0.8706603131381893
0.01311430620538916,0.871000680735194
0.013148458044465695,0.871000680735194
0.013148458044465695,0.8720217835262083
0.01323383764215703,0.8720217835262083
0.01323383764215703,0.872362151123213
0.013267989481233564,0.872362151123213
0.013267989481233564,0.8737236215112322
0.013285065400771831,0.8737236215112322
0.013285065400771831,0.8740639891082369
0.013319217239848366,0.8740639891082369
0.013319217239848366,0.8744043567052416
0.0133533690789249,0.8744043567052416
0.0133533690789249,0.8747447243022465
0.013404596837539702,0.8747447243022465
0.013404596837539702,0.8754254594962559
0.013438748676616236,0.8754254594962559
0.013438748676616236,0.8757658270932607
0.01371196338922851,0.8757658270932607
0.01371196338922851,0.8761061946902655
0.013763191147843312,0.8761061946902655
0.013763191147843312,0.8764465622872702
0.013780267067381578,0.8764465622872702
0.013780267067381578,0.876786929884275
0.014036405860455585,0.876786929884275
0.014036405860455585,0.8771272974812798
0.014053481779993852,0.8771272974812798
0.014053481779993852,0.8778080326752893
0.014155937297223456,0.8778080326752893
0.014155937297223456,0.8784887678692989
0.014173013216761723,0.8784887678692989
0.014173013216761723,0.8788291354663036
0.01419008913629999,0.8788291354663036
0.01419008913629999,0.8795098706603132
0.014224240975376523,0.8795098706603132
0.014224240975376523,0.8798502382573179
0.014360848331682661,0.8798502382573179
0.014360848331682661,0.8801906058543226
0.014377924251220928,0.8801906058543226
0.014377924251220928,0.8808713410483322
0.014463303848912264,0.8808713410483322
0.014463303848912264,0.8818924438393465
0.014514531607527066,0.8818924438393465
0.014514531607527066,0.8822328114363512
0.014616987124756668,0.8822328114363512
0.014616987124756668,0.882573179033356
0.014634063044294935,0.882573179033356
0.014634063044294935,0.8829135466303608
0.01478774632013934,0.8829135466303608
0.01478774632013934,0.8832539142273655
0.014907277756907209,0.8832539142273655
0.014907277756907209,0.8839346494213751
0.014924353676445477,0.8839346494213751
0.014924353676445477,0.8842750170183798
0.014975581435060278,0.8842750170183798
0.014975581435060278,0.8846153846153846
0.01507803695228988,0.8846153846153846
0.01507803695228988,0.8852961198093942
0.015282947986749087,0.8852961198093942
0.015282947986749087,0.8856364874063989
0.015402479423516956,0.8856364874063989
0.015402479423516956,0.8859768550034037
0.015453707182131758,0.8859768550034037
0.015453707182131758,0.8863172226004085
0.015590314538437894,0.8863172226004085
0.015590314538437894,0.8866575901974132
0.01562446637751443,0.8866575901974132
0.01562446637751443,0.8869979577944179
0.015726921894744034,0.8869979577944179
0.015726921894744034,0.8873383253914228
0.015965984768279772,0.8873383253914228
0.015965984768279772,0.8876786929884275
0.016000136607356306,0.8876786929884275
0.016000136607356306,0.8880190605854322
0.016170895802738977,0.8880190605854322
0.016170895802738977,0.8883594281824371
0.016427034595812986,0.8883594281824371
0.016427034595812986,0.8886997957794418
0.01651241419350432,0.8886997957794418
0.01651241419350432,0.8890401633764465
0.016597793791195657,0.8890401633764465
0.016597793791195657,0.8893805309734514
0.01663194563027219,0.8893805309734514
0.01663194563027219,0.8897208985704561
0.016802704825654862,0.8897208985704561
0.016802704825654862,0.8900612661674608
0.01681978074519313,0.8900612661674608
0.01681978074519313,0.8904016337644656
0.016922236262422733,0.8904016337644656
0.016922236262422733,0.8910823689584751
0.0169905399405758,0.8910823689584751
0.0169905399405758,0.8914227365554799
0.017092995457805404,0.8914227365554799
0.017092995457805404,0.8917631041524847
0.01711007137734367,0.8917631041524847
0.01711007137734367,0.8921034717494895
0.017212526894573272,0.8921034717494895
0.017212526894573272,0.892784206943499
0.017246678733649805,0.892784206943499
0.017246678733649805,0.8934649421375085
0.017332058331341143,0.8934649421375085
0.017332058331341143,0.8938053097345132
0.01740036200949421,0.8938053097345132
0.01740036200949421,0.8941456773315181
0.017417437929032477,0.8941456773315181
0.017417437929032477,0.8944860449285228
0.017434513848570747,0.8944860449285228
0.017434513848570747,0.8948264125255275
0.01746866568764728,0.8948264125255275
0.01746866568764728,0.8951667801225324
0.017536969365800348,0.8951667801225324
0.017536969365800348,0.8955071477195371
0.017724804480721286,0.8955071477195371
0.017724804480721286,0.8958475153165418
0.01777603223933609,0.8958475153165418
0.01777603223933609,0.8961878829135467
0.01801509511287183,0.8961878829135467
0.01801509511287183,0.8965282505105514
0.018100474710563162,0.8965282505105514
0.018100474710563162,0.8968686181075561
0.018117550630101432,0.8968686181075561
0.018117550630101432,0.897208985704561
0.018168778388716233,0.897208985704561
0.018168778388716233,0.8975493533015657
0.018254157986407567,0.8975493533015657
0.018254157986407567,0.8982300884955752
0.018271233905945834,0.8982300884955752
0.018271233905945834,0.8989108236895847
0.01849322085994331,0.8989108236895847
0.01849322085994331,0.8992511912865895
0.018561524538096376,0.8992511912865895
0.018561524538096376,0.8995915588835943
0.018612752296711176,0.8995915588835943
0.018612752296711176,0.899931926480599
0.01919333356101226,0.899931926480599
0.01919333356101226,0.9002722940776038
0.019517776032239337,0.9002722940776038
0.019517776032239337,0.9009530292716134
0.019705611147160275,0.9009530292716134
0.019705611147160275,0.9016337644656228
0.019876370342542946,0.9016337644656228
0.019876370342542946,0.9019741320626277
0.02016666097469349,0.9019741320626277
0.02016666097469349,0.9023144996596324
0.020183736894231755,0.9023144996596324
0.020183736894231755,0.9026548672566371
0.020234964652846556,0.9026548672566371
0.020234964652846556,0.902995234853642
0.020286192411461356,0.902995234853642
0.020286192411461356,0.9033356024506467
0.02033742017007616,0.9033356024506467
0.02033742017007616,0.9036759700476514
0.02038864792869096,0.9036759700476514
0.02038864792869096,0.9040163376446563
0.020525255284997098,0.9040163376446563
0.020525255284997098,0.904356705241661
0.021071684710221646,0.904356705241661
0.021071684710221646,0.9053778080326753
0.02110583654929818,0.9053778080326753
0.02110583654929818,0.90571817562968
0.02141320310098699,0.90571817562968
0.02141320310098699,0.9060585432266848
0.02158396229636966,0.9060585432266848
0.02158396229636966,0.9063989108236896
0.02163519005498446,0.9063989108236896
0.02163519005498446,0.9067392784206944
0.021652265974522727,0.9067392784206944
0.021652265974522727,0.9070796460176991
0.021720569652675797,0.9070796460176991
0.021720569652675797,0.9077603812117087
0.02180594925036713,0.9077603812117087
0.02180594925036713,0.9084411164057182
0.021959632526211536,0.9084411164057182
0.021959632526211536,0.9091218515997277
0.022027936204364607,0.9091218515997277
0.022027936204364607,0.9094622191967324
0.02216454356067074,0.9094622191967324
0.02216454356067074,0.9098025867937373
0.022284074997438612,0.9098025867937373
0.022284074997438612,0.910142954390742
0.02236945459512995,0.910142954390742
0.02236945459512995,0.9104833219877467
0.022488986031897817,0.9104833219877467
0.022488986031897817,0.9111640571817563
0.02252313787097435,0.9111640571817563
0.02252313787097435,0.911504424778761
0.02254021379051262,0.911504424778761
0.02254021379051262,0.9118447923757659
0.022608517468665688,0.9118447923757659
0.022608517468665688,0.9121851599727706
0.02269389706635702,0.9121851599727706
0.02269389706635702,0.9125255275697753
0.022864656261739693,0.9125255275697753
0.022864656261739693,0.9128658951667801
0.023223250572043306,0.9128658951667801
0.023223250572043306,0.9135466303607896
0.02330863016973464,0.9135466303607896
0.02330863016973464,0.9138869979577944
0.023325706089272907,0.9138869979577944
0.023325706089272907,0.9142273655547992
0.023342782008811173,0.9142273655547992
0.023342782008811173,0.914567733151804
0.023411085686964244,0.914567733151804
0.023411085686964244,0.9149081007488087
0.02347938936511731,0.9149081007488087
0.02347938936511731,0.9152484683458135
0.02361599672142345,0.9152484683458135
0.02361599672142345,0.9155888359428183
0.023684300399576516,0.9155888359428183
0.023684300399576516,0.915929203539823
0.02414535022710973,0.915929203539823
0.02414535022710973,0.9162695711368277
0.024299033502954134,0.9162695711368277
0.024299033502954134,0.9166099387338326
0.02455517229602814,0.9166099387338326
0.02455517229602814,0.9169503063308373
0.024589324135104677,0.9169503063308373
0.024589324135104677,0.9176310415248469
0.024708855571872544,0.9176310415248469
0.024708855571872544,0.9179714091218516
0.02486253884771695,0.9179714091218516
0.02486253884771695,0.9183117767188563
0.024913766606331753,0.9183117767188563
0.024913766606331753,0.9186521443158612
0.025050373962637887,0.9186521443158612
0.025050373962637887,0.9189925119128659
0.02520405723848229,0.9189925119128659
0.02520405723848229,0.9193328795098706
0.025255284997097095,0.9193328795098706
0.025255284997097095,0.9196732471068755
0.02528943683617363,0.9196732471068755
0.02528943683617363,0.9203539823008849
0.02539189235340323,0.9203539823008849
0.02539189235340323,0.9206943498978897
0.025579727468324168,0.9206943498978897
0.025579727468324168,0.9213750850918992
0.02609200505447218,0.9213750850918992
0.02609200505447218,0.921715452688904
0.026109080974010452,0.921715452688904
0.026109080974010452,0.9220558202859088
0.026194460571701786,0.9220558202859088
0.026194460571701786,0.9223961878829136
0.02622861241077832,0.9223961878829136
0.02622861241077832,0.9227365554799183
0.02629691608893139,0.9227365554799183
0.02629691608893139,0.9230769230769231
0.026313992008469657,0.9230769230769231
0.026313992008469657,0.9234172906739279
0.02634814384754619,0.9234172906739279
0.02634814384754619,0.9240980258679373
0.026450599364775795,0.9240980258679373
0.026450599364775795,0.9244383934649422
0.026775041836002867,0.9244383934649422
0.026775041836002867,0.9247787610619469
0.026843345514155938,0.9247787610619469
0.026843345514155938,0.9251191286589516
0.027219015743997814,0.9251191286589516
0.027219015743997814,0.9254594962559565
0.027287319422150885,0.9254594962559565
0.027287319422150885,0.9257998638529612
0.027321471261227418,0.9257998638529612
0.027321471261227418,0.9264805990469708
0.027526382295686623,0.9264805990469708
0.027526382295686623,0.9268209666439755
0.02766298965199276,0.9268209666439755
0.02766298965199276,0.9271613342409802
0.02814111539906424,0.9271613342409802
0.02814111539906424,0.927501701837985
0.02826064683583211,0.927501701837985
0.02826064683583211,0.9278420694349898
0.02860216522659745,0.9278420694349898
0.02860216522659745,0.9281824370319945
0.028636317065673985,0.9281824370319945
0.028636317065673985,0.9285228046289993
0.028841228100133193,0.9285228046289993
0.028841228100133193,0.9288631722260041
0.02885830401967146,0.9288631722260041
0.02885830401967146,0.9292035398230089
0.02921689832997507,0.9292035398230089
0.02921689832997507,0.9295439074200136
0.02938765752535774,0.9295439074200136
0.02938765752535774,0.9298842750170184
0.02952426488166388,0.9298842750170184
0.02952426488166388,0.9302246426140232
0.029831631433352684,0.9302246426140232
0.029831631433352684,0.9305650102110279
0.02993408695058229,0.9305650102110279
0.02993408695058229,0.9309053778080327
0.030548820053959907,0.9309053778080327
0.030548820053959907,0.9312457454050375
0.030600047812574707,0.9312457454050375
0.030600047812574707,0.9315861130020422
0.03082203476657218,0.9315861130020422
0.03082203476657218,0.9322668481960518
0.030907414364263516,0.9322668481960518
0.030907414364263516,0.9329475833900612
0.03094156620334005,0.9329475833900612
0.03094156620334005,0.9332879509870661
0.03130016051364366,0.9332879509870661
0.03130016051364366,0.9336283185840708
0.03170998258256207,0.9336283185840708
0.03170998258256207,0.9339686861810755
0.031931969536559544,0.9339686861810755
0.031931969536559544,0.9343090537780804
0.03252962672039889,0.9343090537780804
0.03252962672039889,0.9346494213750851
0.032580854479013696,0.9346494213750851
0.032580854479013696,0.9349897889720898
0.03261500631809023,0.9349897889720898
0.03261500631809023,0.9353301565690946
0.03264915815716676,0.9353301565690946
0.03264915815716676,0.9360108917631041
0.032768689593934634,0.9360108917631041
0.032768689593934634,0.9363512593601089
0.033298043099620915,0.9363512593601089
0.033298043099620915,0.9366916269571137
0.034015231720228134,0.9366916269571137
0.034015231720228134,0.9370319945541185
0.03404938355930467,0.9370319945541185
0.03404938355930467,0.937712729748128
0.0340835353983812,0.937712729748128
0.0340835353983812,0.9380530973451328
0.03480072401898842,0.9380530973451328
0.03480072401898842,0.9383934649421375
0.034834875858064954,0.9383934649421375
0.034834875858064954,0.9387338325391422
0.03492025545575629,0.9387338325391422
0.03492025545575629,0.9390742001361471
0.034971483214371095,0.9390742001361471
0.034971483214371095,0.9394145677331518
0.03510809057067723,0.9394145677331518
0.03510809057067723,0.9397549353301565
0.03524469792698337,0.9397549353301565
0.03524469792698337,0.9404356705241661
0.03529592568559817,0.9404356705241661
0.03529592568559817,0.9407760381211708
0.03565451999590178,0.9407760381211708
0.03565451999590178,0.9411164057181757
0.035671595915440044,0.9411164057181757
0.035671595915440044,0.9414567733151804
0.03575697551313138,0.9414567733151804
0.03575697551313138,0.9417971409121851
0.03640586045558553,0.9417971409121851
0.03640586045558553,0.94213750850919
0.037174276834807556,0.94213750850919
0.037174276834807556,0.9424778761061947
0.03722550459342235,0.9424778761061947
0.03722550459342235,0.9428182437031994
0.03731088419111369,0.9428182437031994
0.03731088419111369,0.9431586113002042
0.03754994706464943,0.9431586113002042
0.03754994706464943,0.943498978897209
0.0376182507428025,0.943498978897209
0.0376182507428025,0.9438393464942137
0.037891465455414775,0.9438393464942137
0.037891465455414775,0.9441797140912185
0.038318363443871455,0.9441797140912185
0.038318363443871455,0.944860449285228
0.0388135651104812,0.944860449285228
0.0388135651104812,0.9452008168822328
0.038967248386325606,0.9452008168822328
0.038967248386325606,0.9462219196732471
0.039035552064478674,0.9462219196732471
0.039035552064478674,0.9465622872702518
0.03920631125986134,0.9465622872702518
0.03920631125986134,0.9469026548672567
0.03922338717939961,0.9469026548672567
0.03922338717939961,0.9472430224642614
0.039377070455244016,0.9472430224642614
0.039377070455244016,0.9475833900612661
0.040077183156312965,0.9475833900612661
0.040077183156312965,0.947923757658271
0.040504081144769645,0.947923757658271
0.040504081144769645,0.9482641252552757
0.040606536661999246,0.9482641252552757
0.040606536661999246,0.9486044928522804
0.04117004200676207,0.9486044928522804
0.04117004200676207,0.9489448604492853
0.04118711792630033,0.9489448604492853
0.04118711792630033,0.94928522804629
0.04142618079983607,0.94928522804629
0.04142618079983607,0.9496255956432947
0.04149448447798914,0.9496255956432947
0.04149448447798914,0.9499659632402995
0.04152863631706567,0.9499659632402995
0.04152863631706567,0.950646698434309
0.04161401591475701,0.950646698434309
0.04161401591475701,0.9513274336283186
0.04178477511013968,0.9513274336283186
0.04178477511013968,0.9523485364193329
0.04180185102967795,0.9523485364193329
0.04180185102967795,0.9526889040163377
0.04241658413305557,0.9526889040163377
0.04241658413305557,0.9530292716133424
0.04257026740889997,0.9530292716133424
0.04257026740889997,0.9533696392103471
0.043133772753662786,0.9533696392103471
0.043133772753662786,0.953710006807352
0.04318500051227759,0.953710006807352
0.04318500051227759,0.9540503744043567
0.04327038010996892,0.9540503744043567
0.04327038010996892,0.9543907420013614
0.04349236706396639,0.9543907420013614
0.04349236706396639,0.9547311095983663
0.04352651890304293,0.9547311095983663
0.043560670742119466,0.9547311095983663
0.04362897442027253,0.9547311095983663
0.04362897442027253,0.955071477195371
0.043868037293808275,0.955071477195371
0.043868037293808275,0.9554118447923757
0.04390218913288481,0.9554118447923757
0.04390218913288481,0.9557522123893806
0.044397390799494556,0.9557522123893806
0.044397390799494556,0.9560925799863853
0.044807212868412966,0.9560925799863853
0.044807212868412966,0.95643294758339
0.04514873125917831,0.95643294758339
0.04514873125917831,0.9567733151803949
0.04516580717871657,0.9567733151803949
0.04516580717871657,0.9571136827773996
0.04800040982206892,0.9571136827773996
0.04800040982206892,0.9574540503744043
0.04818824493698986,0.9574540503744043
0.04818824493698986,0.9577944179714091
0.04822239677606639,0.9577944179714091
0.04822239677606639,0.9581347855684139
0.048256548615142926,0.9581347855684139
0.048256548615142926,0.9584751531654186
0.04839315597144906,0.9584751531654186
0.04839315597144906,0.9588155207624234
0.04880297804036748,0.9588155207624234
0.04880297804036748,0.9591558883594282
0.04893958539667361,0.9591558883594282
0.04893958539667361,0.959496255956433
0.048956661316211875,0.959496255956433
0.048956661316211875,0.9598366235534377
0.048990813155288415,0.9598366235534377
0.048990813155288415,0.9601769911504425
0.04912742051159455,0.9601769911504425
0.04912742051159455,0.9605173587474473
0.049383559304668555,0.9605173587474473
0.049383559304668555,0.960857726344452
0.04996414056896964,0.960857726344452
0.04996414056896964,0.9611980939414567
0.04999829240804617,0.9611980939414567
0.04999829240804617,0.9615384615384616
0.05020320344250538,0.9615384615384616
0.05020320344250538,0.9618788291354663
0.05056179775280899,0.9618788291354663
0.05056179775280899,0.962219196732471
0.05174003620094942,0.962219196732471
0.05174003620094942,0.9625595643294759
0.05184249171817902,0.9625595643294759
0.05184249171817902,0.9628999319264806
0.052115706430791296,0.9628999319264806
0.052115706430791296,0.9632402995234853
0.05279874321232198,0.9632402995234853
0.05279874321232198,0.9635806671204902
0.05348177999385267,0.9635806671204902
0.05348177999385267,0.9639210347174949
0.05392575390184762,0.9639210347174949
0.05392575390184762,0.9642614023144996
0.05426727229261296,0.9642614023144996
0.05426727229261296,0.9649421375085092
0.054830777637375774,0.9649421375085092
0.054830777637375774,0.9652825051055139
0.05633345855674328,0.9652825051055139
0.05633345855674328,0.9656228727025187
0.05635053447628155,0.9656228727025187
0.05635053447628155,0.9659632402995235
0.05979987022301151,0.9659632402995235
0.05979987022301151,0.9663036078965282
0.06039752740685086,0.9663036078965282
0.06039752740685086,0.966643975493533
0.06061951436084833,0.966643975493533
0.06061951436084833,0.9669843430905378
0.06070489395853967,0.9669843430905378
0.06070489395853967,0.9676650782845473
0.06082442539530754,0.9676650782845473
0.06082442539530754,0.9680054458815521
0.06331750964789454,0.9680054458815521
0.06331750964789454,0.9683458134785569
0.06582766982001981,0.9683458134785569
0.06582766982001981,0.9686861810755616
0.06693760459000717,0.9686861810755616
0.06693760459000717,0.9690265486725663
0.06738157849800212,0.9690265486725663
0.06738157849800212,0.9693669162695712
0.068013387520918,0.9693669162695712
0.068013387520918,0.9697072838665759
0.06845736142891294,0.9697072838665759
0.06845736142891294,0.9700476514635806
0.06883303165875482,0.9700476514635806
0.06883303165875482,0.9703880190605855
0.0704040162562754,0.9703880190605855
0.0704040162562754,0.9707283866575902
0.07042109217581367,0.9707283866575902
0.07042109217581367,0.9710687542545949
0.07095044568149995,0.9710687542545949
0.07095044568149995,0.9714091218515998
0.07265803763532666,0.9714091218515998
0.07265803763532666,0.9717494894486045
0.07380212424439056,0.9717494894486045
0.07380212424439056,0.9720898570456092
0.07438270550869164,0.9720898570456092
0.07438270550869164,0.972430224642614
0.07489498309483966,0.972430224642614
0.07489498309483966,0.9727705922396188
0.0764318158532837,0.9727705922396188
0.0764318158532837,0.9731109598366235
0.07646596769236023,0.9731109598366235
0.07646596769236023,0.9734513274336283
0.07702947303712306,0.9734513274336283
0.07702947303712306,0.9737916950306331
0.07779788941634506,0.9737916950306331
0.07779788941634506,0.9741320626276379
0.07907858338171511,0.9741320626276379
0.07907858338171511,0.9744724302246426
0.07969331648509272,0.9744724302246426
0.07969331648509272,0.9748127978216474
0.08199856562275878,0.9748127978216474
0.08199856562275878,0.9751531654186522
0.08293774119736348,0.9751531654186522
0.08293774119736348,0.9754935330156569
0.08406475188688911,0.9754935330156569
0.08406475188688911,0.9758339006126616
0.08461118131211366,0.9758339006126616
0.08461118131211366,0.9761742682096665
0.08594310303609849,0.9761742682096665
0.08594310303609849,0.9765146358066712
0.08893138895529525,0.9765146358066712
0.08893138895529525,0.9768550034036759
0.08951197021959632,0.9768550034036759
0.08951197021959632,0.9771953710006808
0.08976810901267034,0.9771953710006808
0.08976810901267034,0.9775357385976855
0.0931149892421707,0.9775357385976855
0.0931149892421707,0.9778761061946902
0.09381510194323964,0.9778761061946902
0.09381510194323964,0.9782164737916951
0.09405416481677538,0.9782164737916951
0.09405416481677538,0.9785568413886998
0.09419077217308153,0.9785568413886998
0.09419077217308153,0.9788972089857045
0.09420784809261978,0.9788972089857045
0.09420784809261978,0.9792375765827094
0.0961715788395205,0.9792375765827094
0.0961715788395205,0.9795779441797141
0.09692291929920427,0.9795779441797141
0.09692291929920427,0.9799183117767188
0.09815238550595949,0.9799183117767188
0.09815238550595949,0.9802586793737236
0.09912571291964073,0.9802586793737236
0.09912571291964073,0.9805990469707284
0.10126020286192411,0.9805990469707284
0.10126020286192411,0.9809394145677331
0.10151634165499812,0.9809394145677331
0.10151634165499812,0.9812797821647379
0.10228475803422014,0.9812797821647379
0.10228475803422014,0.9816201497617427
0.10470953860865408,0.9816201497617427
0.10470953860865408,0.9819605173587475
0.10605853625217718,0.9819605173587475
0.10605853625217718,0.9823008849557522
0.10640005464294253,0.9823008849557522
0.10640005464294253,0.982641252552757
0.1078173559646187,0.982641252552757
0.10785150780369523,0.982641252552757
0.10889313889552953,0.982641252552757
0.10889313889552953,0.9829816201497618
0.1090638980909122,0.9829816201497618
0.1090638980909122,0.9833219877467665
0.11051535125166491,0.9833219877467665
0.11051535125166491,0.9836623553437712
0.1105665790102797,0.9836623553437712
0.1105665790102797,0.9840027229407761
0.11292305590656057,0.9840027229407761
0.11292305590656057,0.9843430905377808
0.1163894675728288,0.9843430905377808
0.1163894675728288,0.9846834581347855
0.11722618763020388,0.9846834581347855
0.11722618763020388,0.9850238257317904
0.11744817458420136,0.9850238257317904
0.11744817458420136,0.9853641933287951
0.11801167992896418,0.9853641933287951
0.11801167992896418,0.9857045609257998
0.11872886854957139,0.9857045609257998
0.11876302038864793,0.9857045609257998
0.12040230866432157,0.9857045609257998
0.12040230866432157,0.9860449285228047
0.12053891602062772,0.9860449285228047
0.12053891602062772,0.9863852961198094
0.12118780096308186,0.9863852961198094
0.12118780096308186,0.9867256637168141
0.12327106314675046,0.9867256637168141
0.12327106314675046,0.9870660313138189
0.13049417711143746,0.9870660313138189
0.13049417711143746,0.9874063989108237
0.13151873228373348,0.9874063989108237
0.13151873228373348,0.9877467665078284
0.13303848912263924,0.9877467665078284
0.13303848912263924,0.9880871341048332
0.13402889245585875,0.9880871341048332
0.13402889245585875,0.988427501701838
0.13496806803046343,0.988427501701838
0.13500221986953997,0.988427501701838
0.13532666234076704,0.988427501701838
0.13532666234076704,0.9887678692988427
0.13916874423687717,0.9887678692988427
0.13916874423687717,0.9891082368958475
0.14114955090331616,0.9891082368958475
0.14114955090331616,0.9894486044928523
0.14154229705269628,0.9894486044928523
0.14154229705269628,0.989788972089857
0.14577712509818655,0.989788972089857
0.14577712509818655,0.9901293396868618
0.14763840032785766,0.9901293396868618
0.14763840032785766,0.9904697072838666
0.14903862572999557,0.9904697072838666
0.14903862572999557,0.9908100748808714
0.1501144086609064,0.9908100748808714
0.1501144086609064,0.9911504424778761
0.1526074929134934,0.9911504424778761
0.1526074929134934,0.9914908100748808
0.15322222601687102,0.9914908100748808
0.15322222601687102,0.9918311776718857
0.15610805641883815,0.9918311776718857
0.15610805641883815,0.9921715452688904
0.160189201188484,0.9921715452688904
0.160189201188484,0.9925119128658951
0.1695468050954544,0.9925119128658951
0.1695468050954544,0.9928522804629
0.17342303883064103,0.9928522804629
0.17342303883064103,0.9931926480599047
0.17765786687613128,0.9931926480599047
0.17765786687613128,0.9935330156569094
0.18136334141593524,0.9935330156569094
0.18136334141593524,0.9938733832539143
0.18428332365697891,0.9938733832539143
0.18431747549605546,0.9938733832539143
0.1861104470475735,0.9938733832539143
0.1861104470475735,0.994213750850919
0.19138690618489806,0.994213750850919
0.19138690618489806,0.9945541184479237
0.21537857313616338,0.9945541184479237
0.21537857313616338,0.9948944860449285
0.21875960520474028,0.9948944860449285
0.21875960520474028,0.9952348536419333
0.22183327072162837,0.9952348536419333
0.22183327072162837,0.995575221238938
0.22821966462894028,0.995575221238938
0.22821966462894028,0.9959155888359428
0.2342816160650251,0.9959155888359428
0.2342816160650251,0.9962559564329476
0.2438953587650695,0.9962559564329476
0.2438953587650695,0.9965963240299524
0.24403196612137565,0.9965963240299524
0.24406611796045216,0.9965963240299524
0.24606400054642943,0.9965963240299524
0.24609815238550595,0.9965963240299524
0.2498207028448482,0.9965963240299524
0.2498207028448482,0.9969366916269571
0.2542433660052594,0.9969366916269571
0.25427751784433594,0.9969366916269571
0.26105665790102794,0.9969366916269571
0.26105665790102794,0.9972770592239619
0.27089238755506984,0.9972770592239619
0.27092653939414635,0.9972770592239619
0.2731634848536594,0.9972770592239619
0.2731976366927359,0.9972770592239619
0.29297155151804927,0.9972770592239619
0.29297155151804927,0.9976174268209667
0.29703562036815684,0.9976174268209667
0.29706977220723335,0.9976174268209667
0.30408797513746116,0.9976174268209667
0.3041221269765377,0.9976174268209667
0.31161845565383695,0.9976174268209667
0.3116526074929135,0.9976174268209667
0.33701034800724017,0.9976174268209667
0.33704449984631674,0.9976174268209667
0.33818858645538064,0.9976174268209667
0.33822273829445715,0.9976174268209667
0.3410744168573478,0.9976174268209667
0.3410744168573478,0.9979577944179714
0.34580444656944775,0.9979577944179714
0.3458385984085243,0.9979577944179714
0.351251664902155,0.9979577944179714
0.3512858167412315,0.9979577944179714
0.3606604965677402,0.9979577944179714
0.3606604965677402,0.9982981620149761
0.3655612854752228,0.9982981620149761
0.3655954373142994,0.9982981620149761
0.3679177623715037,0.9982981620149761
0.36795191421058027,0.9982981620149761
0.371452477715925,0.9982981620149761
0.371452477715925,0.998638529611981
0.37505549673849936,0.998638529611981
0.37508964857757593,0.998638529611981
0.37619958334756326,0.998638529611981
0.37623373518663983,0.998638529611981
0.3856937946108398,0.998638529611981
0.3857279464499163,0.998638529611981
0.38779413271404667,0.998638529611981
0.3878282845531232,0.998638529611981
0.3898432430586387,0.998638529611981
0.3898773948977152,0.998638529611981
0.39013353369078924,0.998638529611981
0.3901676855298658,0.998638529611981
0.4024281957583416,0.998638529611981
0.4024623475974181,0.998638529611981
0.40577507598784196,0.998638529611981
0.4058092278269185,0.998638529611981
0.4094805505276459,0.998638529611981
0.40951470236672244,0.998638529611981
0.41719886615894264,0.998638529611981
0.4172330179980192,0.998638529611981
0.44421297086848127,0.998638529611981
0.4442471227075578,0.998638529611981
0.44873808954612204,0.998638529611981
0.4487722413851986,0.998638529611981
0.4607766128206004,0.998638529611981
0.4608107646596769,0.998638529611981
0.46533588333731774,0.998638529611981
0.46537003517639425,0.998638529611981
0.4813018681055975,0.998638529611981
0.481336019944674,0.998638529611981
0.4979338137358697,0.998638529611981
0.4979679655749462,0.998638529611981
0.5099040333321949,0.998638529611981
0.5099381851712714,0.998638529611981
0.5103480072401899,0.998638529611981
0.5103821590792664,0.998638529611981
0.5354496089614426,0.998638529611981
0.5354837608005191,0.998638529611981
0.5436289744202726,0.998638529611981
0.5436631262593491,0.998638529611981
0.5454219459717906,0.998638529611981
0.5454560978108671,0.998638529611981
0.5527133636146306,0.998638529611981
0.5527475154537072,0.998638529611981
0.5571872545336566,0.998638529611981
0.5572214063727332,0.998638529611981
0.5617294491308357,0.998638529611981
0.5617636009699122,0.998638529611981
0.5920392063112598,0.998638529611981
0.5920733581503363,0.998638529611981
0.5970253748164339,0.998638529611981
0.5970595266555104,0.998638529611981
0.6102933642976675,0.998638529611981
0.610327516136744,0.998638529611981
0.6115740582630375,0.998638529611981
0.611608210102114,0.998638529611981
0.613264574297326,0.998638529611981
0.6132987261364025,0.998638529611981
0.6134353334927086,0.998638529611981
0.6134694853317851,0.998638529611981
0.6236125815375158,0.998638529611981
0.6236467333765924,0.998638529611981
0.6278815614220826,0.998638529611981
0.6279157132611591,0.998638529611981
0.6290939517092995,0.998638529611981
0.6291281035483761,0.998638529611981
0.630596632628667,0.998638529611981
0.6306307844677436,0.998638529611981
0.634746081076466,0.998638529611981
0.6347802329155425,0.998638529611981
0.6384003278576551,0.998638529611981
0.6384344796967316,0.998638529611981
0.6399200846965609,0.998638529611981
0.6399542365356374,0.998638529611981
0.6421228783169973,0.998638529611981
0.642157030156074,0.998638529611981
0.6453160752706534,0.998638529611981
0.6453502271097299,0.998638529611981
0.6485092722243093,0.998638529611981
0.6485434240633858,0.998638529611981
0.6488337146955363,0.998638529611981
0.6488678665346129,0.998638529611981
0.6535295925685598,0.998638529611981
0.6535295925685598,0.9989788972089857
0.6563983470509887,0.9989788972089857
0.6564324988900653,0.9989788972089857
0.6579693316485092,0.9989788972089857
0.6580034834875859,0.9989788972089857
0.65904511457942,0.9989788972089857
0.6590792664184967,0.9989788972089857
0.6633482463030634,0.9989788972089857
0.66338239814214,0.9989788972089857
0.6638434479696732,0.9989788972089857
0.6638775998087497,0.9989788972089857
0.6680099723370103,0.9989788972089857
0.6680441241760868,0.9989788972089857
0.6735596461869472,0.9989788972089857
0.6735937980260237,0.9989788972089857
0.679553293944879,0.9989788972089857
0.6795874457839555,0.9989788972089857
0.6833953758409891,0.9989788972089857
0.6834295276800656,0.9989788972089857
0.6900208326218367,0.9989788972089857
0.6900549844609132,0.9989788972089857
0.7013592431952461,0.9989788972089857
0.7013933950343226,0.9989788972089857
0.7022301150916976,0.9989788972089857
0.7022301150916976,0.9993192648059904
0.7045865919879786,0.9993192648059904
0.7046207438270551,0.9993192648059904
0.7096410641713057,0.9993192648059904
0.7096752160103822,0.9993192648059904
0.7104265564700659,0.9993192648059904
0.7104607083091424,0.9993192648059904
0.7143027902052526,0.9993192648059904
0.7143369420443291,0.9993192648059904
0.7151907380212424,0.9993192648059904
0.715224889860319,0.9993192648059904
0.7157030156073905,0.9993192648059904
0.715737167446467,0.9993192648059904
0.7187083774461255,0.9993192648059904
0.718742529285202,0.9993192648059904
0.7274341723301799,0.9993192648059904
0.7274683241692566,0.9993192648059904
0.7315665448584406,0.9993192648059904
0.7316006966975171,0.9993192648059904
0.7401386564666508,0.9993192648059904
0.7401728083057273,0.9993192648059904
0.7444930159489088,0.9993192648059904
0.7445271677879853,0.9993192648059904
0.7504354359482258,0.9993192648059904
0.7504695877873023,0.9993192648059904
0.7535091014651139,0.9993192648059904
0.7535432533041905,0.9993192648059904
0.7564803114647723,0.9993192648059904
0.7565144633038489,0.9993192648059904
0.7696799972678529,0.9993192648059904
0.7696799972678529,0.9996596324029953
0.7725145999112052,0.9996596324029953
0.7725487517502817,0.9996596324029953
0.7773641610600731,0.9996596324029953
0.7773641610600731,1.0
0.7850995526109081,1.0
0.7851337044499846,1.0
0.7892319251391687,1.0
0.7892660769782452,1.0
0.7934838291041972,1.0
0.7935179809432737,1.0
0.7963867354257027,1.0
0.7964208872647792,1.0
0.7971209999658482,1.0
0.7971551518049247,1.0
0.8000409822068918,1.0
0.8000751340459684,1.0
0.8089204603667908,1.0
0.8089546122058673,1.0
0.826508657491206,1.0
0.8265428093302825,1.0
0.8281650216864178,1.0
0.8281991735254943,1.0
0.8297189303644001,1.0
0.8297530822034767,1.0
0.8743212321983539,1.0
0.8743553840374304,1.0
0.8960759536901062,1.0
0.8961101055291828,1.0
0.9074143642635156,1.0
0.9074485161025921,1.0
0.9106075612171716,1.0
0.9106417130562481,1.0
0.9434445544892592,1.0
0.9434787063283357,1.0
0.9587445783955466,1.0
0.9587787302346231,1.0
0.9599057409241488,1.0
0.9599398927632253,1.0
0.9614767255216693,1.0
0.9615108773607459,1.0
0.9940917318397595,1.0
0.9941258836788361,1.0
1.0,1.0
