fpr,tpr
0.0,0.0
1.7075919538267136e-05,0.0
1.7075919538267136e-05,0.027910142954390742
3.415183907653427e-05,0.027910142954390742
3.415183907653427e-05,0.03063308373042886
5.1227758614801405e-05,0.03063308373042886
5.1227758614801405e-05,0.08679373723621511
6.830367815306854e-05,0.08679373723621511
6.830367815306854e-05,0.10415248468345814
8.537959769133568e-05,0.10415248468345814
8.537959769133568e-05,0.10789652825051055
0.00010245551722960281,0.10789652825051055
0.00010245551722960281,0.20285908781484002
0.00011953143676786995,0.20285908781484002
0.00011953143676786995,0.20864533696392104
0.0001366073563061371,0.20864533696392104
0.0001366073563061371,0.24778761061946902
0.00015368327584440423,0.24778761061946902
0.00015368327584440423,0.27876106194690264
0.00017075919538267137,0.27876106194690264
0.00017075919538267137,0.31211708645336966
0.00018783511492093848,0.31211708645336966
0.00018783511492093848,0.3196051735874745
0.00020491103445920562,0.3196051735874745
0.00020491103445920562,0.3270932607215793
0.00022198695399747276,0.3270932607215793
0.00022198695399747276,0.3577263444520082
0.0002390628735357399,0.3577263444520082
0.0002390628735357399,0.359428182437032
0.000256138793074007,0.359428182437032
0.000256138793074007,0.36181075561606535
0.0002732147126122742,0.36181075561606535
0.0002732147126122742,0.365214431586113
0.0002732147126122742,0.3658951667801225
0.0002732147126122742,0.3747447243022464
0.0002902906321505413,0.3747447243022464
0.0002902906321505413,0.3791695030633084
0.00030736655168880846,0.3791695030633084
0.00030736655168880846,0.39312457454050376
0.00034151839076534274,0.39312457454050376
0.00034151839076534274,0.39788972089857044
0.00035859431030360985,0.39788972089857044
0.00035859431030360985,0.40605854322668483
0.00037567022984187696,0.40605854322668483
0.00037567022984187696,0.4247787610619469
0.00039274614938014413,0.4247787610619469
0.00039274614938014413,0.43669162695711367
0.00040982206891841124,0.43669162695711367
0.00040982206891841124,0.4400953029271613
0.0004268979884566784,0.4400953029271613
0.0004268979884566784,0.45234853641933287
0.0004439739079949455,0.45234853641933287
0.0004439739079949455,0.4567733151803948
0.0004610498275332127,0.4567733151803948
0.0004610498275332127,0.45847515316541865
0.0004781257470714798,0.45847515316541865
0.0004781257470714798,0.45915588835942817
0.0004952016666097469,0.45915588835942817
0.0004952016666097469,0.4635806671204901
0.000512277586148014,0.4635806671204901
0.000512277586148014,0.46630360789652825
0.0005293535056862812,0.46630360789652825
0.0005293535056862812,0.46834581347855686
0.0005464294252245484,0.46834581347855686
0.0005464294252245484,0.4686861810755616
0.0005976571838393497,0.4686861810755616
0.0005976571838393497,0.4758339006126617
0.0006147331033776169,0.4758339006126617
0.0006147331033776169,0.478216473791695
0.000631809022915884,0.478216473791695
0.000631809022915884,0.48162014976174267
0.0006488849424541511,0.48162014976174267
0.0006488849424541511,0.4857045609257999
0.0006659608619924183,0.4857045609257999
0.0006659608619924183,0.48672566371681414
0.0006830367815306855,0.48672566371681414
0.0006830367815306855,0.48842750170183796
0.0007001127010689526,0.48842750170183796
0.0007001127010689526,0.494213750850919
0.0007171886206072197,0.494213750850919
0.0007171886206072197,0.4989788972089857
0.0007342645401454868,0.4989788972089857
0.0007342645401454868,0.5078284547311096
0.0007513404596837539,0.5078284547311096
0.0007513404596837539,0.517358747447243
0.0007684163792220211,0.517358747447243
0.0007684163792220211,0.5176991150442478
0.0008025682182985554,0.5176991150442478
0.0008025682182985554,0.5279101429543908
0.0008367200573750896,0.5279101429543908
0.0008367200573750896,0.5289312457454051
0.0008537959769133568,0.5289312457454051
0.0008537959769133568,0.5316541865214431
0.0008537959769133568,0.5323349217154527
0.0008537959769133568,0.5343771272974813
0.0008708718964516239,0.5343771272974813
0.0008708718964516239,0.5398230088495575
0.000887947815989891,0.5398230088495575
0.000887947815989891,0.5415248468345814
0.0009050237355281582,0.5415248468345814
0.0009050237355281582,0.5418652144315861
0.0009220996550664254,0.5418652144315861
0.0009220996550664254,0.5445881552076243
0.0009391755746046925,0.5445881552076243
0.0009391755746046925,0.544928522804629
0.0009733274136812267,0.544928522804629
0.0009733274136812267,0.5459496255956433
0.0009904033332194938,0.5459496255956433
0.0009904033332194938,0.5466303607896529
0.001024555172296028,0.5466303607896529
0.001024555172296028,0.5510551395507147
0.0010416310918342953,0.5510551395507147
0.0010416310918342953,0.5534377127297482
0.0010587070113725625,0.5534377127297482
0.0010587070113725625,0.5582028590878149
0.0010757829309108295,0.5582028590878149
0.0010757829309108295,0.5619469026548672
0.0010928588504490967,0.5619469026548672
0.0010928588504490967,0.5626276378488768
0.0011099347699873637,0.5626276378488768
0.0011099347699873637,0.5636487406398911
0.001127010689525631,0.5636487406398911
0.001127010689525631,0.5646698434309054
0.0011440866090638982,0.5646698434309054
0.0011440866090638982,0.5684138869979578
0.0011611625286021652,0.5684138869979578
0.0011611625286021652,0.5704560925799864
0.0011782384481404324,0.5704560925799864
0.0011782384481404324,0.5731790333560245
0.0011953143676786994,0.5731790333560245
0.0011953143676786994,0.5762423417290674
0.0012123902872169666,0.5762423417290674
0.0012123902872169666,0.578284547311096
0.0012294662067552338,0.578284547311096
0.0012294662067552338,0.5793056501021103
0.0012465421262935008,0.5793056501021103
0.0012465421262935008,0.5803267528931245
0.0012977698849083023,0.5803267528931245
0.0012977698849083023,0.5810074880871341
0.0013148458044465695,0.5810074880871341
0.0013148458044465695,0.5820285908781484
0.0013319217239848365,0.5820285908781484
0.0013319217239848365,0.5823689584751531
0.0013489976435231037,0.5823689584751531
0.0013489976435231037,0.582709326072158
0.001366073563061371,0.582709326072158
0.001366073563061371,0.5850918992511913
0.001383149482599638,0.5850918992511913
0.001383149482599638,0.585432266848196
0.0014002254021379052,0.585432266848196
0.0014002254021379052,0.59428182437032
0.0014173013216761722,0.59428182437032
0.0014173013216761722,0.5946221919673247
0.0014343772412144394,0.5946221919673247
0.0014343772412144394,0.5959836623553437
0.0014514531607527066,0.5959836623553437
0.0014514531607527066,0.5963240299523486
0.0014685290802909736,0.5963240299523486
0.0014685290802909736,0.5976855003403676
0.0014856049998292408,0.5976855003403676
0.0014856049998292408,0.5983662355343772
0.0015026809193675078,0.5983662355343772
0.0015026809193675078,0.5987066031313819
0.001519756838905775,0.5987066031313819
0.001519756838905775,0.6007488087134105
0.0015368327584440423,0.6007488087134105
0.0015368327584440423,0.60142954390742
0.0015539086779823093,0.60142954390742
0.0015539086779823093,0.602791014295439
0.0015880605170588435,0.602791014295439
0.0015880605170588435,0.6034717494894486
0.0016051364365971107,0.6034717494894486
0.0016051364365971107,0.6051735874744725
0.001622212356135378,0.6051735874744725
0.001622212356135378,0.6085772634445201
0.001639288275673645,0.6085772634445201
0.001639288275673645,0.6106194690265486
0.0016563641952119122,0.6106194690265486
0.0016563641952119122,0.6119809394145678
0.0016905160342884464,0.6119809394145678
0.0016905160342884464,0.6147038801906058
0.0017075919538267136,0.6147038801906058
0.0017075919538267136,0.6150442477876106
0.0017417437929032479,0.6150442477876106
0.0017417437929032479,0.6164057181756297
0.001758819712441515,0.6164057181756297
0.001758819712441515,0.6167460857726345
0.001775895631979782,0.6167460857726345
0.001775895631979782,0.6191286589516678
0.0018100474710563163,0.6191286589516678
0.0018100474710563163,0.6211708645336964
0.0018271233905945835,0.6211708645336964
0.0018271233905945835,0.6228727025187202
0.0018612752296711178,0.6228727025187202
0.0018612752296711178,0.6255956432947584
0.001878351149209385,0.6255956432947584
0.001878351149209385,0.628999319264806
0.0019125029882859192,0.628999319264806
0.0019125029882859192,0.6307011572498298
0.0019295789078241864,0.6307011572498298
0.0019295789078241864,0.6310415248468346
0.0019466548273624534,0.6310415248468346
0.0019466548273624534,0.6324029952348537
0.0019637307469007204,0.6324029952348537
0.0019637307469007204,0.6327433628318584
0.0019808066664389876,0.6327433628318584
0.0019808066664389876,0.6344452008168823
0.001997882585977255,0.6344452008168823
0.001997882585977255,0.6364874063989108
0.002049110344592056,0.6364874063989108
0.002049110344592056,0.6381892443839347
0.0020661862641303233,0.6381892443839347
0.0020661862641303233,0.6385296119809394
0.0020832621836685905,0.6385296119809394
0.0020832621836685905,0.639210347174949
0.0021003381032068578,0.639210347174949
0.0021003381032068578,0.6409121851599727
0.002117414022745125,0.6409121851599727
0.002117414022745125,0.6422736555479919
0.002151565861821659,0.6422736555479919
0.002151565861821659,0.6446562287270252
0.002168641781359926,0.6446562287270252
0.002168641781359926,0.6456773315180395
0.0021857177008981934,0.6456773315180395
0.0021857177008981934,0.6466984343090538
0.0022198695399747274,0.6466984343090538
0.0022198695399747274,0.6494213750850919
0.0022369454595129947,0.6494213750850919
0.0022369454595129947,0.6497617426820966
0.002254021379051262,0.6497617426820966
0.002254021379051262,0.6504424778761062
0.002271097298589529,0.6504424778761062
0.002271097298589529,0.65214431586113
0.0022881732181277963,0.65214431586113
0.0022881732181277963,0.6524846834581348
0.002305249137666063,0.6524846834581348
0.002305249137666063,0.6528250510551395
0.0023223250572043303,0.6528250510551395
0.0023223250572043303,0.6538461538461539
0.0023394009767425976,0.6538461538461539
0.0023394009767425976,0.6548672566371682
0.0023564768962808648,0.6548672566371682
0.0023564768962808648,0.6565690946221919
0.0023906287353573988,0.6565690946221919
0.0023906287353573988,0.6569094622191968
0.002407704654895666,0.6569094622191968
0.002407704654895666,0.6572498298162015
0.0024247805744339332,0.6572498298162015
0.0024247805744339332,0.6609938733832539
0.0024589324135104677,0.6609938733832539
0.0024589324135104677,0.6613342409802587
0.0024930842525870017,0.6613342409802587
0.0024930842525870017,0.6616746085772635
0.002510160172125269,0.6616746085772635
0.002510160172125269,0.6620149761742682
0.0025443120112018033,0.6620149761742682
0.0025443120112018033,0.6643975493533015
0.0025784638502783373,0.6643975493533015
0.0025784638502783373,0.6667801225323349
0.0025955397698166046,0.6667801225323349
0.0025955397698166046,0.6708645336963921
0.002612615689354872,0.6708645336963921
0.002612615689354872,0.6712049012933968
0.0026467675284314062,0.6712049012933968
0.0026467675284314062,0.672566371681416
0.002663843447969673,0.672566371681416
0.002663843447969673,0.6729067392784207
0.0026809193675079402,0.6729067392784207
0.0026809193675079402,0.6746085772634445
0.0026979952870462075,0.6746085772634445
0.0026979952870462075,0.6766507828454731
0.002732147126122742,0.6766507828454731
0.002732147126122742,0.6790333560245064
0.0027492230456610087,0.6790333560245064
0.0027492230456610087,0.679714091218516
0.002766298965199276,0.679714091218516
0.002766298965199276,0.6803948264125256
0.0028516785628906116,0.6803948264125256
0.0028516785628906116,0.6807351940095303
0.002868754482428879,0.6807351940095303
0.002868754482428879,0.6814159292035398
0.002885830401967146,0.6814159292035398
0.002885830401967146,0.6824370319945541
0.0029029063215054132,0.6824370319945541
0.0029029063215054132,0.6834581347855684
0.00291998224104368,0.6834581347855684
0.00291998224104368,0.6837985023825732
0.0029541340801202145,0.6837985023825732
0.0029541340801202145,0.6848196051735874
0.0029712099996584817,0.6848196051735874
0.0029712099996584817,0.6851599727705923
0.003022437758273283,0.6851599727705923
0.003022437758273283,0.6865214431586113
0.00303951367781155,0.6865214431586113
0.00303951367781155,0.6872021783526209
0.0030565895973498174,0.6872021783526209
0.0030565895973498174,0.6878829135466303
0.0030736655168880846,0.6878829135466303
0.0030736655168880846,0.6889040163376446
0.003124893275502886,0.6889040163376446
0.003124893275502886,0.6892443839346494
0.003141969195041153,0.6892443839346494
0.003141969195041153,0.689925119128659
0.003176121034117687,0.689925119128659
0.003176121034117687,0.6909462219196733
0.0032102728731942215,0.6909462219196733
0.0032102728731942215,0.6916269571136828
0.003244424712270756,0.6916269571136828
0.003244424712270756,0.6919673247106876
0.00327857655134729,0.6919673247106876
0.00327857655134729,0.6953710006807352
0.0033468802295003584,0.6953710006807352
0.0033468802295003584,0.697072838665759
0.003381032068576893,0.697072838665759
0.003381032068576893,0.6977535738597685
0.00339810798811516,0.6977535738597685
0.00339810798811516,0.6991150442477876
0.0034151839076534273,0.6991150442477876
0.0034151839076534273,0.6994554118447924
0.0034664116662682285,0.6994554118447924
0.0034664116662682285,0.7011572498298162
0.0034834875858064957,0.7011572498298162
0.0034834875858064957,0.7031994554118448
0.003500563505344763,0.7031994554118448
0.003500563505344763,0.7045609257998638
0.003534715344421297,0.7045609257998638
0.003534715344421297,0.7052416609938734
0.0035859431030360986,0.7052416609938734
0.0035859431030360986,0.7055820285908782
0.003603019022574366,0.7055820285908782
0.003603019022574366,0.7100068073519401
0.0036200949421126326,0.7100068073519401
0.0036200949421126326,0.7103471749489448
0.003654246781189167,0.7103471749489448
0.003654246781189167,0.7106875425459497
0.0036883986202657015,0.7106875425459497
0.0036883986202657015,0.7110279101429544
0.0037054745398039683,0.7110279101429544
0.0037054745398039683,0.713070115724983
0.0037225504593422355,0.713070115724983
0.0037225504593422355,0.7134104833219878
0.0037396263788805027,0.7134104833219878
0.0037396263788805027,0.7137508509189925
0.00375670229841877,0.7137508509189925
0.00375670229841877,0.7140912185159973
0.003807930057033571,0.7140912185159973
0.003807930057033571,0.7147719537100068
0.0038250059765718384,0.7147719537100068
0.0038250059765718384,0.7151123213070115
0.0038420818961101056,0.7151123213070115
0.0038420818961101056,0.7154526889040164
0.0038762337351866396,0.7154526889040164
0.0038762337351866396,0.7157930565010211
0.003893309654724907,0.7157930565010211
0.003893309654724907,0.7161334240980258
0.003910385574263174,0.7161334240980258
0.003910385574263174,0.7178352620830497
0.003927461493801441,0.7178352620830497
0.003927461493801441,0.7195371000680735
0.00399576517195451,0.7195371000680735
0.00399576517195451,0.7205582028590878
0.0040128410914927765,0.7205582028590878
0.0040128410914927765,0.7212389380530974
0.004029917011031044,0.7212389380530974
0.004029917011031044,0.7215793056501021
0.004046992930569311,0.7215793056501021
0.004046992930569311,0.7249829816201497
0.004081144769645845,0.7249829816201497
0.004081144769645845,0.7256637168141593
0.004098220689184112,0.7256637168141593
0.004098220689184112,0.726004084411164
0.00411529660872238,0.726004084411164
0.00411529660872238,0.7266848196051736
0.004217752125951982,0.7266848196051736
0.004217752125951982,0.7277059223961879
0.00423482804549025,0.7277059223961879
0.00423482804549025,0.7283866575901974
0.004286055804105051,0.7283866575901974
0.004286055804105051,0.729067392784207
0.004337283562719852,0.729067392784207
0.004337283562719852,0.7294077603812117
0.004354359482258119,0.7294077603812117
0.004354359482258119,0.7297481279782164
0.004371435401796387,0.7297481279782164
0.004371435401796387,0.7300884955752213
0.004473890919025989,0.7300884955752213
0.004473890919025989,0.730428863172226
0.004542194597179058,0.730428863172226
0.004542194597179058,0.7307692307692307
0.004559270516717325,0.7307692307692307
0.004559270516717325,0.7311095983662356
0.004576346436255593,0.7311095983662356
0.004576346436255593,0.731790333560245
0.0045934223557938594,0.731790333560245
0.0045934223557938594,0.7324710687542546
0.004610498275332126,0.7324710687542546
0.004610498275332126,0.7328114363512593
0.004644650114408661,0.7328114363512593
0.004644650114408661,0.7331518039482642
0.0047129537925617295,0.7331518039482642
0.0047129537925617295,0.7334921715452689
0.004798333390253065,0.7334921715452689
0.004798333390253065,0.734853641933288
0.0048324852293296,0.734853641933288
0.0048324852293296,0.7351940095302927
0.0048495611488678664,0.7351940095302927
0.0048495611488678664,0.7355343771272975
0.004883712987944401,0.7355343771272975
0.004883712987944401,0.7358747447243023
0.004900788907482668,0.7358747447243023
0.004900788907482668,0.736215112321307
0.004934940746559202,0.736215112321307
0.004934940746559202,0.7368958475153166
0.00495201666609747,0.7368958475153166
0.00495201666609747,0.7372362151123213
0.005020320344250538,0.7372362151123213
0.005020320344250538,0.7382573179033356
0.005054472183327072,0.7382573179033356
0.005054472183327072,0.7392784206943499
0.005088624022403607,0.7392784206943499
0.005088624022403607,0.7406398910823689
0.0051056999419418735,0.7406398910823689
0.0051056999419418735,0.7413206262763785
0.005139851781018408,0.7413206262763785
0.005139851781018408,0.7416609938733832
0.005174003620094942,0.7416609938733832
0.005174003620094942,0.742001361470388
0.005191079539633209,0.742001361470388
0.005191079539633209,0.7433628318584071
0.005208155459171477,0.7433628318584071
0.005208155459171477,0.7440435670524166
0.00524230729824801,0.7440435670524166
0.00524230729824801,0.7447243022464262
0.005310610976401079,0.7447243022464262
0.005310610976401079,0.7457454050374405
0.005344762815477614,0.7457454050374405
0.005344762815477614,0.7467665078284548
0.005447218332707216,0.7467665078284548
0.005447218332707216,0.7481279782164738
0.005464294252245484,0.7481279782164738
0.005464294252245484,0.7498298162014976
0.005481370171783751,0.7498298162014976
0.005481370171783751,0.7511912865895167
0.0055496738499368195,0.7511912865895167
0.0055496738499368195,0.7525527569775358
0.0056179775280898875,0.7525527569775358
0.0056179775280898875,0.7528931245745405
0.005635053447628155,0.7528931245745405
0.005635053447628155,0.7532334921715452
0.005652129367166422,0.7532334921715452
0.005652129367166422,0.7542545949625595
0.005669205286704689,0.7542545949625595
0.005669205286704689,0.7552756977535738
0.005686281206242956,0.7552756977535738
0.005686281206242956,0.7556160653505786
0.005703357125781223,0.7556160653505786
0.005703357125781223,0.7559564329475834
0.005720433045319491,0.7559564329475834
0.005720433045319491,0.7562968005445881
0.005754584884396024,0.7562968005445881
0.005754584884396024,0.7583390061266168
0.005771660803934292,0.7583390061266168
0.005771660803934292,0.7590197413206263
0.005788736723472559,0.7590197413206263
0.005788736723472559,0.7593601089176311
0.00583996448208736,0.7593601089176311
0.00583996448208736,0.7597004765146358
0.005857040401625628,0.7597004765146358
0.005857040401625628,0.7603812117086454
0.005891192240702162,0.7603812117086454
0.005891192240702162,0.7610619469026548
0.005925344079778696,0.7610619469026548
0.005925344079778696,0.7614023144996597
0.005976571838393498,0.7614023144996597
0.005976571838393498,0.7617426820966644
0.005993647757931765,0.7617426820966644
0.005993647757931765,0.7641252552756977
0.006027799597008299,0.7641252552756977
0.006027799597008299,0.765146358066712
0.006044875516546566,0.765146358066712
0.006044875516546566,0.7661674608577264
0.0060619514360848335,0.7661674608577264
0.0060619514360848335,0.7665078284547311
0.006096103275161367,0.7665078284547311
0.006096103275161367,0.7668481960517358
0.006113179194699635,0.7668481960517358
0.006113179194699635,0.7671885636487407
0.006164406953314436,0.7671885636487407
0.006164406953314436,0.7678692988427501
0.006181482872852703,0.7678692988427501
0.006181482872852703,0.768209666439755
0.00619855879239097,0.768209666439755
0.00619855879239097,0.7705922396187883
0.006266862470544038,0.7705922396187883
0.006266862470544038,0.770932607215793
0.006301014309620573,0.770932607215793
0.006301014309620573,0.7716133424098026
0.0063180902291588405,0.7716133424098026
0.0063180902291588405,0.7722940776038121
0.006352242068235374,0.7722940776038121
0.006352242068235374,0.7729748127978217
0.0063863939073119085,0.7729748127978217
0.0063863939073119085,0.7733151803948264
0.006471773505003244,0.7733151803948264
0.006471773505003244,0.7736555479918312
0.006505925344079779,0.7736555479918312
0.006505925344079779,0.7746766507828454
0.00655715310269458,0.7746766507828454
0.00655715310269458,0.7750170183798503
0.006591304941771114,0.7750170183798503
0.006591304941771114,0.7760381211708646
0.006608380861309381,0.7760381211708646
0.006608380861309381,0.7763784887678693
0.0066425327003859155,0.7763784887678693
0.0066425327003859155,0.776718856364874
0.006659608619924183,0.776718856364874
0.006659608619924183,0.7770592239618789
0.006710836378538984,0.7770592239618789
0.006710836378538984,0.7773995915588836
0.006762064137153786,0.7773995915588836
0.006762064137153786,0.7777399591558883
0.00679621597623032,0.7777399591558883
0.00679621597623032,0.7780803267528931
0.0068303678153068545,0.7780803267528931
0.0068303678153068545,0.7784206943498979
0.006847443734845121,0.7784206943498979
0.006847443734845121,0.7787610619469026
0.006966975171612991,0.7787610619469026
0.006966975171612991,0.7791014295439074
0.007001127010689526,0.7791014295439074
0.007001127010689526,0.779782164737917
0.007052354769304327,0.779782164737917
0.007052354769304327,0.7801225323349217
0.0070865066083808615,0.7801225323349217
0.0070865066083808615,0.781143635125936
0.007137734366995663,0.781143635125936
0.007137734366995663,0.7814840027229408
0.0071548102865339296,0.7814840027229408
0.0071548102865339296,0.7818243703199456
0.007171886206072197,0.7818243703199456
0.007171886206072197,0.7821647379169503
0.007188962125610464,0.7821647379169503
0.007188962125610464,0.782505105513955
0.007206038045148732,0.782505105513955
0.007206038045148732,0.7828454731109599
0.007257265803763533,0.7828454731109599
0.007257265803763533,0.7831858407079646
0.0072743417233018,0.7831858407079646
0.0072743417233018,0.7835262083049693
0.007308493562378334,0.7835262083049693
0.007308493562378334,0.7838665759019742
0.00739387316006967,0.7838665759019742
0.00739387316006967,0.7845473110959836
0.007428024999146204,0.7845473110959836
0.007428024999146204,0.7852280462899932
0.0074792527577610055,0.7852280462899932
0.0074792527577610055,0.7855684138869979
0.00751340459683754,0.7855684138869979
0.00751340459683754,0.7862491490810075
0.007530480516375807,0.7862491490810075
0.007530480516375807,0.786929884275017
0.007615860114067142,0.786929884275017
0.007615860114067142,0.7879509870660313
0.007650011953143677,0.7879509870660313
0.007650011953143677,0.7893124574540503
0.007718315631296746,0.7893124574540503
0.007718315631296746,0.7906739278420695
0.0077353915508350125,0.7906739278420695
0.0077353915508350125,0.7910142954390742
0.007752467470373279,0.7910142954390742
0.007752467470373279,0.7913546630360789
0.007786619309449814,0.7913546630360789
0.007786619309449814,0.7916950306330838
0.007820771148526348,0.7916950306330838
0.007820771148526348,0.7920353982300885
0.007957378504832486,0.7920353982300885
0.007957378504832486,0.7927161334240981
0.007974454424370753,0.7927161334240981
0.007974454424370753,0.7930565010211028
0.008008606263447286,0.7930565010211028
0.008008606263447286,0.7940776038121171
0.008042758102523822,0.7940776038121171
0.008042758102523822,0.7944179714091218
0.00816228953929169,0.7944179714091218
0.00816228953929169,0.7947583390061266
0.008179365458829958,0.7947583390061266
0.008179365458829958,0.7954390742001362
0.008298896895597829,0.7954390742001362
0.008298896895597829,0.7957794417971409
0.008350124654212629,0.7957794417971409
0.008350124654212629,0.7961198093941457
0.008418428332365698,0.7961198093941457
0.008418428332365698,0.7964601769911505
0.0084696560909805,0.7964601769911505
0.0084696560909805,0.7988427501701838
0.008486732010518767,0.7988427501701838
0.008486732010518767,0.7995234853641934
0.008503807930057034,0.7995234853641934
0.008503807930057034,0.7998638529611981
0.008537959769133567,0.7998638529611981
0.008537959769133567,0.8002042205582028
0.008572111608210102,0.8002042205582028
0.008572111608210102,0.8005445881552076
0.008606263447286636,0.8005445881552076
0.008606263447286636,0.8015656909462219
0.008623339366824903,0.8015656909462219
0.008623339366824903,0.8019060585432267
0.008657491205901438,0.8019060585432267
0.008657491205901438,0.8025867937372362
0.008674567125439705,0.8025867937372362
0.008674567125439705,0.8032675289312458
0.008691643044977972,0.8032675289312458
0.008691643044977972,0.8046289993192648
0.008708718964516238,0.8046289993192648
0.008708718964516238,0.8049693669162695
0.008725794884054507,0.8049693669162695
0.008725794884054507,0.8053097345132744
0.008777022642669307,0.8053097345132744
0.008777022642669307,0.8056501021102791
0.00882825040128411,0.8056501021102791
0.00882825040128411,0.8066712049012934
0.008845326320822376,0.8066712049012934
0.008845326320822376,0.8070115724982981
0.008930705918513712,0.8070115724982981
0.008930705918513712,0.807351940095303
0.00899900959666678,0.807351940095303
0.00899900959666678,0.8076923076923077
0.009050237355281581,0.8076923076923077
0.009050237355281581,0.8080326752893124
0.009084389194358116,0.8080326752893124
0.009084389194358116,0.808713410483322
0.009101465113896383,0.808713410483322
0.009101465113896383,0.8090537780803267
0.00911854103343465,0.8090537780803267
0.00911854103343465,0.8097345132743363
0.009152692872511185,0.8097345132743363
0.009152692872511185,0.8104152484683458
0.009220996550664252,0.8104152484683458
0.009220996550664252,0.8107556160653506
0.009238072470202521,0.8107556160653506
0.009238072470202521,0.8121170864533697
0.009323452067893857,0.8121170864533697
0.009323452067893857,0.8124574540503744
0.00935760390697039,0.8124574540503744
0.00935760390697039,0.8127978216473791
0.009374679826508657,0.8127978216473791
0.009374679826508657,0.813138189244384
0.009408831665585192,0.813138189244384
0.009408831665585192,0.8134785568413887
0.009425907585123459,0.8134785568413887
0.009425907585123459,0.8138189244383934
0.009460059424199993,0.8138189244383934
0.009460059424199993,0.814499659632403
0.00947713534373826,0.814499659632403
0.00947713534373826,0.8151803948264126
0.009494211263276528,0.8151803948264126
0.009494211263276528,0.8155207624234173
0.009511287182814795,0.8155207624234173
0.009511287182814795,0.815861130020422
0.009562514941429595,0.815861130020422
0.009562514941429595,0.8168822328114363
0.009579590860967864,0.8168822328114363
0.009579590860967864,0.8172226004084411
0.00959666678050613,0.8172226004084411
0.00959666678050613,0.8175629680054459
0.009630818619582664,0.8175629680054459
0.009630818619582664,0.8182437031994554
0.009699122297735733,0.8182437031994554
0.009699122297735733,0.8192648059904697
0.009716198217274,0.8192648059904697
0.009716198217274,0.8196051735874744
0.009733274136812268,0.8196051735874744
0.009733274136812268,0.8199455411844793
0.009767425975888802,0.8199455411844793
0.009767425975888802,0.8206262763784887
0.009886957412656671,0.8206262763784887
0.009886957412656671,0.8209666439754936
0.00990403333219494,0.8209666439754936
0.00990403333219494,0.821647379169503
0.00995526109080974,0.821647379169503
0.00995526109080974,0.8219877467665079
0.009972337010348007,0.8219877467665079
0.009972337010348007,0.8223281143635126
0.010006488849424542,0.8223281143635126
0.010006488849424542,0.8230088495575221
0.010023564768962809,0.8230088495575221
0.010023564768962809,0.8236895847515316
0.010040640688501076,0.8236895847515316
0.010040640688501076,0.8243703199455412
0.010074792527577611,0.8243703199455412
0.010074792527577611,0.8250510551395507
0.010108944366654144,0.8250510551395507
0.010108944366654144,0.8253914227365555
0.010126020286192411,0.8253914227365555
0.010126020286192411,0.8264125255275698
0.010143096205730678,0.8264125255275698
0.010143096205730678,0.8267528931245746
0.01019432396434548,0.8267528931245746
0.01019432396434548,0.827433628318584
0.010279703562036816,0.827433628318584
0.010279703562036816,0.8281143635125936
0.010296779481575083,0.8281143635125936
0.010296779481575083,0.8284547311095983
0.01031385540111335,0.8284547311095983
0.01031385540111335,0.8287950987066032
0.010330931320651618,0.8287950987066032
0.010330931320651618,0.8294758339006126
0.010348007240189885,0.8294758339006126
0.010348007240189885,0.8298162014976175
0.01043338683788122,0.8298162014976175
0.01043338683788122,0.8301565690946222
0.010467538676957754,0.8301565690946222
0.010467538676957754,0.8311776718856365
0.010621221952802158,0.8311776718856365
0.010621221952802158,0.8315180394826412
0.01067244971141696,0.8315180394826412
0.01067244971141696,0.8321987746766508
0.010723677470031761,0.8321987746766508
0.010723677470031761,0.8325391422736556
0.010757829309108296,0.8325391422736556
0.010757829309108296,0.8332198774676651
0.010979816263105768,0.8332198774676651
0.010979816263105768,0.8349217154526889
0.01103104402172057,0.8349217154526889
0.01103104402172057,0.8352620830496936
0.011065195860797104,0.8352620830496936
0.011065195860797104,0.8356024506466985
0.011167651378026706,0.8356024506466985
0.011167651378026706,0.8362831858407079
0.011235955056179775,0.8362831858407079
0.011235955056179775,0.8366235534377128
0.011304258734332844,0.8366235534377128
0.011304258734332844,0.8369639210347175
0.011338410573409377,0.8369639210347175
0.011338410573409377,0.8373042886317222
0.01138963833202418,0.8373042886317222
0.01138963833202418,0.8376446562287271
0.011423790171100713,0.8376446562287271
0.011423790171100713,0.8379850238257318
0.011440866090638982,0.8379850238257318
0.011440866090638982,0.8383253914227365
0.011526245688330317,0.8383253914227365
0.011526245688330317,0.8390061266167461
0.01162870120555992,0.8390061266167461
0.01162870120555992,0.8393464942137508
0.011662853044636453,0.8393464942137508
0.011662853044636453,0.8396868618107556
0.011714080803251255,0.8396868618107556
0.011714080803251255,0.8400272294077604
0.011833612240019125,0.8400272294077604
0.011833612240019125,0.8407079646017699
0.011884839998633927,0.8407079646017699
0.011884839998633927,0.8410483321987747
0.012021447354940063,0.8410483321987747
0.012021447354940063,0.8413886997957795
0.012140978791707934,0.8413886997957795
0.012140978791707934,0.8417290673927842
0.012328813906628872,0.8417290673927842
0.012328813906628872,0.8420694349897889
0.012345889826167139,0.8420694349897889
0.012345889826167139,0.8427501701837985
0.012380041665243674,0.8427501701837985
0.012380041665243674,0.8430905377808032
0.012414193504320208,0.8430905377808032
0.012414193504320208,0.8437712729748128
0.012653256377855948,0.8437712729748128
0.012653256377855948,0.8444520081688224
0.012687408216932481,0.8444520081688224
0.012687408216932481,0.8454731109598366
0.012704484136470748,0.8454731109598366
0.012704484136470748,0.8461538461538461
0.012721560056009017,0.8461538461538461
0.012721560056009017,0.8464942137508509
0.012772787814623817,0.8464942137508509
0.012772787814623817,0.8468345813478557
0.012789863734162084,0.8468345813478557
0.012789863734162084,0.8471749489448605
0.012926471090468222,0.8471749489448605
0.012926471090468222,0.8475153165418652
0.012960622929544755,0.8475153165418652
0.012960622929544755,0.84785568413887
0.013131382124927427,0.84785568413887
0.013131382124927427,0.8481960517358748
0.013148458044465695,0.8481960517358748
0.013148458044465695,0.8485364193328795
0.013302141320310098,0.8485364193328795
0.013302141320310098,0.8488767869298843
0.013319217239848366,0.8488767869298843
0.013319217239848366,0.8492171545268891
0.0133533690789249,0.8492171545268891
0.0133533690789249,0.8498978897208985
0.013387520918001434,0.8498978897208985
0.013387520918001434,0.8502382573179034
0.013455824596154502,0.8502382573179034
0.013455824596154502,0.8509189925119128
0.01347290051569277,0.8509189925119128
0.01347290051569277,0.8515997277059224
0.013558280113384105,0.8515997277059224
0.013558280113384105,0.8519400953029271
0.013797342986919845,0.8519400953029271
0.013797342986919845,0.852280462899932
0.013848570745534647,0.852280462899932
0.013848570745534647,0.8526208304969367
0.01395102626276425,0.8526208304969367
0.01395102626276425,0.8529611980939414
0.01407055769953212,0.8529611980939414
0.01407055769953212,0.8533015656909462
0.014087633619070387,0.8533015656909462
0.014087633619070387,0.8539823008849557
0.014104709538608654,0.8539823008849557
0.014104709538608654,0.8543226684819605
0.014121785458146921,0.8543226684819605
0.014121785458146921,0.8546630360789653
0.014241316894914792,0.8546630360789653
0.014241316894914792,0.85500340367597
0.014395000170759195,0.85500340367597
0.014395000170759195,0.8553437712729748
0.014412076090297463,0.8553437712729748
0.014412076090297463,0.8556841388699796
0.014463303848912264,0.8556841388699796
0.014463303848912264,0.8560245064669844
0.014736518561524537,0.8560245064669844
0.014736518561524537,0.8563648740639891
0.014753594481062806,0.8563648740639891
0.014753594481062806,0.8567052416609938
0.014838974078754142,0.8567052416609938
0.014838974078754142,0.8570456092579987
0.014856049998292408,0.8570456092579987
0.014856049998292408,0.8573859768550034
0.014975581435060278,0.8573859768550034
0.014975581435060278,0.8577263444520081
0.015095112871828149,0.8577263444520081
0.015095112871828149,0.8587474472430224
0.015163416549981216,0.8587474472430224
0.015163416549981216,0.8590878148400273
0.015180492469519484,0.8590878148400273
0.015180492469519484,0.859428182437032
0.01526587206721082,0.859428182437032
0.01526587206721082,0.8597685500340367
0.015300023906287354,0.8597685500340367
0.015300023906287354,0.8601089176310415
0.015402479423516956,0.8601089176310415
0.015402479423516956,0.8604492852280463
0.015539086779823094,0.8604492852280463
0.015539086779823094,0.860789652825051
0.015590314538437894,0.860789652825051
0.015590314538437894,0.8614703880190606
0.01562446637751443,0.8614703880190606
0.01562446637751443,0.8621511232130701
0.015692770055667497,0.8621511232130701
0.015692770055667497,0.8624914908100749
0.015778149653358834,0.8624914908100749
0.015778149653358834,0.8628318584070797
0.0158464533315119,0.8628318584070797
0.0158464533315119,0.8635125936010892
0.016170895802738977,0.8635125936010892
0.016170895802738977,0.863852961198094
0.016358730917659915,0.863852961198094
0.016358730917659915,0.8641933287950987
0.016444110515351253,0.8641933287950987
0.016444110515351253,0.8645336963921034
0.01646118643488952,0.8645336963921034
0.01646118643488952,0.8648740639891083
0.016614869710733924,0.8648740639891083
0.016614869710733924,0.8655547991831177
0.016836856664731396,0.8655547991831177
0.016836856664731396,0.8662355343771273
0.016888084423346196,0.8662355343771273
0.016888084423346196,0.866575901974132
0.016905160342884463,0.866575901974132
0.016905160342884463,0.8669162695711369
0.016939312181961,0.8669162695711369
0.016939312181961,0.8672566371681416
0.016956388101499267,0.8672566371681416
0.016956388101499267,0.8675970047651463
0.0169905399405758,0.8675970047651463
0.0169905399405758,0.8679373723621511
0.017007615860114067,0.8679373723621511
0.017007615860114067,0.8682777399591559
0.017434513848570747,0.8682777399591559
0.017434513848570747,0.8686181075561606
0.017451589768109014,0.8686181075561606
0.017451589768109014,0.8689584751531654
0.01751989344626208,0.8689584751531654
0.01751989344626208,0.8692988427501702
0.01757112120487688,0.8692988427501702
0.01757112120487688,0.8699795779441797
0.017588197124415148,0.8699795779441797
0.017588197124415148,0.8703199455411845
0.017673576722106486,0.8703199455411845
0.017673576722106486,0.8706603131381893
0.01770772856118302,0.8706603131381893
0.01770772856118302,0.871000680735194
0.017741880400259553,0.871000680735194
0.017741880400259553,0.8713410483321987
0.01775895631979782,0.8713410483321987
0.01775895631979782,0.8716814159292036
0.0182370820668693,0.8716814159292036
0.0182370820668693,0.8720217835262083
0.01830538574502237,0.8720217835262083
0.01830538574502237,0.872362151123213
0.018339537584098904,0.872362151123213
0.018339537584098904,0.8727025187202179
0.018441993101328505,0.8727025187202179
0.018441993101328505,0.8733832539142273
0.018578600457634643,0.8733832539142273
0.018578600457634643,0.8740639891082369
0.018612752296711176,0.8740639891082369
0.018612752296711176,0.8747447243022465
0.018800587411632118,0.8747447243022465
0.018800587411632118,0.8750850918992512
0.019159181721935727,0.8750850918992512
0.019159181721935727,0.8754254594962559
0.019347016836856665,0.8754254594962559
0.019347016836856665,0.8757658270932607
0.019466548273624536,0.8757658270932607
0.019466548273624536,0.8764465622872702
0.019517776032239337,0.8764465622872702
0.019517776032239337,0.876786929884275
0.019534851951777604,0.876786929884275
0.019534851951777604,0.8771272974812798
0.019620231549468937,0.8771272974812798
0.019620231549468937,0.8774676650782846
0.019825142583928146,0.8774676650782846
0.019825142583928146,0.8778080326752893
0.01985929442300468,0.8778080326752893
0.01985929442300468,0.8784887678692989
0.019995901779310817,0.8784887678692989
0.019995901779310817,0.8788291354663036
0.020183736894231755,0.8788291354663036
0.020183736894231755,0.8791695030633083
0.020491103445920564,0.8791695030633083
0.020491103445920564,0.8795098706603132
0.020542331204535365,0.8795098706603132
0.020542331204535365,0.8798502382573179
0.0205764830436119,0.8798502382573179
0.0205764830436119,0.8801906058543226
0.020610634882688432,0.8801906058543226
0.020610634882688432,0.8805309734513275
0.020764318158532837,0.8805309734513275
0.020764318158532837,0.8812117086453369
0.020883849595300708,0.8812117086453369
0.020883849595300708,0.8818924438393465
0.021071684710221646,0.8818924438393465
0.021071684710221646,0.8822328114363512
0.02110583654929818,0.8822328114363512
0.02110583654929818,0.882573179033356
0.021139988388374713,0.882573179033356
0.021139988388374713,0.8829135466303608
0.02122536798606605,0.8829135466303608
0.02122536798606605,0.8832539142273655
0.021259519825142584,0.8832539142273655
0.021259519825142584,0.8835942818243703
0.021652265974522727,0.8835942818243703
0.021652265974522727,0.8839346494213751
0.02175472149175233,0.8839346494213751
0.02175472149175233,0.8842750170183798
0.021976708445749803,0.8842750170183798
0.021976708445749803,0.8846153846153846
0.022079163962979407,0.8846153846153846
0.022079163962979407,0.8849557522123894
0.022266999077900345,0.8849557522123894
0.022266999077900345,0.8852961198093942
0.02235237867559168,0.8852961198093942
0.02235237867559168,0.8856364874063989
0.022403606434206483,0.8856364874063989
0.022403606434206483,0.8859768550034037
0.02252313787097435,0.8859768550034037
0.02252313787097435,0.8863172226004085
0.022608517468665688,0.8863172226004085
0.022608517468665688,0.8866575901974132
0.02264266930774222,0.8866575901974132
0.02264266930774222,0.8869979577944179
0.022915884020354497,0.8869979577944179
0.022915884020354497,0.8873383253914228
0.022932959939892764,0.8873383253914228
0.022932959939892764,0.8876786929884275
0.023086643215737168,0.8876786929884275
0.023086643215737168,0.8880190605854322
0.023223250572043306,0.8880190605854322
0.023223250572043306,0.8883594281824371
0.02335985792834944,0.8883594281824371
0.02335985792834944,0.8886997957794418
0.023394009767425977,0.8886997957794418
0.023394009767425977,0.8890401633764465
0.023445237526040778,0.8890401633764465
0.023445237526040778,0.8893805309734514
0.023889211434035725,0.8893805309734514
0.023889211434035725,0.8897208985704561
0.02390628735357399,0.8897208985704561
0.02390628735357399,0.8900612661674608
0.024333185342030668,0.8900612661674608
0.024333185342030668,0.8904016337644656
0.024350261261568935,0.8904016337644656
0.024350261261568935,0.8907420013614704
0.02438441310064547,0.8907420013614704
0.02438441310064547,0.8910823689584751
0.024640551893719477,0.8910823689584751
0.024640551893719477,0.8914227365554799
0.024657627813257744,0.8914227365554799
0.024657627813257744,0.8917631041524847
0.024708855571872544,0.8917631041524847
0.024708855571872544,0.8921034717494895
0.024828387008640415,0.8921034717494895
0.024828387008640415,0.892784206943499
0.02515282947986749,0.892784206943499
0.02515282947986749,0.8931245745405038
0.02528943683617363,0.8931245745405038
0.02528943683617363,0.8938053097345132
0.025323588675250162,0.8938053097345132
0.025323588675250162,0.8941456773315181
0.02534066459478843,0.8941456773315181
0.02534066459478843,0.8944860449285228
0.0255114237901711,0.8944860449285228
0.0255114237901711,0.8948264125255275
0.02587001810047471,0.8948264125255275
0.02587001810047471,0.8951667801225324
0.02598954953724258,0.8951667801225324
0.02598954953724258,0.8955071477195371
0.026074929134933915,0.8955071477195371
0.026074929134933915,0.8958475153165418
0.026245688330316586,0.8958475153165418
0.026245688330316586,0.8961878829135467
0.026365219767084457,0.8961878829135467
0.026365219767084457,0.8965282505105514
0.026450599364775795,0.8965282505105514
0.026450599364775795,0.8968686181075561
0.026621358560158466,0.8968686181075561
0.026621358560158466,0.897208985704561
0.026689662238311533,0.897208985704561
0.026689662238311533,0.8975493533015657
0.026860421433694204,0.8975493533015657
0.026860421433694204,0.8978897208985704
0.02687749735323247,0.8978897208985704
0.02687749735323247,0.89857045609258
0.02701410470953861,0.89857045609258
0.02701410470953861,0.8989108236895847
0.02706533246815341,0.8989108236895847
0.02706533246815341,0.8995915588835943
0.02723609166353608,0.8995915588835943
0.02723609166353608,0.899931926480599
0.027526382295686623,0.899931926480599
0.027526382295686623,0.9002722940776038
0.027731293330145828,0.9002722940776038
0.027731293330145828,0.9006126616746086
0.027884976605990233,0.9006126616746086
0.027884976605990233,0.9009530292716134
0.0279532802841433,0.9009530292716134
0.0279532802841433,0.9012933968686181
0.02797035620368157,0.9012933968686181
0.02797035620368157,0.9016337644656228
0.028414330111676513,0.9016337644656228
0.028414330111676513,0.9019741320626277
0.028755848502441856,0.9019741320626277
0.028755848502441856,0.9023144996596324
0.02885830401967146,0.9023144996596324
0.02885830401967146,0.9033356024506467
0.029131518732283732,0.9033356024506467
0.029131518732283732,0.9036759700476514
0.029473037123049075,0.9036759700476514
0.029473037123049075,0.9040163376446563
0.029712099996584817,0.9040163376446563
0.029712099996584817,0.904356705241661
0.030019466548273626,0.904356705241661
0.030019466548273626,0.9046970728386657
0.030138997985041494,0.9046970728386657
0.030138997985041494,0.9050374404356705
0.03015607390457976,0.9050374404356705
0.03015607390457976,0.9053778080326753
0.030395136778115502,0.9053778080326753
0.030395136778115502,0.90571817562968
0.030497592295345103,0.90571817562968
0.030497592295345103,0.9060585432266848
0.030565895973498174,0.9060585432266848
0.030565895973498174,0.9063989108236896
0.030617123732112974,0.9063989108236896
0.030617123732112974,0.9067392784206944
0.03082203476657218,0.9067392784206944
0.03082203476657218,0.9070796460176991
0.031078173559646188,0.9070796460176991
0.031078173559646188,0.9074200136147039
0.03111232539872272,0.9074200136147039
0.03111232539872272,0.9077603812117087
0.031146477237799255,0.9077603812117087
0.031146477237799255,0.9081007488087134
0.03136846419179673,0.9081007488087134
0.03136846419179673,0.9084411164057182
0.03167583074348554,0.9084411164057182
0.03167583074348554,0.908781484002723
0.03198319729517435,0.908781484002723
0.03198319729517435,0.9091218515997277
0.032171032410095286,0.9091218515997277
0.032171032410095286,0.910142954390742
0.03222226016871008,0.910142954390742
0.03222226016871008,0.9104833219877467
0.03241009528363102,0.9104833219877467
0.03241009528363102,0.9108236895847516
0.03252962672039889,0.9108236895847516
0.03252962672039889,0.911504424778761
0.03263208223762849,0.911504424778761
0.03263208223762849,0.9118447923757659
0.032751613674396364,0.9118447923757659
0.032751613674396364,0.9121851599727706
0.032768689593934634,0.9121851599727706
0.032768689593934634,0.9125255275697753
0.03281991735254944,0.9125255275697753
0.03281991735254944,0.9128658951667801
0.032871145111164235,0.9128658951667801
0.032871145111164235,0.9132062627637849
0.03309313206516171,0.9132062627637849
0.03309313206516171,0.9135466303607896
0.03334927085823572,0.9135466303607896
0.03334927085823572,0.9138869979577944
0.03350295413408012,0.9138869979577944
0.03350295413408012,0.9142273655547992
0.033588333731771454,0.9142273655547992
0.033588333731771454,0.914567733151804
0.03363956149038626,0.914567733151804
0.03363956149038626,0.9152484683458135
0.03375909292715413,0.9152484683458135
0.03375909292715413,0.915929203539823
0.03377616884669239,0.915929203539823
0.03377616884669239,0.9162695711368277
0.033810320685768926,0.9162695711368277
0.033810320685768926,0.9166099387338326
0.03406645947884294,0.9166099387338326
0.03406645947884294,0.9169503063308373
0.034647040743144016,0.9169503063308373
0.034647040743144016,0.9176310415248469
0.0351251664902155,0.9176310415248469
0.0351251664902155,0.9179714091218516
0.03536422936375124,0.9179714091218516
0.03536422936375124,0.9183117767188563
0.03541545712236604,0.9183117767188563
0.03541545712236604,0.9186521443158612
0.03546668488098084,0.9186521443158612
0.03546668488098084,0.9189925119128659
0.035688671834978314,0.9189925119128659
0.035688671834978314,0.9193328795098706
0.03604726614528193,0.9193328795098706
0.03604726614528193,0.9196732471068755
0.0364229363751238,0.9196732471068755
0.0364229363751238,0.9200136147038802
0.036508315972815134,0.9200136147038802
0.036508315972815134,0.9203539823008849
0.03657661965096821,0.9203539823008849
0.03657661965096821,0.9206943498978897
0.03679860660496568,0.9206943498978897
0.03679860660496568,0.9210347174948945
0.03700351763942488,0.9210347174948945
0.03700351763942488,0.9213750850918992
0.03765240258187903,0.9213750850918992
0.03765240258187903,0.921715452688904
0.03823298384618012,0.921715452688904
0.03823298384618012,0.9223961878829136
0.038318363443871455,0.9223961878829136
0.038318363443871455,0.9227365554799183
0.03855742631740719,0.9227365554799183
0.03855742631740719,0.9230769230769231
0.03877941327140467,0.9230769230769231
0.03877941327140467,0.9234172906739279
0.038864792869096,0.9234172906739279
0.038864792869096,0.9237576582709326
0.038967248386325606,0.9237576582709326
0.038967248386325606,0.9240980258679373
0.03988934804139203,0.9240980258679373
0.03988934804139203,0.9247787610619469
0.040196714593080836,0.9247787610619469
0.040196714593080836,0.9251191286589516
0.04023086643215737,0.9251191286589516
0.04023086643215737,0.9254594962559565
0.0402650182712339,0.9254594962559565
0.0402650182712339,0.9257998638529612
0.04058946074246098,0.9257998638529612
0.04058946074246098,0.9261402314499659
0.040606536661999246,0.9261402314499659
0.040606536661999246,0.9264805990469708
0.0412041938458386,0.9264805990469708
0.0412041938458386,0.9271613342409802
0.041221269765376864,0.9271613342409802
0.041221269765376864,0.927501701837985
0.04151156039752741,0.927501701837985
0.04151156039752741,0.9278420694349898
0.042177521259519825,0.9278420694349898
0.042177521259519825,0.9288631722260041
0.042467811891670364,0.9288631722260041
0.042467811891670364,0.9292035398230089
0.04268979884566784,0.9292035398230089
0.04268979884566784,0.9295439074200136
0.042997165397356645,0.9295439074200136
0.042997165397356645,0.9298842750170184
0.04304839315597145,0.9298842750170184
0.04304839315597145,0.9305650102110279
0.04376558177657867,0.9305650102110279
0.04376558177657867,0.9312457454050375
0.04429493528226495,0.9312457454050375
0.04429493528226495,0.9315861130020422
0.04465352959256856,0.9315861130020422
0.04465352959256856,0.9319264805990469
0.04472183327072163,0.9319264805990469
0.04472183327072163,0.9322668481960518
0.04485844062702776,0.9322668481960518
0.04485844062702776,0.9326072157930565
0.04502919982241044,0.9326072157930565
0.04502919982241044,0.9329475833900612
0.04506335166148697,0.9329475833900612
0.04506335166148697,0.9332879509870661
0.04508042758102524,0.9332879509870661
0.04508042758102524,0.9336283185840708
0.04514873125917831,0.9336283185840708
0.04514873125917831,0.9339686861810755
0.04555855332809672,0.9339686861810755
0.04555855332809672,0.9343090537780804
0.045643932925788055,0.9343090537780804
0.045643932925788055,0.9346494213750851
0.04661726033946928,0.9346494213750851
0.04661726033946928,0.9349897889720898
0.04675386769577542,0.9349897889720898
0.04675386769577542,0.9353301565690946
0.0471295379256173,0.9353301565690946
0.0471295379256173,0.9356705241660994
0.048137017178375055,0.9356705241660994
0.048137017178375055,0.9360108917631041
0.04834192821283426,0.9360108917631041
0.04834192821283426,0.9363512593601089
0.04839315597144906,0.9363512593601089
0.04839315597144906,0.9366916269571137
0.04893958539667361,0.9366916269571137
0.04893958539667361,0.9370319945541185
0.04900788907482668,0.9370319945541185
0.04900788907482668,0.9373723621511232
0.04912742051159455,0.9373723621511232
0.04912742051159455,0.937712729748128
0.049793381373586965,0.937712729748128
0.049793381373586965,0.9380530973451328
0.049912912810354836,0.9380530973451328
0.049912912810354836,0.9383934649421375
0.05001536832758444,0.9383934649421375
0.05001536832758444,0.9387338325391422
0.05139851781018408,0.9387338325391422
0.05139851781018408,0.9390742001361471
0.051774188040025954,0.9390742001361471
0.051774188040025954,0.9394145677331518
0.0522693897066357,0.9394145677331518
0.0522693897066357,0.9397549353301565
0.05329394487893173,0.9397549353301565
0.05329394487893173,0.9400953029271614
0.05332809671800826,0.9400953029271614
0.05332809671800826,0.9404356705241661
0.05394282982138588,0.9404356705241661
0.05394282982138588,0.9407760381211708
0.05413066493630682,0.9407760381211708
0.05413066493630682,0.9411164057181757
0.054301424131689494,0.9411164057181757
0.054301424131689494,0.9414567733151804
0.054813701717837504,0.9414567733151804
0.054813701717837504,0.9417971409121851
0.05510399234998805,0.9417971409121851
0.05510399234998805,0.94213750850919
0.055360131143062055,0.94213750850919
0.055360131143062055,0.9424778761061947
0.055667497694750864,0.9424778761061947
0.055667497694750864,0.9428182437031994
0.05778491171749599,0.9428182437031994
0.05778491171749599,0.9431586113002042
0.05800689867149346,0.9431586113002042
0.05800689867149346,0.9438393464942137
0.058160581947337864,0.9438393464942137
0.058160581947337864,0.9441797140912185
0.058570404016256274,0.9441797140912185
0.058570404016256274,0.9445200816882233
0.059748642464396706,0.9445200816882233
0.059748642464396706,0.944860449285228
0.05991940165977938,0.944860449285228
0.05991940165977938,0.9452008168822328
0.05998770533793245,0.9452008168822328
0.05998770533793245,0.9455411844792376
0.060056009016085515,0.9455411844792376
0.060056009016085515,0.9458815520762424
0.06024384413100645,0.9458815520762424
0.06024384413100645,0.9462219196732471
0.060585362521771796,0.9462219196732471
0.060585362521771796,0.9465622872702518
0.06102933642976674,0.9465622872702518
0.06102933642976674,0.9469026548672567
0.06222465079744544,0.9469026548672567
0.06222465079744544,0.9472430224642614
0.06224172671698371,0.9472430224642614
0.06224172671698371,0.9475833900612661
0.06229295447559851,0.9475833900612661
0.06229295447559851,0.947923757658271
0.06304429493528227,0.947923757658271
0.06304429493528227,0.9482641252552757
0.06348826884327721,0.9482641252552757
0.06348826884327721,0.9486044928522804
0.06434206482019057,0.9486044928522804
0.06434206482019057,0.9489448604492853
0.06540077183156313,0.9489448604492853
0.06540077183156313,0.94928522804629
0.0657252143027902,0.94928522804629
0.0657252143027902,0.9496255956432947
0.0667156176360097,0.9496255956432947
0.0667156176360097,0.9499659632402995
0.06920870188859671,0.9499659632402995
0.06920870188859671,0.9503063308373043
0.06932823332536457,0.9503063308373043
0.06932823332536457,0.950646698434309
0.06949899252074725,0.950646698434309
0.06949899252074725,0.9509870660313138
0.06984051091151258,0.9509870660313138
0.06984051091151258,0.9513274336283186
0.07007957378504832,0.9513274336283186
0.07007957378504832,0.9516678012253234
0.0703015607390458,0.9516678012253234
0.0703015607390458,0.9520081688223281
0.07247020252040573,0.9520081688223281
0.07247020252040573,0.9523485364193329
0.0728971005088624,0.9523485364193329
0.0728971005088624,0.9526889040163377
0.07451931286499779,0.9526889040163377
0.07451931286499779,0.9530292716133424
0.07463884430176565,0.9530292716133424
0.07467299614084219,0.9530292716133424
0.07624398073836276,0.9530292716133424
0.07624398073836276,0.9533696392103471
0.07675625832451077,0.9533696392103471
0.07675625832451077,0.953710006807352
0.07689286568081691,0.953710006807352
0.07689286568081691,0.9540503744043567
0.07704654895666131,0.9540503744043567
0.07704654895666131,0.9543907420013614
0.07711485263481438,0.9543907420013614
0.07711485263481438,0.9547311095983663
0.07776373757726854,0.9547311095983663
0.07776373757726854,0.955071477195371
0.07819063556572521,0.955071477195371
0.07819063556572521,0.9554118447923757
0.07924934257709777,0.9554118447923757
0.07924934257709777,0.9557522123893806
0.08049588470339128,0.9557522123893806
0.08049588470339128,0.9560925799863853
0.08051296062292955,0.9560925799863853
0.08051296062292955,0.95643294758339
0.0811618455653837,0.95643294758339
0.0811618455653837,0.9567733151803949
0.08160581947337864,0.9567733151803949
0.08160581947337864,0.9571136827773996
0.08204979338137358,0.9571136827773996
0.08204979338137358,0.9574540503744043
0.08382568901335337,0.9574540503744043
0.08382568901335337,0.9577944179714091
0.08437211843857792,0.9577944179714091
0.08437211843857792,0.9584751531654186
0.08493562378334073,0.9584751531654186
0.08493562378334073,0.9588155207624234
0.08508930705918513,0.9588155207624234
0.08508930705918513,0.9591558883594282
0.0853112940131826,0.9591558883594282
0.0853112940131826,0.959496255956433
0.08657491205901438,0.959496255956433
0.08657491205901438,0.9598366235534377
0.08720672108193026,0.9598366235534377
0.08720672108193026,0.9601769911504425
0.0872408729210068,0.9601769911504425
0.0872408729210068,0.9605173587474473
0.0885898705645299,0.9605173587474473
0.0885898705645299,0.960857726344452
0.08903384447252484,0.960857726344452
0.08903384447252484,0.9611980939414567
0.08954612205867286,0.9611980939414567
0.08954612205867286,0.9615384615384616
0.08976810901267034,0.9615384615384616
0.08976810901267034,0.9618788291354663
0.09231242102387213,0.9618788291354663
0.09231242102387213,0.962219196732471
0.09265393941463748,0.962219196732471
0.09265393941463748,0.9625595643294759
0.09415662033400499,0.9625595643294759
0.09415662033400499,0.9628999319264806
0.0959154400464465,0.9628999319264806
0.0959154400464465,0.9632402995234853
0.0959666678050613,0.9632402995234853
0.0959666678050613,0.9635806671204902
0.09832314470134217,0.9635806671204902
0.09832314470134217,0.9639210347174949
0.09839144837949523,0.9639210347174949
0.09839144837949523,0.9642614023144996
0.09854513165533964,0.9642614023144996
0.09854513165533964,0.9646017699115044
0.0995013831494826,0.9646017699115044
0.0995013831494826,0.9649421375085092
0.09994535705747755,0.9649421375085092
0.09994535705747755,0.9652825051055139
0.1019432396434548,0.9652825051055139
0.1019432396434548,0.9656228727025187
0.10390697039035553,0.9656228727025187
0.10390697039035553,0.9659632402995235
0.10407772958573819,0.9659632402995235
0.10407772958573819,0.9663036078965282
0.10766367268877429,0.9663036078965282
0.10766367268877429,0.966643975493533
0.10780028004508042,0.966643975493533
0.10780028004508042,0.9669843430905378
0.1080222669990779,0.9669843430905378
0.1080222669990779,0.9673247106875426
0.10841501314845804,0.9673247106875426
0.10841501314845804,0.9676650782845473
0.10863700010245551,0.9676650782845473
0.10863700010245551,0.9680054458815521
0.10972985895290462,0.9680054458815521
0.10972985895290462,0.9683458134785569
0.11002014958505515,0.9683458134785569
0.11002014958505515,0.9686861810755616
0.11017383286089956,0.9686861810755616
0.11017383286089956,0.9690265486725663
0.11229124688364468,0.9690265486725663
0.11229124688364468,0.9693669162695712
0.1142549776305454,0.9693669162695712
0.1142549776305454,0.9697072838665759
0.11579181038898945,0.9697072838665759
0.11579181038898945,0.9700476514635806
0.11603087326252519,0.9700476514635806
0.11603087326252519,0.9703880190605855
0.11650899900959667,0.9703880190605855
0.11650899900959667,0.9707283866575902
0.11693589699805335,0.9707283866575902
0.11693589699805335,0.9710687542545949
0.12094873808954612,0.9710687542545949
0.12094873808954612,0.9714091218515998
0.12110242136539053,0.9714091218515998
0.12110242136539053,0.9717494894486045
0.12188791366415082,0.9717494894486045
0.12188791366415082,0.9720898570456092
0.12301492435367645,0.9720898570456092
0.12301492435367645,0.972430224642614
0.12479081998565623,0.972430224642614
0.12479081998565623,0.9727705922396188
0.12637888050271506,0.9727705922396188
0.1264130323417916,0.9727705922396188
0.12704484136470748,0.9727705922396188
0.12704484136470748,0.9731109598366235
0.1279840169393122,0.9731109598366235
0.1279840169393122,0.9734513274336283
0.12801816877838873,0.9734513274336283
0.12801816877838873,0.9737916950306331
0.13011850688159557,0.9737916950306331
0.13011850688159557,0.9741320626276379
0.1305624807895905,0.9741320626276379
0.1305624807895905,0.9744724302246426
0.13197978211126668,0.9744724302246426
0.13197978211126668,0.9748127978216474
0.1320310098698815,0.9748127978216474
0.1320310098698815,0.9751531654186522
0.13548034561661146,0.9751531654186522
0.13548034561661146,0.9754935330156569
0.13655612854752228,0.9754935330156569
0.13655612854752228,0.9758339006126616
0.1368122673405963,0.9758339006126616
0.1368122673405963,0.9761742682096665
0.13768313923704792,0.9761742682096665
0.13768313923704792,0.9765146358066712
0.1392541238345685,0.9765146358066712
0.1392541238345685,0.9768550034036759
0.14027867900686453,0.9768550034036759
0.14027867900686453,0.9771953710006808
0.1428912946962194,0.9771953710006808
0.1428912946962194,0.9775357385976855
0.14441105153512518,0.9775357385976855
0.14441105153512518,0.9778761061946902
0.14757009664970458,0.9778761061946902
0.14757009664970458,0.9782164737916951
0.14977289027014104,0.9782164737916951
0.14977289027014104,0.9785568413886998
0.1500119531436768,0.9785568413886998
0.1500119531436768,0.9788972089857045
0.15262456883303166,0.9788972089857045
0.15262456883303166,0.9792375765827094
0.15617636009699123,0.9792375765827094
0.15617636009699123,0.9795779441797141
0.15755950957959086,0.9795779441797141
0.15755950957959086,0.9799183117767188
0.1575936614186674,0.9799183117767188
0.1575936614186674,0.9802586793737236
0.16012089751033093,0.9802586793737236
0.16012089751033093,0.9805990469707284
0.1603941122229432,0.9805990469707284
0.1603941122229432,0.9809394145677331
0.16042826406201974,0.9809394145677331
0.16042826406201974,0.9812797821647379
0.16082101021139988,0.9812797821647379
0.16082101021139988,0.9816201497617427
0.16543150848673202,0.9816201497617427
0.16543150848673202,0.9819605173587475
0.16703664492332912,0.9819605173587475
0.16703664492332912,0.9823008849557522
0.16754892250947714,0.9823008849557522
0.16758307434855366,0.9823008849557522
0.16857347768177317,0.9823008849557522
0.16857347768177317,0.982641252552757
0.1686588572794645,0.982641252552757
0.1686588572794645,0.9829816201497618
0.17043475291144428,0.9829816201497618
0.17043475291144428,0.9833219877467665
0.17116901745158977,0.9833219877467665
0.17116901745158977,0.9836623553437712
0.18107305078378472,0.9836623553437712
0.18107305078378472,0.9840027229407761
0.18334414808237423,0.9840027229407761
0.18334414808237423,0.9843430905377808
0.18474437348451214,0.9843430905377808
0.18474437348451214,0.9846834581347855
0.18537618250742802,0.9846834581347855
0.18537618250742802,0.9850238257317904
0.1853932584269663,0.9850238257317904
0.1853932584269663,0.9853641933287951
0.18862060721969878,0.9853641933287951
0.18862060721969878,0.9857045609257998
0.18909873296677027,0.9857045609257998
0.18909873296677027,0.9860449285228047
0.19242853727673234,0.9860449285228047
0.19242853727673234,0.9863852961198094
0.19280420750657423,0.9863852961198094
0.19280420750657423,0.9867256637168141
0.1960827840579215,0.9867256637168141
0.1960827840579215,0.9870660313138189
0.19779037601174823,0.9870660313138189
0.19779037601174823,0.9874063989108237
0.19804651480482224,0.9874063989108237
0.19808066664389878,0.9874063989108237
0.1991564495748096,0.9874063989108237
0.1991564495748096,0.9877467665078284
0.20544038796489192,0.9877467665078284
0.20544038796489192,0.9880871341048332
0.20813838325193812,0.9880871341048332
0.20817253509101466,0.9880871341048332
0.21018749359653016,0.9880871341048332
0.2102216454356067,0.9880871341048332
0.21025579727468324,0.9880871341048332
0.21028994911375978,0.9880871341048332
0.21461015675694137,0.9880871341048332
0.21461015675694137,0.988427501701838
0.21612991359584713,0.988427501701838
0.21612991359584713,0.9887678692988427
0.21800826474505652,0.9887678692988427
0.21800826474505652,0.9891082368958475
0.22104777842286807,0.9891082368958475
0.22108193026194461,0.9891082368958475
0.23119087462859875,0.9891082368958475
0.23119087462859875,0.9894486044928523
0.24037771934018648,0.9894486044928523
0.24037771934018648,0.989788972089857
0.24468085106382978,0.989788972089857
0.24468085106382978,0.9901293396868618
0.245654178477511,0.9901293396868618
0.24568833031658754,0.9901293396868618
0.24626891158088862,0.9901293396868618
0.24630306341996516,0.9901293396868618
0.2488302995116287,0.9901293396868618
0.2488302995116287,0.9904697072838666
0.24995731020115433,0.9904697072838666
0.24995731020115433,0.9908100748808714
0.25347494962603734,0.9908100748808714
0.25347494962603734,0.9911504424778761
0.2585977254875175,0.9911504424778761
0.2585977254875175,0.9914908100748808
0.26052730439534166,0.9914908100748808
0.26052730439534166,0.9918311776718857
0.26209828899286225,0.9918311776718857
0.2621324408319388,0.9918311776718857
0.2622861241077832,0.9918311776718857
0.26232027594685975,0.9918311776718857
0.26928725111847274,0.9918311776718857
0.26928725111847274,0.9921715452688904
0.26961169358969983,0.9921715452688904
0.26964584542877634,0.9921715452688904
0.27733000922099654,0.9921715452688904
0.27733000922099654,0.9925119128658951
0.27893514565759364,0.9925119128658951
0.2789692974966702,0.9925119128658951
0.2801475359448106,0.9925119128658951
0.2801816877838872,0.9925119128658951
0.2811891670366449,0.9925119128658951
0.28122331887572144,0.9925119128658951
0.28310167002493086,0.9925119128658951
0.2831358218640074,0.9925119128658951
0.28694375192104093,0.9925119128658951
0.2869779037601175,0.9925119128658951
0.28803661077149006,0.9925119128658951
0.2880707626105666,0.9925119128658951
0.2891123937024009,0.9925119128658951
0.2891123937024009,0.9928522804629
0.2926812608858987,0.9928522804629
0.29271541272497525,0.9928522804629
0.29625012806939655,0.9928522804629
0.29628427990847306,0.9928522804629
0.30154366312625935,0.9928522804629
0.30157781496533587,0.9928522804629
0.30419043065469076,0.9928522804629
0.30419043065469076,0.9931926480599047
0.31057682456200264,0.9931926480599047
0.31057682456200264,0.9935330156569094
0.3135821864007377,0.9935330156569094
0.3135821864007377,0.9938733832539143
0.31730473686007993,0.9938733832539143
0.31733888869915644,0.9938733832539143
0.32452785082476693,0.9938733832539143
0.32456200266384344,0.9938733832539143
0.3249376728936853,0.9938733832539143
0.32497182473276187,0.9938733832539143
0.32635497421536147,0.9938733832539143
0.32635497421536147,0.994213750850919
0.32763566818073153,0.994213750850919
0.32766982001980804,0.994213750850919
0.33641269082340086,0.994213750850919
0.3364468426624774,0.994213750850919
0.3591407397288344,0.994213750850919
0.3591407397288344,0.9945541184479237
0.36286329018817665,0.9945541184479237
0.36286329018817665,0.9948944860449285
0.3631706567398654,0.9948944860449285
0.363204808578942,0.9948944860449285
0.3640756804753936,0.9948944860449285
0.36410983231447014,0.9948944860449285
0.3706157576585499,0.9948944860449285
0.37064990949762644,0.9948944860449285
0.3712134148423893,0.9948944860449285
0.3712475666814658,0.9948944860449285
0.3748164338649636,0.9948944860449285
0.3748505857040402,0.9948944860449285
0.38424234145008707,0.9948944860449285
0.38427649328916363,0.9948944860449285
0.38924558587479935,0.9948944860449285
0.3892797377138759,0.9948944860449285
0.39580273897749396,0.9948944860449285
0.3958368908165705,0.9948944860449285
0.3971346607014788,0.9948944860449285
0.3971688125405553,0.9948944860449285
0.39814213995423653,0.9948944860449285
0.3981762917933131,0.9948944860449285
0.40244527167787986,0.9948944860449285
0.40244527167787986,0.9952348536419333
0.4026843345514156,0.9952348536419333
0.4027184863904921,0.9952348536419333
0.40307708070079573,0.9952348536419333
0.40307708070079573,0.995575221238938
0.4036747378846351,0.995575221238938
0.4037088897237116,0.995575221238938
0.41477408558450873,0.995575221238938
0.41480823742358525,0.995575221238938
0.4164475256992589,0.995575221238938
0.4164816775383354,0.995575221238938
0.4254465352959257,0.995575221238938
0.4254806871350022,0.995575221238938
0.4259588128820737,0.995575221238938
0.4259929647211502,0.995575221238938
0.4316792459273932,0.995575221238938
0.4317133977664697,0.995575221238938
0.43304531949045455,0.995575221238938
0.4330794713295311,0.995575221238938
0.4369215532256412,0.995575221238938
0.43695570506471776,0.995575221238938
0.44115638127113144,0.995575221238938
0.441190533110208,0.995575221238938
0.4431542638571087,0.995575221238938
0.4431542638571087,0.9959155888359428
0.449950479833339,0.9959155888359428
0.44998463167241554,0.9959155888359428
0.45457805402820944,0.9959155888359428
0.45461220586728596,0.9959155888359428
0.4681875619002083,0.9959155888359428
0.46822171373928484,0.9959155888359428
0.4702195963252621,0.9959155888359428
0.4702195963252621,0.9962559564329476
0.47727195109456644,0.9962559564329476
0.47730610293364295,0.9962559564329476
0.4773573306922578,0.9962559564329476
0.4773573306922578,0.9965963240299524
0.48464874833509786,0.9965963240299524
0.48464874833509786,0.9969366916269571
0.4887298931047437,0.9969366916269571
0.4887640449438202,0.9969366916269571
0.49129128103548375,0.9969366916269571
0.4913254328745603,0.9969366916269571
0.4986339264369386,0.9969366916269571
0.49866807827601517,0.9969366916269571
0.5001195314367679,0.9969366916269571
0.5001195314367679,0.9972770592239619
0.5250674498821761,0.9972770592239619
0.5251016017212526,0.9972770592239619
0.5261603087326252,0.9972770592239619
0.5261944605717018,0.9972770592239619
0.5308391106861104,0.9972770592239619
0.530873262525187,0.9972770592239619
0.5367986066049657,0.9972770592239619
0.5368327584440422,0.9972770592239619
0.5471295379256172,0.9972770592239619
0.5471295379256172,0.9976174268209667
0.5478979543048393,0.9976174268209667
0.5478979543048393,0.9979577944179714
0.5488712817185205,0.9979577944179714
0.548905433557597,0.9979577944179714
0.5514326696492606,0.9979577944179714
0.5514668214883371,0.9979577944179714
0.5550186127522967,0.9979577944179714
0.5550527645913732,0.9979577944179714
0.5644786721764967,0.9979577944179714
0.5645128240155732,0.9979577944179714
0.5896998053345173,0.9979577944179714
0.5897339571735938,0.9979577944179714
0.5941736962535432,0.9979577944179714
0.5942078480926198,0.9979577944179714
0.5946347460810765,0.9979577944179714
0.594668897920153,0.9979577944179714
0.6018749359653017,0.9979577944179714
0.6019090878043782,0.9979577944179714
0.6033776168846693,0.9979577944179714
0.6033776168846693,0.9982981620149761
0.6193606775724873,0.9982981620149761
0.6193948294115638,0.9982981620149761
0.626054438031488,0.9982981620149761
0.626054438031488,0.998638529611981
0.6435401796386735,0.998638529611981
0.6435401796386735,0.9989788972089857
0.6536320480857895,0.9989788972089857
0.653666199924866,0.9989788972089857
0.6565691062463713,0.9989788972089857
0.6565691062463713,0.9993192648059904
0.6575765854991291,0.9993192648059904
0.6576107373382056,0.9993192648059904
0.6682831870496226,0.9993192648059904
0.6683173388886992,0.9993192648059904
0.6762234896349169,0.9993192648059904
0.6762576414739934,0.9993192648059904
0.6796899013011851,0.9993192648059904
0.6797240531402616,0.9993192648059904
0.6877497353232471,0.9993192648059904
0.6877838871623236,0.9993192648059904
0.7035108090570678,0.9993192648059904
0.7035449608961443,0.9993192648059904
0.7111778969297496,0.9993192648059904
0.7112120487688262,0.9993192648059904
0.7339059458351832,0.9993192648059904
0.7339400976742597,0.9993192648059904
0.7565315392233872,0.9993192648059904
0.7565656910624637,0.9993192648059904
0.7694750862333937,0.9993192648059904
0.7695092380724702,0.9993192648059904
0.7750930637614836,0.9993192648059904
0.7751272156005601,0.9993192648059904
0.7786619309449814,0.9993192648059904
0.7786960827840579,0.9993192648059904
0.7815989891055634,0.9993192648059904
0.7816331409446399,0.9993192648059904
0.787900003415184,0.9993192648059904
0.7879341552542605,0.9993192648059904
0.7985553772070626,0.9993192648059904
0.7985895290461391,0.9993192648059904
0.8050783784706806,0.9993192648059904
0.8051125303097572,0.9993192648059904
0.8053345172637546,0.9993192648059904
0.8053686691028312,0.9993192648059904
0.825945152146443,0.9993192648059904
0.8259793039855197,0.9993192648059904
0.8288651343874868,0.9993192648059904
0.8288992862265633,0.9993192648059904
0.832075407260681,0.9993192648059904
0.8321095590997575,0.9993192648059904
0.8411768723745774,0.9993192648059904
0.8412110242136539,0.9993192648059904
0.8805027150712066,0.9993192648059904
0.8805027150712066,0.9996596324029953
0.9068679348382911,0.9996596324029953
0.9069020866773676,0.9996596324029953
0.9090878043782658,0.9996596324029953
0.9091219562173423,0.9996596324029953
0.9106929408148629,0.9996596324029953
0.9107270926539394,0.9996596324029953
0.9724736177043134,0.9996596324029953
0.9724736177043134,1.0
1.0,1.0
