fpr,tpr
0.0,0.0
0.0,0.0003403675970047651
0.0,0.0006807351940095302
1.7075919538267136e-05,0.0006807351940095302
1.7075919538267136e-05,0.01055139550714772
3.415183907653427e-05,0.01055139550714772
3.415183907653427e-05,0.0302927161334241
5.1227758614801405e-05,0.0302927161334241
5.1227758614801405e-05,0.03641933287950987
6.830367815306854e-05,0.03641933287950987
6.830367815306854e-05,0.06160653505786249
8.537959769133568e-05,0.06160653505786249
8.537959769133568e-05,0.06296800544588155
8.537959769133568e-05,0.06364874063989108
8.537959769133568e-05,0.18856364874063988
0.00010245551722960281,0.18856364874063988
0.00010245551722960281,0.22872702518720217
0.00010245551722960281,0.22940776038121172
0.00010245551722960281,0.23689584751531653
0.00011953143676786995,0.23689584751531653
0.00011953143676786995,0.28863172226004086
0.00011953143676786995,0.2893124574540504
0.00011953143676786995,0.2968005445881552
0.0001366073563061371,0.2968005445881552
0.0001366073563061371,0.3114363512593601
0.00015368327584440423,0.3114363512593601
0.00015368327584440423,0.3430905377808033
0.00017075919538267137,0.3430905377808033
0.00017075919538267137,0.36963921034717495
0.00018783511492093848,0.36963921034717495
0.00018783511492093848,0.38223281143635124
0.00020491103445920562,0.38223281143635124
0.00020491103445920562,0.386997957794418
0.00022198695399747276,0.386997957794418
0.00022198695399747276,0.3876786929884275
0.0002390628735357399,0.3876786929884275
0.0002390628735357399,0.3975493533015657
0.000256138793074007,0.3975493533015657
0.000256138793074007,0.41524846834581347
0.0002732147126122742,0.41524846834581347
0.0002732147126122742,0.41933287950987064
0.0002902906321505413,0.41933287950987064
0.0002902906321505413,0.4329475833900613
0.00030736655168880846,0.4329475833900613
0.00030736655168880846,0.43907420013614706
0.00032444247122707557,0.43907420013614706
0.00032444247122707557,0.4400953029271613
0.00034151839076534274,0.4400953029271613
0.00034151839076534274,0.45064669843430905
0.00037567022984187696,0.45064669843430905
0.00037567022984187696,0.45098706603131383
0.00039274614938014413,0.45098706603131383
0.00039274614938014413,0.4611980939414568
0.00040982206891841124,0.4611980939414568
0.00040982206891841124,0.4632402995234854
0.0004268979884566784,0.4632402995234854
0.0004268979884566784,0.46596324029952346
0.0004439739079949455,0.46596324029952346
0.0004439739079949455,0.4717494894486045
0.0004610498275332127,0.4717494894486045
0.0004610498275332127,0.4870660313138189
0.0004781257470714798,0.4870660313138189
0.0004781257470714798,0.48774676650782844
0.0004952016666097469,0.48774676650782844
0.0004952016666097469,0.5003403675970047
0.000512277586148014,0.5003403675970047
0.000512277586148014,0.5010211027910143
0.0005293535056862812,0.5010211027910143
0.0005293535056862812,0.5187202178352621
0.0005464294252245484,0.5187202178352621
0.0005464294252245484,0.5200816882232812
0.0005635053447628155,0.5200816882232812
0.0005635053447628155,0.5207624234172906
0.0005976571838393497,0.5207624234172906
0.0005976571838393497,0.5241660993873384
0.0006147331033776169,0.5241660993873384
0.0006147331033776169,0.5296119809394145
0.000631809022915884,0.5296119809394145
0.000631809022915884,0.5357385976855004
0.0006488849424541511,0.5357385976855004
0.0006488849424541511,0.5360789652825051
0.0006659608619924183,0.5360789652825051
0.0006659608619924183,0.537780803267529
0.0006830367815306855,0.537780803267529
0.0006830367815306855,0.5432266848196051
0.0007001127010689526,0.5432266848196051
0.0007001127010689526,0.5452688904016337
0.0007171886206072197,0.5452688904016337
0.0007171886206072197,0.5473110959836623
0.0007342645401454868,0.5473110959836623
0.0007342645401454868,0.5490129339686862
0.0007513404596837539,0.5490129339686862
0.0007513404596837539,0.549353301565691
0.0007684163792220211,0.549353301565691
0.0007684163792220211,0.5541184479237576
0.0007854922987602883,0.5541184479237576
0.0007854922987602883,0.5582028590878149
0.0008025682182985554,0.5582028590878149
0.0008025682182985554,0.5633083730428863
0.0008196441378368225,0.5633083730428863
0.0008196441378368225,0.5653505786249149
0.0008367200573750896,0.5653505786249149
0.0008367200573750896,0.5694349897889721
0.0008537959769133568,0.5694349897889721
0.0008537959769133568,0.5779441797140912
0.0008708718964516239,0.5779441797140912
0.0008708718964516239,0.5833900612661674
0.000887947815989891,0.5833900612661674
0.000887947815989891,0.5861130020422056
0.0009050237355281582,0.5861130020422056
0.0009050237355281582,0.5874744724302247
0.0009220996550664254,0.5874744724302247
0.0009220996550664254,0.5918992511912866
0.0009391755746046925,0.5918992511912866
0.0009391755746046925,0.59428182437032
0.0009562514941429596,0.59428182437032
0.0009562514941429596,0.5946221919673247
0.0009733274136812267,0.5946221919673247
0.0009733274136812267,0.5983662355343772
0.0009904033332194938,0.5983662355343772
0.0009904033332194938,0.5997277059223962
0.001007479252757761,0.5997277059223962
0.001007479252757761,0.6010891763104153
0.001024555172296028,0.6010891763104153
0.001024555172296028,0.6021102791014296
0.0010416310918342953,0.6021102791014296
0.0010416310918342953,0.6034717494894486
0.0010587070113725625,0.6034717494894486
0.0010587070113725625,0.6068754254594962
0.0010757829309108295,0.6068754254594962
0.0010757829309108295,0.6075561606535058
0.0010928588504490967,0.6075561606535058
0.0010928588504490967,0.6099387338325392
0.0011099347699873637,0.6099387338325392
0.0011099347699873637,0.6102791014295439
0.001127010689525631,0.6102791014295439
0.001127010689525631,0.6109598366235535
0.0011440866090638982,0.6109598366235535
0.0011440866090638982,0.6147038801906058
0.0011611625286021652,0.6147038801906058
0.0011611625286021652,0.6164057181756297
0.0011782384481404324,0.6164057181756297
0.0011782384481404324,0.6225323349217154
0.0011953143676786994,0.6225323349217154
0.0011953143676786994,0.6249149081007488
0.0012123902872169666,0.6249149081007488
0.0012123902872169666,0.6252552756977535
0.0012294662067552338,0.6252552756977535
0.0012294662067552338,0.6255956432947584
0.0012465421262935008,0.6255956432947584
0.0012465421262935008,0.6269571136827774
0.001263618045831768,0.6269571136827774
0.001263618045831768,0.6272974812797821
0.0012806939653700353,0.6272974812797821
0.0012806939653700353,0.6279782164737917
0.0013148458044465695,0.6279782164737917
0.0013148458044465695,0.6307011572498298
0.0013319217239848365,0.6307011572498298
0.0013319217239848365,0.6327433628318584
0.0013489976435231037,0.6327433628318584
0.0013489976435231037,0.6330837304288631
0.001366073563061371,0.6330837304288631
0.001366073563061371,0.6364874063989108
0.001383149482599638,0.6364874063989108
0.001383149482599638,0.6402314499659633
0.0014002254021379052,0.6402314499659633
0.0014002254021379052,0.6415929203539823
0.0014173013216761722,0.6415929203539823
0.0014173013216761722,0.6429543907420013
0.0014343772412144394,0.6429543907420013
0.0014343772412144394,0.6446562287270252
0.0014514531607527066,0.6446562287270252
0.0014514531607527066,0.6460176991150443
0.0014685290802909736,0.6460176991150443
0.0014685290802909736,0.6470388019060586
0.0014856049998292408,0.6470388019060586
0.0014856049998292408,0.647719537100068
0.0015026809193675078,0.647719537100068
0.0015026809193675078,0.6484002722940776
0.001519756838905775,0.6484002722940776
0.001519756838905775,0.6487406398910823
0.0015368327584440423,0.6487406398910823
0.0015368327584440423,0.6501021102791015
0.0015539086779823093,0.6501021102791015
0.0015539086779823093,0.6507828454731109
0.0015709845975205765,0.6507828454731109
0.0015709845975205765,0.65214431586113
0.0015880605170588435,0.65214431586113
0.0015880605170588435,0.6524846834581348
0.0016051364365971107,0.6524846834581348
0.0016051364365971107,0.6535057862491491
0.001622212356135378,0.6535057862491491
0.001622212356135378,0.6548672566371682
0.0016563641952119122,0.6548672566371682
0.0016563641952119122,0.6555479918311776
0.0016905160342884464,0.6555479918311776
0.0016905160342884464,0.6558883594281825
0.0017075919538267136,0.6558883594281825
0.0017075919538267136,0.6565690946221919
0.0017246678733649806,0.6565690946221919
0.0017246678733649806,0.6586113002042205
0.0017417437929032479,0.6586113002042205
0.0017417437929032479,0.6616746085772635
0.001775895631979782,0.6616746085772635
0.001775895631979782,0.6643975493533015
0.0017929715515180493,0.6643975493533015
0.0017929715515180493,0.6647379169503064
0.0018100474710563163,0.6647379169503064
0.0018100474710563163,0.6654186521443158
0.0018441993101328507,0.6654186521443158
0.0018441993101328507,0.6667801225323349
0.0018612752296711178,0.6667801225323349
0.0018612752296711178,0.6674608577263444
0.001878351149209385,0.6674608577263444
0.001878351149209385,0.6688223281143635
0.0019125029882859192,0.6688223281143635
0.0019125029882859192,0.6705241660993874
0.0019295789078241864,0.6705241660993874
0.0019295789078241864,0.6708645336963921
0.0019466548273624534,0.6708645336963921
0.0019466548273624534,0.6729067392784207
0.0019637307469007204,0.6729067392784207
0.0019637307469007204,0.673927842069435
0.001997882585977255,0.673927842069435
0.001997882585977255,0.6746085772634445
0.002049110344592056,0.6746085772634445
0.002049110344592056,0.6756296800544588
0.0020661862641303233,0.6756296800544588
0.0020661862641303233,0.6759700476514636
0.0020832621836685905,0.6759700476514636
0.0020832621836685905,0.6766507828454731
0.0021003381032068578,0.6766507828454731
0.0021003381032068578,0.6776718856364874
0.002117414022745125,0.6776718856364874
0.002117414022745125,0.6780122532334921
0.0021344899422833918,0.6780122532334921
0.0021344899422833918,0.678352620830497
0.002151565861821659,0.678352620830497
0.002151565861821659,0.6793737236215113
0.002168641781359926,0.6793737236215113
0.002168641781359926,0.679714091218516
0.0022027936204364607,0.679714091218516
0.0022027936204364607,0.6800544588155207
0.0022198695399747274,0.6800544588155207
0.0022198695399747274,0.6803948264125256
0.0022369454595129947,0.6803948264125256
0.0022369454595129947,0.6807351940095303
0.002271097298589529,0.6807351940095303
0.002271097298589529,0.681075561606535
0.0022881732181277963,0.681075561606535
0.0022881732181277963,0.6837985023825732
0.002305249137666063,0.6837985023825732
0.002305249137666063,0.6848196051735874
0.0023394009767425976,0.6848196051735874
0.0023394009767425976,0.685500340367597
0.002373552815819132,0.685500340367597
0.002373552815819132,0.6861810755616066
0.0023906287353573988,0.6861810755616066
0.0023906287353573988,0.6865214431586113
0.002407704654895666,0.6865214431586113
0.002407704654895666,0.6872021783526209
0.0024247805744339332,0.6872021783526209
0.0024247805744339332,0.6889040163376446
0.0024418564939722004,0.6889040163376446
0.0024418564939722004,0.6909462219196733
0.0024589324135104677,0.6909462219196733
0.0024589324135104677,0.6919673247106876
0.002476008333048735,0.6919673247106876
0.002476008333048735,0.6923076923076923
0.002510160172125269,0.6923076923076923
0.002510160172125269,0.6940095302927162
0.002527236091663536,0.6940095302927162
0.002527236091663536,0.6943498978897209
0.0025443120112018033,0.6943498978897209
0.0025443120112018033,0.6946902654867256
0.0025613879307400706,0.6946902654867256
0.0025613879307400706,0.6957113682777399
0.0025784638502783373,0.6957113682777399
0.0025784638502783373,0.697072838665759
0.0025955397698166046,0.697072838665759
0.0025955397698166046,0.6974132062627638
0.002612615689354872,0.6974132062627638
0.002612615689354872,0.6980939414567733
0.002629691608893139,0.6980939414567733
0.002629691608893139,0.6987746766507829
0.0026467675284314062,0.6987746766507829
0.0026467675284314062,0.6997957794417972
0.002663843447969673,0.6997957794417972
0.002663843447969673,0.7014976174268209
0.0027150712065844747,0.7014976174268209
0.0027150712065844747,0.7021783526208305
0.0027492230456610087,0.7021783526208305
0.0027492230456610087,0.7028590878148401
0.002766298965199276,0.7028590878148401
0.002766298965199276,0.7031994554118448
0.002783374884737543,0.7031994554118448
0.002783374884737543,0.7052416609938734
0.0028175267238140776,0.7052416609938734
0.0028175267238140776,0.7059223961878829
0.002868754482428879,0.7059223961878829
0.002868754482428879,0.7062627637848877
0.002885830401967146,0.7062627637848877
0.002885830401967146,0.7072838665759019
0.00291998224104368,0.7072838665759019
0.00291998224104368,0.7079646017699115
0.0029712099996584817,0.7079646017699115
0.0029712099996584817,0.7083049693669162
0.00303951367781155,0.7083049693669162
0.00303951367781155,0.7086453369639211
0.0030907414364263514,0.7086453369639211
0.0030907414364263514,0.7096664397549354
0.003141969195041153,0.7096664397549354
0.003141969195041153,0.7100068073519401
0.0031590451145794203,0.7100068073519401
0.0031590451145794203,0.7151123213070115
0.0031931969536559543,0.7151123213070115
0.0031931969536559543,0.7161334240980258
0.0032102728731942215,0.7161334240980258
0.0032102728731942215,0.7164737916950307
0.0032273487927324887,0.7164737916950307
0.0032273487927324887,0.7178352620830497
0.003244424712270756,0.7178352620830497
0.003244424712270756,0.7181756296800544
0.0032615006318090227,0.7181756296800544
0.0032615006318090227,0.7185159972770592
0.0033127283904238244,0.7185159972770592
0.0033127283904238244,0.718856364874064
0.0033298043099620916,0.718856364874064
0.0033298043099620916,0.7191967324710687
0.0033468802295003584,0.7191967324710687
0.0033468802295003584,0.7205582028590878
0.0033639561490386256,0.7205582028590878
0.0033639561490386256,0.7208985704560926
0.00339810798811516,0.7208985704560926
0.00339810798811516,0.7219196732471069
0.0034151839076534273,0.7219196732471069
0.0034151839076534273,0.7222600408441117
0.0034493357467299613,0.7222600408441117
0.0034493357467299613,0.7226004084411164
0.003500563505344763,0.7226004084411164
0.003500563505344763,0.7239618788291354
0.00351763942488303,0.7239618788291354
0.00351763942488303,0.7243022464261403
0.003534715344421297,0.7243022464261403
0.003534715344421297,0.7249829816201497
0.003551791263959564,0.7249829816201497
0.003551791263959564,0.7253233492171546
0.0035688671834978314,0.7253233492171546
0.0035688671834978314,0.7256637168141593
0.003603019022574366,0.7256637168141593
0.003603019022574366,0.7266848196051736
0.0036200949421126326,0.7266848196051736
0.0036200949421126326,0.7273655547991831
0.0036371708616509,0.7273655547991831
0.0036371708616509,0.7280462899931927
0.003654246781189167,0.7280462899931927
0.003654246781189167,0.7283866575901974
0.0036883986202657015,0.7283866575901974
0.0036883986202657015,0.7297481279782164
0.0037396263788805027,0.7297481279782164
0.0037396263788805027,0.731790333560245
0.00375670229841877,0.731790333560245
0.00375670229841877,0.7321307011572499
0.003773778217957037,0.7321307011572499
0.003773778217957037,0.7331518039482642
0.003807930057033571,0.7331518039482642
0.003807930057033571,0.7334921715452689
0.0038250059765718384,0.7334921715452689
0.0038250059765718384,0.7341729067392784
0.003859157815648373,0.7341729067392784
0.003859157815648373,0.7355343771272975
0.003927461493801441,0.7355343771272975
0.003927461493801441,0.7358747447243023
0.0039445374133397085,0.7358747447243023
0.0039445374133397085,0.736215112321307
0.003978689252416243,0.736215112321307
0.003978689252416243,0.7372362151123213
0.00399576517195451,0.7372362151123213
0.00399576517195451,0.737576582709326
0.004046992930569311,0.737576582709326
0.004046992930569311,0.7389380530973452
0.004081144769645845,0.7389380530973452
0.004081144769645845,0.7396187882913546
0.004098220689184112,0.7396187882913546
0.004098220689184112,0.7413206262763785
0.00411529660872238,0.7413206262763785
0.00411529660872238,0.7416609938733832
0.004149448447798914,0.7416609938733832
0.004149448447798914,0.742001361470388
0.004166524367337181,0.742001361470388
0.004166524367337181,0.7426820966643976
0.004251903965028517,0.7426820966643976
0.004251903965028517,0.7433628318584071
0.0042689798845667835,0.7433628318584071
0.0042689798845667835,0.7447243022464262
0.004337283562719852,0.7447243022464262
0.004337283562719852,0.7450646698434309
0.004405587240872921,0.7450646698434309
0.004405587240872921,0.7457454050374405
0.004439739079949455,0.7457454050374405
0.004439739079949455,0.7460857726344452
0.004473890919025989,0.7460857726344452
0.004473890919025989,0.7467665078284548
0.004490966838564257,0.7467665078284548
0.004490966838564257,0.7477876106194691
0.004508042758102524,0.7477876106194691
0.004508042758102524,0.7484683458134785
0.004661726033946928,0.7484683458134785
0.004661726033946928,0.7488087134104833
0.004695877873023462,0.7488087134104833
0.004695877873023462,0.7501701837985024
0.0047129537925617295,0.7501701837985024
0.0047129537925617295,0.7505105513955072
0.004730029712099996,0.7505105513955072
0.004730029712099996,0.7508509189925119
0.004764181551176531,0.7508509189925119
0.004764181551176531,0.7515316541865215
0.0047812574707147976,0.7515316541865215
0.0047812574707147976,0.7522123893805309
0.004815409309791332,0.7522123893805309
0.004815409309791332,0.7535738597685501
0.0048324852293296,0.7535738597685501
0.0048324852293296,0.7545949625595644
0.004866637068406134,0.7545949625595644
0.004866637068406134,0.7549353301565691
0.004883712987944401,0.7549353301565691
0.004883712987944401,0.7556160653505786
0.00495201666609747,0.7556160653505786
0.00495201666609747,0.7559564329475834
0.0049690925856357366,0.7559564329475834
0.0049690925856357366,0.757998638529612
0.004986168505174003,0.757998638529612
0.004986168505174003,0.7590197413206263
0.005003244424712271,0.7590197413206263
0.005003244424712271,0.7593601089176311
0.0050373962637888054,0.7593601089176311
0.0050373962637888054,0.7600408441116405
0.0051056999419418735,0.7600408441116405
0.0051056999419418735,0.7620830496936691
0.005122775861480141,0.7620830496936691
0.005122775861480141,0.762423417290674
0.005156927700556675,0.762423417290674
0.005156927700556675,0.7634445200816882
0.005174003620094942,0.7634445200816882
0.005174003620094942,0.7641252552756977
0.005191079539633209,0.7641252552756977
0.005191079539633209,0.7644656228727025
0.005208155459171477,0.7644656228727025
0.005208155459171477,0.765146358066712
0.005259383217786278,0.765146358066712
0.005259383217786278,0.7661674608577264
0.005310610976401079,0.7661674608577264
0.005310610976401079,0.7678692988427501
0.005327686895939346,0.7678692988427501
0.005327686895939346,0.768209666439755
0.005344762815477614,0.768209666439755
0.005344762815477614,0.7699115044247787
0.0053618387350158805,0.7699115044247787
0.0053618387350158805,0.770932607215793
0.005430142413168949,0.770932607215793
0.005430142413168949,0.7719537100068073
0.005447218332707216,0.7719537100068073
0.005447218332707216,0.7726344452008169
0.005481370171783751,0.7726344452008169
0.005481370171783751,0.7736555479918312
0.005515522010860285,0.7736555479918312
0.005515522010860285,0.773995915588836
0.005532597930398552,0.773995915588836
0.005532597930398552,0.7746766507828454
0.0055496738499368195,0.7746766507828454
0.0055496738499368195,0.7750170183798503
0.005566749769475086,0.7750170183798503
0.005566749769475086,0.7756977535738597
0.005600901608551621,0.7756977535738597
0.005600901608551621,0.7760381211708646
0.0056179775280898875,0.7760381211708646
0.0056179775280898875,0.7773995915588836
0.005652129367166422,0.7773995915588836
0.005652129367166422,0.7794417971409122
0.005737508964857758,0.7794417971409122
0.005737508964857758,0.779782164737917
0.005771660803934292,0.779782164737917
0.005771660803934292,0.781143635125936
0.0058058126430108265,0.781143635125936
0.0058058126430108265,0.7814840027229408
0.005822888562549093,0.7814840027229408
0.005822888562549093,0.7818243703199456
0.00583996448208736,0.7818243703199456
0.00583996448208736,0.7828454731109599
0.0058741163211638945,0.7828454731109599
0.0058741163211638945,0.7831858407079646
0.005908268160240429,0.7831858407079646
0.005908268160240429,0.7848876786929885
0.005942419999316963,0.7848876786929885
0.005942419999316963,0.7855684138869979
0.00595949591885523,0.7855684138869979
0.00595949591885523,0.7859087814840027
0.006044875516546566,0.7859087814840027
0.006044875516546566,0.786929884275017
0.0060619514360848335,0.786929884275017
0.0060619514360848335,0.7876106194690266
0.0060790273556231,0.7876106194690266
0.0060790273556231,0.7879509870660313
0.006113179194699635,0.7879509870660313
0.006113179194699635,0.7882913546630361
0.006215634711929237,0.7882913546630361
0.006215634711929237,0.7893124574540503
0.006232710631467505,0.7893124574540503
0.006232710631467505,0.7896528250510552
0.006249786551005772,0.7896528250510552
0.006249786551005772,0.7903335602450646
0.006266862470544038,0.7903335602450646
0.006266862470544038,0.7906739278420695
0.006283938390082306,0.7906739278420695
0.006283938390082306,0.7910142954390742
0.006369317987773642,0.7910142954390742
0.006369317987773642,0.7916950306330838
0.0063863939073119085,0.7916950306330838
0.0063863939073119085,0.7927161334240981
0.006403469826850176,0.7927161334240981
0.006403469826850176,0.7930565010211028
0.006454697585464977,0.7930565010211028
0.006454697585464977,0.7933968686181075
0.0065742290222328475,0.7933968686181075
0.0065742290222328475,0.7937372362151123
0.006591304941771114,0.7937372362151123
0.006591304941771114,0.7954390742001362
0.006608380861309381,0.7954390742001362
0.006608380861309381,0.7957794417971409
0.00667668453946245,0.7957794417971409
0.00667668453946245,0.7961198093941457
0.006693760459000717,0.7961198093941457
0.006693760459000717,0.7964601769911505
0.006762064137153786,0.7964601769911505
0.006762064137153786,0.7974812797821648
0.0068303678153068545,0.7974812797821648
0.0068303678153068545,0.7978216473791695
0.006881595573921656,0.7978216473791695
0.006881595573921656,0.7988427501701838
0.00691574741299819,0.7988427501701838
0.00691574741299819,0.7991831177671885
0.007018202930227793,0.7991831177671885
0.007018202930227793,0.7995234853641934
0.00703527884976606,0.7995234853641934
0.00703527884976606,0.8008849557522124
0.007052354769304327,0.8008849557522124
0.007052354769304327,0.8012253233492171
0.007069430688842594,0.8012253233492171
0.007069430688842594,0.8015656909462219
0.007103582527919128,0.8015656909462219
0.007103582527919128,0.8019060585432267
0.007137734366995663,0.8019060585432267
0.007137734366995663,0.8036078965282505
0.007171886206072197,0.8036078965282505
0.007171886206072197,0.8039482641252553
0.0072231139646869984,0.8039482641252553
0.0072231139646869984,0.8042886317222601
0.007291417642840067,0.8042886317222601
0.007291417642840067,0.8046289993192648
0.007308493562378334,0.8046289993192648
0.007308493562378334,0.8049693669162695
0.007359721320993135,0.8049693669162695
0.007359721320993135,0.8053097345132744
0.007428024999146204,0.8053097345132744
0.007428024999146204,0.8056501021102791
0.007496328677299272,0.8056501021102791
0.007496328677299272,0.8059904697072838
0.007564632355452341,0.8059904697072838
0.007564632355452341,0.8063308373042887
0.007581708274990608,0.8063308373042887
0.007581708274990608,0.8066712049012934
0.007598784194528876,0.8066712049012934
0.007598784194528876,0.8070115724982981
0.007615860114067142,0.8070115724982981
0.007615860114067142,0.807351940095303
0.00763293603360541,0.807351940095303
0.00763293603360541,0.8076923076923077
0.007684163792220211,0.8076923076923077
0.007684163792220211,0.8083730428863172
0.007752467470373279,0.8083730428863172
0.007752467470373279,0.808713410483322
0.007803695228988081,0.808713410483322
0.007803695228988081,0.8090537780803267
0.007820771148526348,0.8090537780803267
0.007820771148526348,0.8093941456773315
0.007837847068064615,0.8093941456773315
0.007837847068064615,0.810074880871341
0.007854922987602882,0.810074880871341
0.007854922987602882,0.8104152484683458
0.007889074826679417,0.8104152484683458
0.007889074826679417,0.8107556160653506
0.007940302585294217,0.8107556160653506
0.007940302585294217,0.8114363512593601
0.008059834022062088,0.8114363512593601
0.008059834022062088,0.8124574540503744
0.008076909941600355,0.8124574540503744
0.008076909941600355,0.8127978216473791
0.008093985861138622,0.8127978216473791
0.008093985861138622,0.8138189244383934
0.008128137700215157,0.8138189244383934
0.008128137700215157,0.814499659632403
0.00823059321744476,0.814499659632403
0.00823059321744476,0.8151803948264126
0.008247669136983026,0.8151803948264126
0.008247669136983026,0.8155207624234173
0.00828182097605956,0.8155207624234173
0.00828182097605956,0.8165418652144316
0.008367200573750896,0.8165418652144316
0.008367200573750896,0.8168822328114363
0.008418428332365698,0.8168822328114363
0.008418428332365698,0.818924438393465
0.008452580171442231,0.818924438393465
0.008452580171442231,0.8196051735874744
0.0084696560909805,0.8196051735874744
0.0084696560909805,0.8199455411844793
0.008555035688671836,0.8199455411844793
0.008555035688671836,0.820285908781484
0.00858918752774837,0.820285908781484
0.00858918752774837,0.8206262763784887
0.008606263447286636,0.8206262763784887
0.008606263447286636,0.8209666439754936
0.008623339366824903,0.8209666439754936
0.008623339366824903,0.821647379169503
0.008640415286363171,0.821647379169503
0.008640415286363171,0.8223281143635126
0.008657491205901438,0.8223281143635126
0.008657491205901438,0.8230088495575221
0.008691643044977972,0.8230088495575221
0.008691643044977972,0.8236895847515316
0.008742870803592774,0.8236895847515316
0.008742870803592774,0.8240299523485364
0.008777022642669307,0.8240299523485364
0.008777022642669307,0.824710687542546
0.00882825040128411,0.824710687542546
0.00882825040128411,0.8250510551395507
0.008845326320822376,0.8250510551395507
0.008845326320822376,0.8253914227365555
0.008981933677128514,0.8253914227365555
0.008981933677128514,0.8257317903335603
0.009169768792049452,0.8257317903335603
0.009169768792049452,0.826072157930565
0.009186844711587719,0.826072157930565
0.009186844711587719,0.827433628318584
0.009289300228817321,0.827433628318584
0.009289300228817321,0.8277739959155889
0.009306376148355588,0.8277739959155889
0.009306376148355588,0.8291354663036079
0.009323452067893857,0.8291354663036079
0.009323452067893857,0.8304969366916269
0.009425907585123459,0.8304969366916269
0.009425907585123459,0.8308373042886317
0.009545439021891328,0.8308373042886317
0.009545439021891328,0.8311776718856365
0.009562514941429595,0.8311776718856365
0.009562514941429595,0.8315180394826412
0.009613742700044397,0.8315180394826412
0.009613742700044397,0.8321987746766508
0.009682046378197466,0.8321987746766508
0.009682046378197466,0.8328795098706603
0.009699122297735733,0.8328795098706603
0.009699122297735733,0.8332198774676651
0.00983572965404187,0.8332198774676651
0.00983572965404187,0.8335602450646699
0.009869881493118404,0.8335602450646699
0.009869881493118404,0.8339006126616746
0.009886957412656671,0.8339006126616746
0.009886957412656671,0.8342409802586793
0.00990403333219494,0.8342409802586793
0.00990403333219494,0.8349217154526889
0.009921109251733206,0.8349217154526889
0.009921109251733206,0.8352620830496936
0.009938185171271473,0.8352620830496936
0.009938185171271473,0.8359428182437032
0.010006488849424542,0.8359428182437032
0.010006488849424542,0.8362831858407079
0.010108944366654144,0.8362831858407079
0.010108944366654144,0.8369639210347175
0.010382159079266418,0.8369639210347175
0.010382159079266418,0.8376446562287271
0.010399234998804685,0.8376446562287271
0.010399234998804685,0.8383253914227365
0.010450462757419487,0.8383253914227365
0.010450462757419487,0.8386657590197413
0.010467538676957754,0.8386657590197413
0.010467538676957754,0.8390061266167461
0.010587070113725625,0.8390061266167461
0.010587070113725625,0.8393464942137508
0.01067244971141696,0.8393464942137508
0.01067244971141696,0.8403675970047652
0.010723677470031761,0.8403675970047652
0.010723677470031761,0.8410483321987747
0.010757829309108296,0.8410483321987747
0.010757829309108296,0.8417290673927842
0.01079198114818483,0.8417290673927842
0.01079198114818483,0.8420694349897889
0.010894436665414432,0.8420694349897889
0.010894436665414432,0.8427501701837985
0.010928588504490968,0.8427501701837985
0.010928588504490968,0.8430905377808032
0.010979816263105768,0.8430905377808032
0.010979816263105768,0.8444520081688224
0.010996892182644035,0.8444520081688224
0.010996892182644035,0.8447923757658271
0.011065195860797104,0.8447923757658271
0.011065195860797104,0.8454731109598366
0.01108227178033537,0.8454731109598366
0.01108227178033537,0.8458134785568414
0.011218879136641508,0.8458134785568414
0.011218879136641508,0.8461538461538461
0.011235955056179775,0.8461538461538461
0.011235955056179775,0.8471749489448605
0.011253030975718042,0.8471749489448605
0.011253030975718042,0.8475153165418652
0.011338410573409377,0.8475153165418652
0.011338410573409377,0.84785568413887
0.011457942010177248,0.84785568413887
0.011457942010177248,0.8481960517358748
0.011526245688330317,0.8481960517358748
0.011526245688330317,0.8488767869298843
0.01156039752740685,0.8488767869298843
0.01156039752740685,0.8492171545268891
0.011577473446945118,0.8492171545268891
0.011577473446945118,0.8495575221238938
0.011594549366483384,0.8495575221238938
0.011594549366483384,0.8498978897208985
0.011662853044636453,0.8498978897208985
0.011662853044636453,0.8502382573179034
0.011697004883712989,0.8502382573179034
0.011697004883712989,0.8505786249149081
0.011765308561866056,0.8505786249149081
0.011765308561866056,0.8509189925119128
0.011782384481404324,0.8509189925119128
0.011782384481404324,0.8512593601089177
0.011850688159557391,0.8512593601089177
0.011850688159557391,0.8515997277059224
0.011936067757248727,0.8515997277059224
0.011936067757248727,0.8519400953029271
0.01198729551586353,0.8519400953029271
0.01198729551586353,0.852280462899932
0.012140978791707934,0.852280462899932
0.012140978791707934,0.8526208304969367
0.012260510228475803,0.8526208304969367
0.012260510228475803,0.8529611980939414
0.012311737987090605,0.8529611980939414
0.012311737987090605,0.8533015656909462
0.012328813906628872,0.8533015656909462
0.012328813906628872,0.853641933287951
0.012431269423858474,0.853641933287951
0.012431269423858474,0.8539823008849557
0.01246542126293501,0.8539823008849557
0.01246542126293501,0.8546630360789653
0.012482497182473276,0.8546630360789653
0.012482497182473276,0.85500340367597
0.012567876780164612,0.85500340367597
0.012567876780164612,0.8553437712729748
0.012584952699702879,0.8553437712729748
0.012584952699702879,0.8560245064669844
0.012602028619241146,0.8560245064669844
0.012602028619241146,0.8563648740639891
0.012653256377855948,0.8563648740639891
0.012653256377855948,0.8567052416609938
0.012721560056009017,0.8567052416609938
0.012721560056009017,0.8570456092579987
0.01275571189508555,0.8570456092579987
0.01275571189508555,0.8573859768550034
0.012841091492776886,0.8573859768550034
0.012841091492776886,0.8577263444520081
0.012977698849083024,0.8577263444520081
0.012977698849083024,0.858066712049013
0.013011850688159557,0.858066712049013
0.013011850688159557,0.8584070796460177
0.01306307844677436,0.8584070796460177
0.01306307844677436,0.8587474472430224
0.013097230285850893,0.8587474472430224
0.013097230285850893,0.8590878148400273
0.01311430620538916,0.8590878148400273
0.01311430620538916,0.859428182437032
0.013182609883542229,0.859428182437032
0.013182609883542229,0.8597685500340367
0.013285065400771831,0.8597685500340367
0.013285065400771831,0.8601089176310415
0.013302141320310098,0.8601089176310415
0.013302141320310098,0.860789652825051
0.013370444998463167,0.860789652825051
0.013370444998463167,0.8611300204220558
0.013387520918001434,0.8611300204220558
0.013387520918001434,0.8614703880190606
0.013455824596154502,0.8614703880190606
0.013455824596154502,0.8618107556160653
0.01347290051569277,0.8618107556160653
0.01347290051569277,0.8621511232130701
0.013524128274307571,0.8621511232130701
0.013524128274307571,0.8624914908100749
0.013541204193845838,0.8624914908100749
0.013541204193845838,0.8628318584070797
0.013558280113384105,0.8628318584070797
0.013558280113384105,0.8631722260040844
0.013643659711075442,0.8631722260040844
0.013643659711075442,0.863852961198094
0.013677811550151976,0.863852961198094
0.013677811550151976,0.8641933287950987
0.013916874423687716,0.8641933287950987
0.013916874423687716,0.8645336963921034
0.014155937297223456,0.8645336963921034
0.014155937297223456,0.8648740639891083
0.014241316894914792,0.8648740639891083
0.014241316894914792,0.865214431586113
0.014377924251220928,0.865214431586113
0.014377924251220928,0.8655547991831177
0.014412076090297463,0.8655547991831177
0.014412076090297463,0.8658951667801226
0.014446227929373997,0.8658951667801226
0.014446227929373997,0.8662355343771273
0.01448037976845053,0.8662355343771273
0.01448037976845053,0.866575901974132
0.014599911205218401,0.866575901974132
0.014599911205218401,0.8669162695711369
0.014702366722448004,0.8669162695711369
0.014702366722448004,0.8675970047651463
0.014821898159215873,0.8675970047651463
0.014821898159215873,0.8679373723621511
0.014838974078754142,0.8679373723621511
0.014838974078754142,0.8682777399591559
0.014856049998292408,0.8682777399591559
0.014856049998292408,0.8689584751531654
0.015112188791366415,0.8689584751531654
0.015112188791366415,0.8692988427501702
0.015146340630442949,0.8692988427501702
0.015146340630442949,0.869639210347175
0.015180492469519484,0.869639210347175
0.015180492469519484,0.8706603131381893
0.015214644308596018,0.8706603131381893
0.015214644308596018,0.871000680735194
0.01526587206721082,0.871000680735194
0.01526587206721082,0.8713410483321987
0.015282947986749087,0.8713410483321987
0.015282947986749087,0.8720217835262083
0.015334175745363887,0.8720217835262083
0.015334175745363887,0.872362151123213
0.015470783101670025,0.872362151123213
0.015470783101670025,0.8727025187202179
0.015590314538437894,0.8727025187202179
0.015590314538437894,0.8730428863172226
0.015692770055667497,0.8730428863172226
0.015692770055667497,0.8733832539142273
0.015897681090126705,0.8733832539142273
0.015897681090126705,0.8744043567052416
0.016085516205047643,0.8744043567052416
0.016085516205047643,0.8747447243022465
0.01627335131996858,0.8747447243022465
0.01627335131996858,0.8750850918992512
0.016478262354427786,0.8750850918992512
0.016478262354427786,0.8754254594962559
0.016614869710733924,0.8754254594962559
0.016614869710733924,0.8757658270932607
0.016649021549810458,0.8757658270932607
0.016649021549810458,0.8761061946902655
0.016717325227963525,0.8761061946902655
0.016717325227963525,0.876786929884275
0.01673440114750179,0.876786929884275
0.01673440114750179,0.8771272974812798
0.016956388101499267,0.8771272974812798
0.016956388101499267,0.8774676650782846
0.01711007137734367,0.8774676650782846
0.01711007137734367,0.8778080326752893
0.017195450975035005,0.8778080326752893
0.017195450975035005,0.8784887678692989
0.017212526894573272,0.8784887678692989
0.017212526894573272,0.8788291354663036
0.01722960281411154,0.8788291354663036
0.01722960281411154,0.8791695030633083
0.01734913425087941,0.8791695030633083
0.01734913425087941,0.8795098706603132
0.017417437929032477,0.8795098706603132
0.017417437929032477,0.8798502382573179
0.01757112120487688,0.8798502382573179
0.01757112120487688,0.8808713410483322
0.017588197124415148,0.8808713410483322
0.017588197124415148,0.8812117086453369
0.017622348963491685,0.8812117086453369
0.017622348963491685,0.8815520762423418
0.017639424883029952,0.8815520762423418
0.017639424883029952,0.8818924438393465
0.01770772856118302,0.8818924438393465
0.01770772856118302,0.8822328114363512
0.0181346265496397,0.8822328114363512
0.0181346265496397,0.882573179033356
0.01835661350363717,0.882573179033356
0.01835661350363717,0.8829135466303608
0.018476144940405042,0.8829135466303608
0.018476144940405042,0.8832539142273655
0.01859567637717291,0.8832539142273655
0.01859567637717291,0.8839346494213751
0.018629828216249446,0.8839346494213751
0.018629828216249446,0.8842750170183798
0.01866398005532598,0.8842750170183798
0.01866398005532598,0.8849557522123894
0.01895427068747652,0.8849557522123894
0.01895427068747652,0.8852961198093942
0.019278713158703595,0.8852961198093942
0.019278713158703595,0.8856364874063989
0.019312864997780132,0.8856364874063989
0.019312864997780132,0.8859768550034037
0.019364092756394932,0.8859768550034037
0.019364092756394932,0.8863172226004085
0.019705611147160275,0.8863172226004085
0.019705611147160275,0.8869979577944179
0.01979099074485161,0.8869979577944179
0.01979099074485161,0.8873383253914228
0.01980806666438988,0.8873383253914228
0.01980806666438988,0.8876786929884275
0.019842218503466413,0.8876786929884275
0.019842218503466413,0.8880190605854322
0.019876370342542946,0.8880190605854322
0.019876370342542946,0.8883594281824371
0.01991052218161948,0.8883594281824371
0.01991052218161948,0.8886997957794418
0.020064205457463884,0.8886997957794418
0.020064205457463884,0.8890401633764465
0.020098357296540418,0.8890401633764465
0.020098357296540418,0.8893805309734514
0.020422799767767494,0.8893805309734514
0.020422799767767494,0.8897208985704561
0.020593558963150165,0.8897208985704561
0.020593558963150165,0.8900612661674608
0.020610634882688432,0.8900612661674608
0.020610634882688432,0.8904016337644656
0.020644786721764966,0.8904016337644656
0.020644786721764966,0.8907420013614704
0.020678938560841503,0.8907420013614704
0.020678938560841503,0.8910823689584751
0.020764318158532837,0.8910823689584751
0.020764318158532837,0.8914227365554799
0.020883849595300708,0.8914227365554799
0.020883849595300708,0.8917631041524847
0.02091800143437724,0.8917631041524847
0.02091800143437724,0.8921034717494895
0.02105460879068338,0.8921034717494895
0.02105460879068338,0.8924438393464942
0.02110583654929818,0.8924438393464942
0.02110583654929818,0.892784206943499
0.021122912468836446,0.892784206943499
0.021122912468836446,0.8931245745405038
0.02134489942283392,0.8931245745405038
0.02134489942283392,0.8934649421375085
0.021430279020525255,0.8934649421375085
0.021430279020525255,0.8938053097345132
0.021447354940063522,0.8938053097345132
0.021447354940063522,0.8944860449285228
0.021481506779140055,0.8944860449285228
0.021481506779140055,0.8951667801225324
0.021618114135446193,0.8951667801225324
0.021618114135446193,0.8955071477195371
0.021720569652675797,0.8955071477195371
0.021720569652675797,0.8958475153165418
0.021788873330828865,0.8958475153165418
0.021788873330828865,0.8961878829135467
0.02180594925036713,0.8961878829135467
0.02180594925036713,0.8965282505105514
0.021976708445749803,0.8965282505105514
0.021976708445749803,0.897208985704561
0.02216454356067074,0.897208985704561
0.02216454356067074,0.8975493533015657
0.022181619480209008,0.8975493533015657
0.022181619480209008,0.8978897208985704
0.02236945459512995,0.8978897208985704
0.02236945459512995,0.8982300884955752
0.022625593388203954,0.8982300884955752
0.022625593388203954,0.89857045609258
0.022796352583586626,0.89857045609258
0.022796352583586626,0.8989108236895847
0.022864656261739693,0.8989108236895847
0.022864656261739693,0.8995915588835943
0.023018339537584098,0.8995915588835943
0.023018339537584098,0.899931926480599
0.023206174652505036,0.899931926480599
0.023206174652505036,0.9006126616746086
0.023240326491581573,0.9006126616746086
0.023240326491581573,0.9009530292716134
0.023803831836344387,0.9009530292716134
0.023803831836344387,0.9012933968686181
0.023820907755882654,0.9012933968686181
0.023820907755882654,0.9016337644656228
0.023855059594959187,0.9016337644656228
0.023855059594959187,0.9019741320626277
0.02397459103172706,0.9019741320626277
0.02397459103172706,0.9023144996596324
0.024111198388033196,0.9023144996596324
0.024111198388033196,0.9026548672566371
0.024213653905262797,0.9026548672566371
0.024213653905262797,0.902995234853642
0.02438441310064547,0.902995234853642
0.02438441310064547,0.9033356024506467
0.024589324135104677,0.9033356024506467
0.024589324135104677,0.9036759700476514
0.024691779652334277,0.9036759700476514
0.024691779652334277,0.9046970728386657
0.024913766606331753,0.9046970728386657
0.024913766606331753,0.9050374404356705
0.02520405723848229,0.9050374404356705
0.02520405723848229,0.9053778080326753
0.02569925890509204,0.9053778080326753
0.02569925890509204,0.9063989108236896
0.025733410744168572,0.9063989108236896
0.025733410744168572,0.9067392784206944
0.025801714422321643,0.9067392784206944
0.025801714422321643,0.9070796460176991
0.025955397698166047,0.9070796460176991
0.025955397698166047,0.9074200136147039
0.026672586318773266,0.9074200136147039
0.026672586318773266,0.9077603812117087
0.026723814077388067,0.9077603812117087
0.026723814077388067,0.9081007488087134
0.026911649192309005,0.9081007488087134
0.026911649192309005,0.9091218515997277
0.02706533246815341,0.9091218515997277
0.02706533246815341,0.9098025867937373
0.02713363614630648,0.9098025867937373
0.02713363614630648,0.910142954390742
0.027253167583074348,0.910142954390742
0.027253167583074348,0.9104833219877467
0.027475154537071823,0.9104833219877467
0.027475154537071823,0.9108236895847516
0.027867900686451966,0.9108236895847516
0.027867900686451966,0.9111640571817563
0.0279532802841433,0.9111640571817563
0.0279532802841433,0.911504424778761
0.02797035620368157,0.911504424778761
0.02797035620368157,0.9118447923757659
0.02814111539906424,0.9118447923757659
0.02814111539906424,0.9121851599727706
0.028397254192138247,0.9121851599727706
0.028397254192138247,0.9125255275697753
0.028465557870291314,0.9125255275697753
0.028465557870291314,0.9128658951667801
0.028619241146135718,0.9128658951667801
0.028619241146135718,0.9132062627637849
0.028824152180594927,0.9132062627637849
0.028824152180594927,0.9135466303607896
0.028994911375977598,0.9135466303607896
0.028994911375977598,0.9138869979577944
0.02902906321505413,0.9138869979577944
0.02902906321505413,0.9142273655547992
0.029063215054130665,0.9142273655547992
0.029063215054130665,0.914567733151804
0.029592568559816946,0.914567733151804
0.029592568559816946,0.9149081007488087
0.029677948157508283,0.9149081007488087
0.029677948157508283,0.9152484683458135
0.029729175916123084,0.9152484683458135
0.029729175916123084,0.9155888359428183
0.029814555513814418,0.9155888359428183
0.029814555513814418,0.915929203539823
0.03005361838735016,0.915929203539823
0.03005361838735016,0.9162695711368277
0.030173149824118027,0.9162695711368277
0.030173149824118027,0.9166099387338326
0.030190225743656297,0.9166099387338326
0.030190225743656297,0.9169503063308373
0.030309757180424165,0.9169503063308373
0.030309757180424165,0.917290673927842
0.030446364536730303,0.917290673927842
0.030446364536730303,0.9176310415248469
0.03068542741026604,0.9176310415248469
0.03068542741026604,0.9179714091218516
0.03106109764010792,0.9179714091218516
0.03106109764010792,0.9183117767188563
0.03126600867456712,0.9183117767188563
0.03126600867456712,0.9186521443158612
0.03135138827225846,0.9186521443158612
0.03135138827225846,0.9189925119128659
0.03181243809979167,0.9189925119128659
0.03181243809979167,0.9193328795098706
0.03211980465148048,0.9193328795098706
0.03211980465148048,0.9196732471068755
0.03230763976640142,0.9196732471068755
0.03230763976640142,0.9200136147038802
0.03263208223762849,0.9200136147038802
0.03263208223762849,0.9203539823008849
0.032973600628393836,0.9203539823008849
0.032973600628393836,0.9206943498978897
0.032990676547932106,0.9206943498978897
0.032990676547932106,0.9210347174948945
0.03321266350192958,0.9210347174948945
0.03321266350192958,0.9213750850918992
0.03324681534100611,0.9213750850918992
0.03324681534100611,0.921715452688904
0.03338342269731225,0.921715452688904
0.03338342269731225,0.9220558202859088
0.03353710597315666,0.9220558202859088
0.03353710597315666,0.9223961878829136
0.03391277620299853,0.9223961878829136
0.03391277620299853,0.9227365554799183
0.03452750930637615,0.9227365554799183
0.03452750930637615,0.9230769230769231
0.034561661145452685,0.9230769230769231
0.034561661145452685,0.9234172906739279
0.03505686281206243,0.9234172906739279
0.03505686281206243,0.9237576582709326
0.03531300160513644,0.9237576582709326
0.03531300160513644,0.9240980258679373
0.035808203271746185,0.9240980258679373
0.035808203271746185,0.9244383934649422
0.03582527919128445,0.9244383934649422
0.03582527919128445,0.9247787610619469
0.036200949421126324,0.9247787610619469
0.036200949421126324,0.9251191286589516
0.036218025340664595,0.9251191286589516
0.036218025340664595,0.9254594962559565
0.036320480857894195,0.9254594962559565
0.036320480857894195,0.9257998638529612
0.0364229363751238,0.9257998638529612
0.0364229363751238,0.9261402314499659
0.036508315972815134,0.9261402314499659
0.036508315972815134,0.9268209666439755
0.03657661965096821,0.9268209666439755
0.03657661965096821,0.9271613342409802
0.03724258051296062,0.9271613342409802
0.03724258051296062,0.927501701837985
0.03731088419111369,0.927501701837985
0.03731088419111369,0.9278420694349898
0.03739626378880503,0.9278420694349898
0.03739626378880503,0.9281824370319945
0.03780608585772344,0.9281824370319945
0.03780608585772344,0.9285228046289993
0.03792561729449131,0.9285228046289993
0.03792561729449131,0.9288631722260041
0.03814760424848878,0.9288631722260041
0.03814760424848878,0.9292035398230089
0.03821590792664185,0.9292035398230089
0.03821590792664185,0.9295439074200136
0.03855742631740719,0.9295439074200136
0.03855742631740719,0.9298842750170184
0.03869403367371333,0.9298842750170184
0.03869403367371333,0.9302246426140232
0.03879648919094293,0.9302246426140232
0.03879648919094293,0.9305650102110279
0.03906970390355521,0.9305650102110279
0.03906970390355521,0.9309053778080327
0.03944537413339708,0.9309053778080327
0.03944537413339708,0.9312457454050375
0.03971858884600936,0.9312457454050375
0.03971858884600936,0.9315861130020422
0.0399064239609303,0.9315861130020422
0.0399064239609303,0.9319264805990469
0.03992349988046856,0.9319264805990469
0.03992349988046856,0.9322668481960518
0.040077183156312965,0.9322668481960518
0.040077183156312965,0.9326072157930565
0.0402650182712339,0.9326072157930565
0.0402650182712339,0.9329475833900612
0.040401625627540044,0.9329475833900612
0.040401625627540044,0.9332879509870661
0.04048700522523138,0.9332879509870661
0.04048700522523138,0.9339686861810755
0.040640688501075786,0.9339686861810755
0.040640688501075786,0.9343090537780804
0.04084559953553499,0.9343090537780804
0.04084559953553499,0.9346494213750851
0.04086267545507326,0.9346494213750851
0.04086267545507326,0.9349897889720898
0.0412041938458386,0.9349897889720898
0.0412041938458386,0.9353301565690946
0.04128957344352993,0.9353301565690946
0.04128957344352993,0.9356705241660994
0.04168231959291008,0.9356705241660994
0.04168231959291008,0.9360108917631041
0.04183600286875448,0.9360108917631041
0.04183600286875448,0.9363512593601089
0.04214336942044329,0.9363512593601089
0.04214336942044329,0.9366916269571137
0.0424507359721321,0.9366916269571137
0.0424507359721321,0.9373723621511232
0.043970492811037876,0.9373723621511232
0.043970492811037876,0.937712729748128
0.044568149994877224,0.937712729748128
0.044568149994877224,0.9380530973451328
0.04537071821317578,0.9380530973451328
0.04537071821317578,0.9387338325391422
0.045626857006249785,0.9387338325391422
0.045626857006249785,0.9390742001361471
0.04642942522454834,0.9390742001361471
0.04642942522454834,0.9394145677331518
0.04649772890270141,0.9394145677331518
0.04649772890270141,0.9397549353301565
0.04764181551176531,0.9397549353301565
0.04764181551176531,0.9400953029271614
0.047829650626686246,0.9400953029271614
0.047829650626686246,0.9404356705241661
0.04788087838530105,0.9404356705241661
0.04788087838530105,0.9407760381211708
0.048034561661145454,0.9407760381211708
0.048034561661145454,0.9411164057181757
0.04875175028175267,0.9411164057181757
0.04875175028175267,0.9414567733151804
0.04904204091390321,0.9414567733151804
0.04904204091390321,0.9417971409121851
0.04936648338513029,0.9417971409121851
0.04936648338513029,0.94213750850919
0.05013489976435231,0.94213750850919
0.05013489976435231,0.9424778761061947
0.050544721833270724,0.9424778761061947
0.050544721833270724,0.9428182437031994
0.05073255694819166,0.9428182437031994
0.05073255694819166,0.9431586113002042
0.050954543902189134,0.9431586113002042
0.050954543902189134,0.943498978897209
0.05214985826986783,0.943498978897209
0.05214985826986783,0.9438393464942137
0.052952426488166386,0.9438393464942137
0.052952426488166386,0.9441797140912185
0.05361838735015881,0.9441797140912185
0.05361838735015881,0.9445200816882233
0.05426727229261296,0.9445200816882233
0.05426727229261296,0.944860449285228
0.05501861275229671,0.944860449285228
0.05501861275229671,0.9452008168822328
0.05544551074075339,0.9452008168822328
0.05544551074075339,0.9455411844792376
0.05561626993613606,0.9455411844792376
0.05561626993613606,0.9458815520762424
0.0559065605682866,0.9458815520762424
0.0559065605682866,0.9462219196732471
0.05633345855674328,0.9462219196732471
0.05633345855674328,0.9465622872702518
0.058263037464567465,0.9465622872702518
0.058263037464567465,0.9469026548672567
0.059236364878248696,0.9469026548672567
0.059236364878248696,0.9472430224642614
0.05979987022301151,0.9472430224642614
0.05979987022301151,0.9475833900612661
0.060909804992998876,0.9475833900612661
0.060909804992998876,0.947923757658271
0.062139271199754105,0.947923757658271
0.06217342303883064,0.947923757658271
0.06232710631467504,0.947923757658271
0.06232710631467504,0.9482641252552757
0.06295891533759093,0.9482641252552757
0.06295891533759093,0.9486044928522804
0.06367610395819814,0.9486044928522804
0.06367610395819814,0.9489448604492853
0.06512755711895085,0.9489448604492853
0.06512755711895085,0.94928522804629
0.0653666199924866,0.94928522804629
0.0653666199924866,0.9496255956432947
0.06623749188893822,0.9496255956432947
0.06623749188893822,0.9503063308373043
0.06625456780847648,0.9503063308373043
0.06625456780847648,0.9509870660313138
0.06704006010723677,0.9509870660313138
0.06704006010723677,0.9513274336283186
0.06770602096922919,0.9513274336283186
0.06770602096922919,0.9516678012253234
0.06838905775075987,0.9516678012253234
0.06838905775075987,0.9520081688223281
0.0691574741299819,0.9520081688223281
0.0691574741299819,0.9526889040163377
0.07200915269287252,0.9526889040163377
0.07200915269287252,0.9530292716133424
0.0727946449916328,0.9530292716133424
0.0727946449916328,0.9533696392103471
0.07366551688808443,0.9533696392103471
0.07366551688808443,0.9540503744043567
0.07402411119838803,0.9540503744043567
0.07402411119838803,0.9543907420013614
0.07479252757761005,0.9543907420013614
0.0748266794166866,0.9543907420013614
0.07701239711758479,0.9543907420013614
0.07701239711758479,0.9547311095983663
0.07706362487619958,0.9547311095983663
0.07706362487619958,0.955071477195371
0.0776271302209624,0.955071477195371
0.0776271302209624,0.9554118447923757
0.07834431884156962,0.9554118447923757
0.07834431884156962,0.9557522123893806
0.0787712168300263,0.9557522123893806
0.0787712168300263,0.9560925799863853
0.07883952050817937,0.9560925799863853
0.07883952050817937,0.95643294758339
0.07938594993340391,0.95643294758339
0.07938594993340391,0.9567733151803949
0.07960793688740139,0.9567733151803949
0.07960793688740139,0.9571136827773996
0.0805300365424678,0.9571136827773996
0.0805300365424678,0.9574540503744043
0.0809569345309245,0.9574540503744043
0.0809569345309245,0.9577944179714091
0.08143506027799598,0.9577944179714091
0.08143506027799598,0.9581347855684139
0.08175950274922304,0.9581347855684139
0.08175950274922304,0.9584751531654186
0.08302312079505482,0.9584751531654186
0.08302312079505482,0.9588155207624234
0.08321095590997575,0.9588155207624234
0.08321095590997575,0.9591558883594282
0.08324510774905229,0.9591558883594282
0.08324510774905229,0.959496255956433
0.08331341142720536,0.959496255956433
0.08331341142720536,0.9598366235534377
0.08394522045012123,0.9598366235534377
0.08394522045012123,0.9601769911504425
0.08602848263378983,0.9601769911504425
0.08602848263378983,0.9605173587474473
0.08712134148423893,0.9605173587474473
0.08712134148423893,0.960857726344452
0.08765069498992521,0.960857726344452
0.08765069498992521,0.9611980939414567
0.08855571872545337,0.9611980939414567
0.08855571872545337,0.9615384615384616
0.0885898705645299,0.9615384615384616
0.0885898705645299,0.9618788291354663
0.0886410983231447,0.9618788291354663
0.0886410983231447,0.962219196732471
0.09043406987466275,0.962219196732471
0.09043406987466275,0.9625595643294759
0.09051944947235409,0.9625595643294759
0.09051944947235409,0.9628999319264806
0.09234657286294867,0.9628999319264806
0.09234657286294867,0.9632402995234853
0.0933711280352447,0.9632402995234853
0.0933711280352447,0.9635806671204902
0.09400293705816058,0.9635806671204902
0.09400293705816058,0.9639210347174949
0.09538608654076022,0.9639210347174949
0.09538608654076022,0.9642614023144996
0.09572760493152556,0.9642614023144996
0.09572760493152556,0.9646017699115044
0.09635941395444145,0.9646017699115044
0.09635941395444145,0.9649421375085092
0.09656432498890065,0.9649421375085092
0.09656432498890065,0.9652825051055139
0.09700829889689559,0.9652825051055139
0.09700829889689559,0.9656228727025187
0.09781086711519416,0.9656228727025187
0.09781086711519416,0.9659632402995235
0.0991940165977938,0.9659632402995235
0.0991940165977938,0.9663036078965282
0.10182370820668693,0.9663036078965282
0.10182370820668693,0.966643975493533
0.1022506061951436,0.966643975493533
0.1022506061951436,0.9669843430905378
0.1031385540111335,0.9669843430905378
0.1031385540111335,0.9673247106875426
0.10399234998804685,0.9673247106875426
0.10399234998804685,0.9676650782845473
0.10576824562002664,0.9676650782845473
0.10576824562002664,0.9680054458815521
0.10798811516000137,0.9680054458815521
0.10798811516000137,0.9683458134785569
0.1092175813667566,0.9683458134785569
0.1092175813667566,0.9686861810755616
0.11148867866534613,0.9686861810755616
0.11148867866534613,0.9690265486725663
0.11208633584918548,0.9690265486725663
0.11208633584918548,0.9693669162695712
0.11449404050408114,0.9693669162695712
0.11449404050408114,0.9697072838665759
0.11490386257299956,0.9697072838665759
0.11490386257299956,0.9700476514635806
0.11570643079129811,0.9700476514635806
0.11572350671083638,0.9703880190605855
0.11596256958437212,0.9703880190605855
0.11596256958437212,0.9707283866575902
0.11615040469929305,0.9707283866575902
0.11615040469929305,0.9710687542545949
0.11645777125098186,0.9710687542545949
0.11645777125098186,0.9714091218515998
0.12053891602062772,0.9714091218515998
0.12053891602062772,0.9717494894486045
0.12093166217000785,0.9717494894486045
0.12093166217000785,0.9720898570456092
0.1213756360780028,0.9720898570456092
0.1213756360780028,0.9727705922396188
0.1216830026296916,0.9727705922396188
0.1216830026296916,0.9731109598366235
0.12357842969843925,0.9731109598366235
0.12357842969843925,0.9734513274336283
0.1237150370547454,0.9734513274336283
0.1237150370547454,0.9737916950306331
0.12378334073289847,0.9737916950306331
0.12378334073289847,0.9741320626276379
0.12779618182439123,0.9741320626276379
0.12779618182439123,0.9744724302246426
0.13081861958266452,0.9744724302246426
0.13081861958266452,0.9748127978216474
0.13288480584679485,0.9748127978216474
0.13288480584679485,0.9751531654186522
0.1369659506164407,0.9751531654186522
0.1369659506164407,0.9754935330156569
0.1373245449267443,0.9754935330156569
0.1373245449267443,0.9758339006126616
0.1374270004439739,0.9758339006126616
0.1374270004439739,0.9761742682096665
0.1378026706738158,0.9761742682096665
0.1378026706738158,0.9765146358066712
0.13920289607595368,0.9765146358066712
0.13920289607595368,0.9768550034036759
0.14005669205286705,0.9768550034036759
0.14005669205286705,0.9771953710006808
0.141269082340084,0.9771953710006808
0.141269082340084,0.9775357385976855
0.14232778935145657,0.9775357385976855
0.14232778935145657,0.9778761061946902
0.14306205389160206,0.9778761061946902
0.14306205389160206,0.9782164737916951
0.14724565417847751,0.9782164737916951
0.14724565417847751,0.9785568413886998
0.1473651856152454,0.9785568413886998
0.1473651856152454,0.9788972089857045
0.15069498992520747,0.9788972089857045
0.15069498992520747,0.9792375765827094
0.1556640825108432,0.9792375765827094
0.1556640825108432,0.9795779441797141
0.1611283767630887,0.9795779441797141
0.1611283767630887,0.9799183117767188
0.16327994262491036,0.9799183117767188
0.16327994262491036,0.9802586793737236
0.1636726887742905,0.9802586793737236
0.16370684061336702,0.9802586793737236
0.16669512653256377,0.9802586793737236
0.16669512653256377,0.9805990469707284
0.16898329975069157,0.9805990469707284
0.1690174515897681,0.9805990469707284
0.16951265325637785,0.9805990469707284
0.16951265325637785,0.9809394145677331
0.16961510877360747,0.9809394145677331
0.16961510877360747,0.9812797821647379
0.17308152043987568,0.9812797821647379
0.17308152043987568,0.9816201497617427
0.17335473515248795,0.9816201497617427
0.17335473515248795,0.9819605173587475
0.1734401147501793,0.9819605173587475
0.17347426658925583,0.9819605173587475
0.17422560704893958,0.9819605173587475
0.17422560704893958,0.9823008849557522
0.1744817458420136,0.9823008849557522
0.1744817458420136,0.982641252552757
0.17840920733581503,0.982641252552757
0.17840920733581503,0.9829816201497618
0.17878487756565692,0.9829816201497618
0.17878487756565692,0.9833219877467665
0.1810218230251699,0.9833219877467665
0.18105597486424643,0.9833219877467665
0.18378812199036917,0.9833219877467665
0.18378812199036917,0.9836623553437712
0.18488098084081828,0.9836623553437712
0.18488098084081828,0.9840027229407761
0.1850346641166627,0.9840027229407761
0.1850346641166627,0.9843430905377808
0.1862812062429562,0.9843430905377808
0.1862812062429562,0.9846834581347855
0.18800587411632116,0.9846834581347855
0.18800587411632116,0.9850238257317904
0.18952563095522693,0.9850238257317904
0.18952563095522693,0.9853641933287951
0.19070386940336737,0.9853641933287951
0.19070386940336737,0.9857045609257998
0.1912161469895154,0.9857045609257998
0.1912161469895154,0.9860449285228047
0.1938629145179468,0.9860449285228047
0.1938629145179468,0.9863852961198094
0.1973464021037533,0.9863852961198094
0.1973464021037533,0.9867256637168141
0.1976537686554421,0.9867256637168141
0.1976537686554421,0.9870660313138189
0.20161538198832007,0.9870660313138189
0.20161538198832007,0.9874063989108237
0.2034254294593764,0.9874063989108237
0.2034254294593764,0.9877467665078284
0.2204501212390287,0.9877467665078284
0.2204501212390287,0.9880871341048332
0.22149175233086302,0.9880871341048332
0.22149175233086302,0.988427501701838
0.22593149141081248,0.988427501701838
0.22593149141081248,0.9887678692988427
0.23023462313445578,0.9887678692988427
0.23023462313445578,0.9891082368958475
0.23358150336395614,0.9891082368958475
0.23358150336395614,0.9894486044928523
0.2355793859499334,0.9894486044928523
0.2355793859499334,0.989788972089857
0.23566476554762475,0.989788972089857
0.23566476554762475,0.9901293396868618
0.2445271677879854,0.9901293396868618
0.2445271677879854,0.9904697072838666
0.25159659847682797,0.9904697072838666
0.25163075031590454,0.9904697072838666
0.25364570882142,0.9904697072838666
0.25364570882142,0.9908100748808714
0.2591100030736655,0.9908100748808714
0.25914415491274206,0.9908100748808714
0.260612683993033,0.9908100748808714
0.26064683583210957,0.9908100748808714
0.26131279669410196,0.9908100748808714
0.26131279669410196,0.9911504424778761
0.27183156312967455,0.9911504424778761
0.27183156312967455,0.9914908100748808
0.2768518834739251,0.9914908100748808
0.2768860353130016,0.9914908100748808
0.2787814623817493,0.9914908100748808
0.2787814623817493,0.9918311776718857
0.28538984324305866,0.9918311776718857
0.2854239950821352,0.9918311776718857
0.28627779105904855,0.9918311776718857
0.28627779105904855,0.9921715452688904
0.28631194289812506,0.9921715452688904
0.28631194289812506,0.9925119128658951
0.28791707933472216,0.9925119128658951
0.28791707933472216,0.9928522804629
0.28923192513916873,0.9928522804629
0.2892660769782453,0.9928522804629
0.31438475461903626,0.9928522804629
0.31438475461903626,0.9931926480599047
0.31583620777978894,0.9931926480599047
0.31583620777978894,0.9935330156569094
0.3255865578361395,0.9935330156569094
0.325620709675216,0.9935330156569094
0.32766982001980804,0.9935330156569094
0.3277039718588846,0.9935330156569094
0.33267306444452033,0.9935330156569094
0.3327072162835969,0.9935330156569094
0.33354393634097196,0.9935330156569094
0.33354393634097196,0.9938733832539143
0.33525152829479865,0.9938733832539143
0.33525152829479865,0.994213750850919
0.3373518663980055,0.994213750850919
0.3373860182370821,0.994213750850919
0.33755677743246476,0.994213750850919
0.33755677743246476,0.9945541184479237
0.3420306683514907,0.9945541184479237
0.3420648201905673,0.9945541184479237
0.34326013455824594,0.9945541184479237
0.3432942863973225,0.9945541184479237
0.34867320105187666,0.9945541184479237
0.34870735289095317,0.9945541184479237
0.3651173115672279,0.9945541184479237
0.36515146340630444,0.9945541184479237
0.3655612854752228,0.9945541184479237
0.3655954373142994,0.9945541184479237
0.38316655851917625,0.9945541184479237
0.3832007103582528,0.9945541184479237
0.38577917420853114,0.9945541184479237
0.38581332604760765,0.9945541184479237
0.3884088658174243,0.9945541184479237
0.3884088658174243,0.9948944860449285
0.391653290529695,0.9948944860449285
0.391653290529695,0.9952348536419333
0.39267784570199105,0.9952348536419333
0.39267784570199105,0.995575221238938
0.3930876677709095,0.995575221238938
0.3930876677709095,0.9959155888359428
0.39493186708104233,0.9959155888359428
0.39493186708104233,0.9962559564329476
0.3958198148970322,0.9962559564329476
0.39585396673610873,0.9962559564329476
0.3965028516785629,0.9962559564329476
0.39653700351763943,0.9962559564329476
0.4007547556435914,0.9962559564329476
0.4007547556435914,0.9965963240299524
0.4046651412178546,0.9965963240299524
0.40469929305693114,0.9965963240299524
0.4054335575970766,0.9965963240299524
0.4054335575970766,0.9969366916269571
0.4085413749530412,0.9969366916269571
0.4085413749530412,0.9972770592239619
0.4317133977664697,0.9972770592239619
0.43174754960554623,0.9972770592239619
0.4371093883405621,0.9972770592239619
0.4371093883405621,0.9976174268209667
0.4394146374782282,0.9976174268209667
0.43944878931730474,0.9976174268209667
0.4399952187425293,0.9976174268209667
0.4400293705816058,0.9976174268209667
0.44619377753492023,0.9976174268209667
0.44619377753492023,0.9979577944179714
0.4562685700624979,0.9979577944179714
0.4562685700624979,0.9982981620149761
0.46543833885454733,0.9982981620149761
0.46543833885454733,0.998638529611981
0.4748300946005942,0.998638529611981
0.4748642464396708,0.998638529611981
0.48125064034698267,0.998638529611981
0.48128479218605924,0.998638529611981
0.48154093097913325,0.998638529611981
0.48157508281820977,0.998638529611981
0.4821898159215874,0.998638529611981
0.4822239677606639,0.998638529611981
0.48517810184078414,0.998638529611981
0.48521225367986065,0.998638529611981
0.48714183258768484,0.998638529611981
0.48717598442676135,0.998638529611981
0.49223045661008846,0.998638529611981
0.492264608449165,0.998638529611981
0.49515043885113214,0.998638529611981
0.49518459069020865,0.998638529611981
0.4957480960349715,0.998638529611981
0.495782247874048,0.998638529611981
0.5043372835627199,0.998638529611981
0.5043714354017964,0.998638529611981
0.5049007889074827,0.998638529611981
0.5049349407465592,0.998638529611981
0.50601072367747,0.998638529611981
0.5060448755165465,0.998638529611981
0.5133192172398484,0.998638529611981
0.5133533690789249,0.998638529611981
0.5139681021823025,0.998638529611981
0.514002254021379,0.998638529611981
0.5143437724121444,0.998638529611981
0.514377924251221,0.998638529611981
0.5151292647109047,0.998638529611981
0.5151634165499812,0.998638529611981
0.5182883098254841,0.998638529611981
0.5183224616645606,0.998638529611981
0.519364092756395,0.998638529611981
0.5193982445954715,0.998638529611981
0.5205764830436119,0.998638529611981
0.5206106348826884,0.998638529611981
0.5375670229841877,0.998638529611981
0.5376011748232642,0.998638529611981
0.5437655817765786,0.998638529611981
0.5437655817765786,0.9989788972089857
0.5527475154537072,0.9989788972089857
0.5527816672927837,0.9989788972089857
0.5587923909702538,0.9989788972089857
0.5588265428093303,0.9989788972089857
0.5699429664287422,0.9989788972089857
0.5699771182678187,0.9989788972089857
0.5700283460264335,0.9989788972089857
0.5700624978655101,0.9989788972089857
0.5752706533246815,0.9989788972089857
0.575304805163758,0.9989788972089857
0.5791127352207917,0.9989788972089857
0.5791468870598682,0.9989788972089857
0.5807690994160035,0.9989788972089857
0.58080325125508,0.9989788972089857
0.5908780437826577,0.9989788972089857
0.5909121956217342,0.9989788972089857
0.5932686725180151,0.9989788972089857
0.5933028243570916,0.9989788972089857
0.6045046275741949,0.9989788972089857
0.6045387794132714,0.9989788972089857
0.6167651378026707,0.9989788972089857
0.6167992896417472,0.9989788972089857
0.6201803217103241,0.9989788972089857
0.6202144735494006,0.9989788972089857
0.6225880263652198,0.9989788972089857
0.6225880263652198,0.9993192648059904
0.6317748710768075,0.9993192648059904
0.631809022915884,0.9993192648059904
0.632065161708958,0.9993192648059904
0.6320993135480346,0.9993192648059904
0.6379905057887367,0.9993192648059904
0.6380246576278132,0.9993192648059904
0.639288275673645,0.9993192648059904
0.6393224275127216,0.9993192648059904
0.6514975581435061,0.9993192648059904
0.6515317099825826,0.9993192648059904
0.6623749188893822,0.9993192648059904
0.6624090707284588,0.9993192648059904
0.6658754823947269,0.9993192648059904
0.6659096342338034,0.9993192648059904
0.6745500495201666,0.9993192648059904
0.6745842013592432,0.9993192648059904
0.6762917933130699,0.9993192648059904
0.6763259451521464,0.9993192648059904
0.6772651207267512,0.9993192648059904
0.6772992725658277,0.9993192648059904
0.677896929749667,0.9993192648059904
0.6779310815887436,0.9993192648059904
0.6785628906116594,0.9993192648059904
0.6785970424507359,0.9993192648059904
0.7027936204364605,0.9993192648059904
0.702827772275537,0.9993192648059904
0.7196817048598066,0.9993192648059904
0.7197158566988833,0.9993192648059904
0.722191865031932,0.9993192648059904
0.7222260168710085,0.9993192648059904
0.7265803763532667,0.9993192648059904
0.7266145281923432,0.9993192648059904
0.7402923397424951,0.9993192648059904
0.7402923397424951,0.9996596324029953
0.7415901096274035,0.9996596324029953
0.74162426146648,0.9996596324029953
0.7570267408899969,0.9996596324029953
0.7570608927290735,0.9996596324029953
0.7583928144530583,0.9996596324029953
0.7584269662921348,0.9996596324029953
0.7634302107168471,0.9996596324029953
0.7634643625559236,0.9996596324029953
0.7752638229568662,0.9996596324029953
0.7752979747959428,0.9996596324029953
0.780045080427581,0.9996596324029953
0.7800792322666575,0.9996596324029953
0.7871657388750384,0.9996596324029953
0.7871657388750384,1.0
0.7929715515180492,1.0
0.7930057033571258,1.0
0.7936033605409651,1.0
0.7936375123800417,1.0
0.794747447150029,1.0
0.7947815989891056,1.0
0.7998531470919709,1.0
0.7998872989310475,1.0
0.806000478125747,1.0
0.8060346299648236,1.0
0.8210102113998838,1.0
0.8210443632389605,1.0
0.8550766708787269,1.0
0.8551108227178034,1.0
0.8597383969126737,1.0
0.8597725487517502,1.0
0.8659369557050647,1.0
0.8659711075441413,1.0
0.8824835217376455,1.0
0.8825176735767221,1.0
0.9025989549537242,1.0
0.9026331067928008,1.0
0.9032478398961784,1.0
0.9032819917352549,1.0
0.9104197261022506,1.0
0.9104538779413271,1.0
0.9169256514463304,1.0
0.9169598032854069,1.0
0.9204603667907517,1.0
0.9204945186298282,1.0
0.9454936648338513,1.0
0.9455278166729278,1.0
0.9829582323008094,1.0
0.9829923841398859,1.0
1.0,1.0
