fpr,tpr
0.0,0.0
1.6518004625041296e-05,0.0
1.6518004625041296e-05,0.0006944444444444445
3.303600925008259e-05,0.0006944444444444445
3.303600925008259e-05,0.0020833333333333333
4.955401387512388e-05,0.0020833333333333333
4.955401387512388e-05,0.030555555555555555
4.955401387512388e-05,0.03194444444444444
4.955401387512388e-05,0.034722222222222224
6.607201850016519e-05,0.034722222222222224
6.607201850016519e-05,0.04027777777777778
8.259002312520647e-05,0.04027777777777778
8.259002312520647e-05,0.059027777777777776
9.910802775024777e-05,0.059027777777777776
9.910802775024777e-05,0.06805555555555555
9.910802775024777e-05,0.06944444444444445
9.910802775024777e-05,0.07013888888888889
0.00011562603237528906,0.07013888888888889
0.00011562603237528906,0.08680555555555555
0.00013214403700033037,0.08680555555555555
0.00013214403700033037,0.11805555555555555
0.00014866204162537167,0.11805555555555555
0.00014866204162537167,0.1284722222222222
0.00018169805087545423,0.1284722222222222
0.00018169805087545423,0.16597222222222222
0.00019821605550049553,0.16597222222222222
0.00019821605550049553,0.1701388888888889
0.00019821605550049553,0.17152777777777778
0.00019821605550049553,0.17222222222222222
0.00019821605550049553,0.1736111111111111
0.00021473406012553683,0.1736111111111111
0.00021473406012553683,0.17569444444444443
0.00023125206475057812,0.17569444444444443
0.00023125206475057812,0.18194444444444444
0.0002477700693756194,0.18194444444444444
0.0002477700693756194,0.18541666666666667
0.00026428807400066074,0.18541666666666667
0.00026428807400066074,0.18611111111111112
0.000280806078625702,0.18611111111111112
0.000280806078625702,0.18819444444444444
0.0003138420878757846,0.18819444444444444
0.0003138420878757846,0.19166666666666668
0.0003303600925008259,0.19166666666666668
0.0003303600925008259,0.19236111111111112
0.0003303600925008259,0.19375
0.0003303600925008259,0.19930555555555557
0.0003468780971258672,0.19930555555555557
0.0003468780971258672,0.2048611111111111
0.00036339610175090847,0.2048611111111111
0.00036339610175090847,0.2152777777777778
0.00039643211100099106,0.2152777777777778
0.00039643211100099106,0.21597222222222223
0.0004129501156260324,0.21597222222222223
0.0004129501156260324,0.21805555555555556
0.00042946812025107365,0.21805555555555556
0.00042946812025107365,0.21875
0.000445986124876115,0.21875
0.000445986124876115,0.22083333333333333
0.00046250412950115625,0.22083333333333333
0.00046250412950115625,0.22361111111111112
0.00047902213412619757,0.22361111111111112
0.00047902213412619757,0.225
0.0004955401387512388,0.225
0.0004955401387512388,0.22847222222222222
0.0005120581433762802,0.22847222222222222
0.0005120581433762802,0.23194444444444445
0.0005285761480013215,0.23194444444444445
0.0005285761480013215,0.2513888888888889
0.000561612157251404,0.2513888888888889
0.000561612157251404,0.25833333333333336
0.0005781301618764453,0.25833333333333336
0.0005781301618764453,0.26180555555555557
0.0005946481665014867,0.26180555555555557
0.0005946481665014867,0.275
0.0006111661711265279,0.275
0.0006111661711265279,0.27569444444444446
0.0006276841757515692,0.27569444444444446
0.0006276841757515692,0.2881944444444444
0.0006442021803766105,0.2881944444444444
0.0006442021803766105,0.2923611111111111
0.0006607201850016518,0.2923611111111111
0.0006607201850016518,0.29444444444444445
0.0006607201850016518,0.29583333333333334
0.0006607201850016518,0.3
0.0006772381896266931,0.3
0.0006772381896266931,0.3034722222222222
0.0006937561942517344,0.3034722222222222
0.0006937561942517344,0.3090277777777778
0.0007102741988767757,0.3090277777777778
0.0007102741988767757,0.3125
0.0007267922035018169,0.3125
0.0007267922035018169,0.32222222222222224
0.0007598282127518996,0.32222222222222224
0.0007598282127518996,0.3277777777777778
0.0007763462173769409,0.3277777777777778
0.0007763462173769409,0.32916666666666666
0.0007928642220019821,0.32916666666666666
0.0007928642220019821,0.3298611111111111
0.0008093822266270234,0.3298611111111111
0.0008093822266270234,0.3326388888888889
0.0008259002312520648,0.3326388888888889
0.0008259002312520648,0.3375
0.0008424182358771061,0.3375
0.0008424182358771061,0.34305555555555556
0.0008589362405021473,0.34305555555555556
0.0008589362405021473,0.34444444444444444
0.0008754542451271886,0.34444444444444444
0.0008754542451271886,0.3548611111111111
0.00089197224975223,0.3548611111111111
0.00089197224975223,0.3597222222222222
0.0009084902543772713,0.36041666666666666
0.0009084902543772713,0.36319444444444443
0.0009250082590023125,0.36319444444444443
0.0009250082590023125,0.36736111111111114
0.0009415262636273538,0.36736111111111114
0.0009415262636273538,0.36944444444444446
0.0009580442682523951,0.36944444444444446
0.0009580442682523951,0.37083333333333335
0.0009745622728774364,0.37083333333333335
0.0009745622728774364,0.3736111111111111
0.0009910802775024777,0.3736111111111111
0.0009910802775024777,0.37430555555555556
0.001007598282127519,0.37430555555555556
0.001007598282127519,0.38263888888888886
0.0010241162867525603,0.38263888888888886
0.0010241162867525603,0.38333333333333336
0.0010406342913776017,0.38333333333333336
0.0010406342913776017,0.3840277777777778
0.001057152296002643,0.3840277777777778
0.001057152296002643,0.3902777777777778
0.001073670300627684,0.3902777777777778
0.001073670300627684,0.3909722222222222
0.001073670300627684,0.3923611111111111
0.001073670300627684,0.39375
0.0010901883052527254,0.39375
0.0010901883052527254,0.3972222222222222
0.0011067063098777667,0.3972222222222222
0.0011067063098777667,0.39791666666666664
0.0011067063098777667,0.3993055555555556
0.0011067063098777667,0.40694444444444444
0.001123224314502808,0.40694444444444444
0.001123224314502808,0.41180555555555554
0.0011397423191278494,0.41180555555555554
0.0011397423191278494,0.41458333333333336
0.0011562603237528907,0.41458333333333336
0.0011562603237528907,0.41597222222222224
0.0011892963330029733,0.41597222222222224
0.0011892963330029733,0.42569444444444443
0.0012058143376280145,0.42569444444444443
0.0012058143376280145,0.42916666666666664
0.0012223323422530558,0.42916666666666664
0.0012223323422530558,0.43125
0.0012553683515031384,0.43125
0.0012553683515031384,0.4423611111111111
0.0013049223653782624,0.4423611111111111
0.0013049223653782624,0.44375
0.0013214403700033035,0.44375
0.0013214403700033035,0.45208333333333334
0.0013379583746283448,0.45208333333333334
0.0013379583746283448,0.45555555555555555
0.0013544763792533861,0.45555555555555555
0.0013544763792533861,0.45902777777777776
0.0013875123885034688,0.45902777777777776
0.0013875123885034688,0.4673611111111111
0.0014040303931285101,0.4673611111111111
0.0014040303931285101,0.46944444444444444
0.0014205483977535514,0.46944444444444444
0.0014205483977535514,0.47291666666666665
0.0014370664023785928,0.47291666666666665
0.0014370664023785928,0.47638888888888886
0.0014701024116286752,0.47638888888888886
0.0014701024116286752,0.47708333333333336
0.0014866204162537165,0.47708333333333336
0.0014866204162537165,0.4777777777777778
0.0015031384208787578,0.4777777777777778
0.0015031384208787578,0.48125
0.0015196564255037992,0.48125
0.0015196564255037992,0.4888888888888889
0.0015526924347538818,0.4888888888888889
0.0015526924347538818,0.49444444444444446
0.0015857284440039642,0.49444444444444446
0.0015857284440039642,0.4951388888888889
0.0016022464486290056,0.4951388888888889
0.0016022464486290056,0.4979166666666667
0.001618764453254047,0.4979166666666667
0.001618764453254047,0.5
0.0016518004625041295,0.5
0.0016518004625041295,0.5020833333333333
0.0016683184671291709,0.5020833333333333
0.0016683184671291709,0.50625
0.0016848364717542122,0.50625
0.0016848364717542122,0.5069444444444444
0.0017013544763792533,0.5069444444444444
0.0017013544763792533,0.5083333333333333
0.0017178724810042946,0.5083333333333333
0.0017178724810042946,0.5097222222222222
0.001734390485629336,0.5097222222222222
0.001734390485629336,0.5118055555555555
0.0017674264948794186,0.5118055555555555
0.0017674264948794186,0.5125
0.0018004625041295012,0.5125
0.0018004625041295012,0.5145833333333333
0.0018169805087545426,0.5145833333333333
0.0018169805087545426,0.5152777777777777
0.0018334985133795837,0.5152777777777777
0.0018334985133795837,0.51875
0.001850016518004625,0.51875
0.001850016518004625,0.5194444444444445
0.0018665345226296663,0.5194444444444445
0.0018665345226296663,0.525
0.001899570531879749,0.525
0.001899570531879749,0.5256944444444445
0.0019160885365047903,0.5256944444444445
0.0019160885365047903,0.5263888888888889
0.0019326065411298316,0.5263888888888889
0.0019326065411298316,0.5270833333333333
0.0019491245457548727,0.5270833333333333
0.0019491245457548727,0.53125
0.001965642550379914,0.53125
0.001965642550379914,0.5319444444444444
0.0019986785596299967,0.5319444444444444
0.0019986785596299967,0.5368055555555555
0.0020317145688800793,0.5368055555555555
0.0020317145688800793,0.5375
0.0020482325735051207,0.5375
0.0020482325735051207,0.5416666666666666
0.0020812685827552033,0.5416666666666666
0.0020977865873802446,0.5416666666666666
0.0020977865873802446,0.5423611111111111
0.002114304592005286,0.5423611111111111
0.002114304592005286,0.5430555555555555
0.0021308225966303273,0.5430555555555555
0.0021308225966303273,0.5465277777777777
0.002147340601255368,0.5465277777777777
0.002147340601255368,0.5472222222222223
0.0021638586058804095,0.5472222222222223
0.0021638586058804095,0.5506944444444445
0.002196894615130492,0.5506944444444445
0.002196894615130492,0.5520833333333334
0.0022299306243805748,0.5520833333333334
0.0022299306243805748,0.5534722222222223
0.0022629666336306574,0.5534722222222223
0.0022629666336306574,0.5541666666666667
0.0022794846382556988,0.5541666666666667
0.0022794846382556988,0.5569444444444445
0.00229600264288074,0.5569444444444445
0.00229600264288074,0.5576388888888889
0.0023125206475057814,0.5576388888888889
0.0023125206475057814,0.5583333333333333
0.0023290386521308227,0.5583333333333333
0.0023290386521308227,0.5597222222222222
0.0023951106706309876,0.5597222222222222
0.0023951106706309876,0.5611111111111111
0.002411628675256029,0.5611111111111111
0.002411628675256029,0.5625
0.0024281466798810702,0.5625
0.0024281466798810702,0.5645833333333333
0.002461182689131153,0.5645833333333333
0.002461182689131153,0.5666666666666667
0.002477700693756194,0.5666666666666667
0.002477700693756194,0.5673611111111111
0.0024942186983812355,0.5673611111111111
0.0024942186983812355,0.56875
0.002527254707631318,0.56875
0.002527254707631318,0.5701388888888889
0.0025933267261314835,0.5701388888888889
0.0025933267261314835,0.5708333333333333
0.002609844730756525,0.5708333333333333
0.002609844730756525,0.5784722222222223
0.002642880740006607,0.5784722222222223
0.002642880740006607,0.5791666666666667
0.0026593987446316483,0.5791666666666667
0.0026759167492566896,0.5798611111111112
0.002692434753881731,0.5798611111111112
0.002692434753881731,0.5805555555555556
0.002741988767756855,0.5805555555555556
0.002741988767756855,0.5819444444444445
0.0027585067723818963,0.5819444444444445
0.0027585067723818963,0.5833333333333334
0.0027750247770069376,0.5833333333333334
0.0027750247770069376,0.5840277777777778
0.002791542781631979,0.5840277777777778
0.002791542781631979,0.5875
0.0028080607862570202,0.5875
0.0028080607862570202,0.5881944444444445
0.0028245787908820616,0.5881944444444445
0.0028245787908820616,0.5888888888888889
0.002841096795507103,0.5888888888888889
0.002841096795507103,0.5895833333333333
0.0028906508093822264,0.5895833333333333
0.0028906508093822264,0.5909722222222222
0.0029402048232573504,0.5909722222222222
0.0029402048232573504,0.5916666666666667
0.002973240832507433,0.5916666666666667
0.002973240832507433,0.5930555555555556
0.003022794846382557,0.5930555555555556
0.003022794846382557,0.59375
0.0030393128510075983,0.59375
0.0030393128510075983,0.5972222222222222
0.0030558308556326397,0.5972222222222222
0.0030558308556326397,0.5979166666666667
0.0030888668648827223,0.5979166666666667
0.0030888668648827223,0.5986111111111111
0.003121902874132805,0.5986111111111111
0.003121902874132805,0.6006944444444444
0.0031714568880079285,0.6006944444444444
0.0031714568880079285,0.6013888888888889
0.00318797489263297,0.6013888888888889
0.00318797489263297,0.6034722222222222
0.003204492897258011,0.6034722222222222
0.003204492897258011,0.6041666666666666
0.0032210109018830525,0.6041666666666666
0.0032210109018830525,0.6055555555555555
0.003237528906508094,0.6055555555555555
0.003237528906508094,0.6069444444444444
0.0032705649157581764,0.6069444444444444
0.0032705649157581764,0.6076388888888888
0.003303600925008259,0.6076388888888888
0.003303600925008259,0.6083333333333333
0.0033861909481334653,0.6083333333333333
0.0033861909481334653,0.6090277777777777
0.0034027089527585066,0.6090277777777777
0.0034027089527585066,0.6097222222222223
0.0034357449620085892,0.6097222222222223
0.0034357449620085892,0.6131944444444445
0.0034522629666336306,0.6131944444444445
0.0034522629666336306,0.6159722222222223
0.003468780971258672,0.6159722222222223
0.003468780971258672,0.6166666666666667
0.0035018169805087545,0.6166666666666667
0.0035018169805087545,0.6173611111111111
0.0035513709943838785,0.6173611111111111
0.0035513709943838785,0.6201388888888889
0.003584407003633961,0.6201388888888889
0.003584407003633961,0.6229166666666667
0.003617443012884044,0.6229166666666667
0.003617443012884044,0.6243055555555556
0.003633961017509085,0.6243055555555556
0.003633961017509085,0.6270833333333333
0.0036835150313842087,0.6270833333333333
0.0036835150313842087,0.6291666666666667
0.00370003303600925,0.6291666666666667
0.00370003303600925,0.6298611111111111
0.0037826230591344566,0.6298611111111111
0.0037826230591344566,0.6305555555555555
0.003799141063759498,0.6305555555555555
0.003799141063759498,0.6319444444444444
0.0038321770730095806,0.6319444444444444
0.0038321770730095806,0.6326388888888889
0.003848695077634622,0.6326388888888889
0.003848695077634622,0.6347222222222222
0.0038817310868847045,0.6347222222222222
0.0038817310868847045,0.6375
0.003931285100759828,0.6375
0.003931285100759828,0.6388888888888888
0.003964321110009911,0.6388888888888888
0.003964321110009911,0.6395833333333333
0.004030393128510076,0.6395833333333333
0.004030393128510076,0.6402777777777777
0.004046911133135117,0.6402777777777777
0.004046911133135117,0.6409722222222223
0.0040799471423851996,0.6409722222222223
0.0040799471423851996,0.6423611111111112
0.004096465147010241,0.6423611111111112
0.004096465147010241,0.6430555555555556
0.004162537165510407,0.6430555555555556
0.004162537165510407,0.64375
0.0041790551701354475,0.64375
0.0041790551701354475,0.6444444444444445
0.00421209117938553,0.6444444444444445
0.00421209117938553,0.6472222222222223
0.004228609184010572,0.6472222222222223
0.004228609184010572,0.6506944444444445
0.004245127188635613,0.6506944444444445
0.004245127188635613,0.6513888888888889
0.0042616451932606545,0.6513888888888889
0.0042781631978856954,0.6520833333333333
0.0042781631978856954,0.6534722222222222
0.004294681202510736,0.6534722222222222
0.004294681202510736,0.6541666666666667
0.004311199207135778,0.6541666666666667
0.004311199207135778,0.6548611111111111
0.004327717211760819,0.6548611111111111
0.004360753221010902,0.6548611111111111
0.004360753221010902,0.6569444444444444
0.004377271225635943,0.6569444444444444
0.004377271225635943,0.6583333333333333
0.004426825239511067,0.6583333333333333
0.004426825239511067,0.6604166666666667
0.0044598612487611496,0.6604166666666667
0.0044598612487611496,0.6611111111111111
0.004476379253386191,0.6611111111111111
0.004476379253386191,0.6652777777777777
0.004492897258011232,0.6652777777777777
0.004492897258011232,0.6659722222222222
0.004525933267261315,0.6659722222222222
0.0045589692765113975,0.6659722222222222
0.0045589692765113975,0.6666666666666666
0.004575487281136438,0.6666666666666666
0.004575487281136438,0.6673611111111111
0.004608523290386521,0.6673611111111111
0.004608523290386521,0.6708333333333333
0.004641559299636604,0.6708333333333333
0.004641559299636604,0.6715277777777777
0.004790221341261975,0.6715277777777777
0.004790221341261975,0.6722222222222223
0.004823257350512058,0.6722222222222223
0.004823257350512058,0.6729166666666667
0.0048562933597621405,0.6729166666666667
0.0048562933597621405,0.675
0.004872811364387182,0.675
0.004872811364387182,0.6770833333333334
0.004955401387512388,0.6770833333333334
0.004955401387512388,0.6798611111111111
0.004955401387512388,0.68125
0.004988437396762471,0.68125
0.004988437396762471,0.6819444444444445
0.005054509415262636,0.6819444444444445
0.005054509415262636,0.6826388888888889
0.005071027419887677,0.6826388888888889
0.005071027419887677,0.6840277777777778
0.0051370994383878425,0.6840277777777778
0.0051370994383878425,0.6854166666666667
0.005153617443012884,0.6854166666666667
0.005153617443012884,0.6868055555555556
0.00521968946151305,0.6868055555555556
0.00521968946151305,0.6875
0.005269243475388173,0.6875
0.005269243475388173,0.6881944444444444
0.005318797489263297,0.6881944444444444
0.005318797489263297,0.6902777777777778
0.005351833498513379,0.6902777777777778
0.005351833498513379,0.6916666666666667
0.005384869507763462,0.6916666666666667
0.005384869507763462,0.6923611111111111
0.005417905517013545,0.6923611111111111
0.005434423521638586,0.6923611111111111
0.005434423521638586,0.6930555555555555
0.005467459530888669,0.6930555555555555
0.005467459530888669,0.69375
0.005533531549388833,0.69375
0.005533531549388833,0.6944444444444444
0.005665675586389164,0.6944444444444444
0.005665675586389164,0.6951388888888889
0.005731747604889329,0.6951388888888889
0.005731747604889329,0.6958333333333333
0.005830855632639577,0.6958333333333333
0.005830855632639577,0.6965277777777777
0.005880409646514701,0.6965277777777777
0.005880409646514701,0.6972222222222222
0.0058969276511397425,0.6972222222222222
0.0058969276511397425,0.6986111111111111
0.0058969276511397425,0.6993055555555555
0.005962999669639908,0.6993055555555555
0.005962999669639908,0.7
0.005979517674264949,0.7
0.005979517674264949,0.7013888888888888
0.0059960356788899905,0.7013888888888888
0.0059960356788899905,0.7020833333333333
0.006062107697390155,0.7020833333333333
0.006062107697390155,0.7034722222222223
0.00612817971589032,0.7034722222222223
0.00612817971589032,0.7048611111111112
0.0062933597621407334,0.7048611111111112
0.0062933597621407334,0.7055555555555556
0.006309877766765774,0.7055555555555556
0.006309877766765774,0.70625
0.006326395771390816,0.70625
0.006326395771390816,0.7076388888888889
0.006359431780640899,0.7076388888888889
0.006359431780640899,0.7083333333333334
0.006458539808391147,0.7083333333333334
0.006458539808391147,0.7090277777777778
0.00650809382226627,0.7090277777777778
0.00650809382226627,0.7097222222222223
0.006541129831516353,0.7097222222222223
0.006541129831516353,0.7104166666666667
0.006557647836141394,0.7104166666666667
0.006557647836141394,0.7118055555555556
0.006557647836141394,0.7131944444444445
0.006557647836141394,0.7145833333333333
0.0065741658407664355,0.7145833333333333
0.0065741658407664355,0.7152777777777778
0.006640237859266601,0.7152777777777778
0.006640237859266601,0.7159722222222222
0.0066732738685166835,0.7159722222222222
0.0066732738685166835,0.7166666666666667
0.006722827882391807,0.7166666666666667
0.006722827882391807,0.7173611111111111
0.006805417905517013,0.7173611111111111
0.006805417905517013,0.7180555555555556
0.006821935910142055,0.7180555555555556
0.006821935910142055,0.7208333333333333
0.006854971919392138,0.7208333333333333
0.006854971919392138,0.7215277777777778
0.00688800792864222,0.7215277777777778
0.00688800792864222,0.7222222222222222
0.006937561942517344,0.7222222222222222
0.006937561942517344,0.7236111111111111
0.006970597951767426,0.7236111111111111
0.006970597951767426,0.725
0.007086223984142715,0.725
0.007086223984142715,0.7256944444444444
0.007119259993392798,0.7256944444444444
0.007119259993392798,0.7263888888888889
0.007168814007267922,0.7263888888888889
0.007168814007267922,0.7270833333333333
0.007185332011892963,0.7270833333333333
0.007185332011892963,0.7277777777777777
0.007234886025768088,0.7277777777777777
0.007234886025768088,0.7284722222222222
0.0072514040303931285,0.7284722222222222
0.0072514040303931285,0.7291666666666666
0.007367030062768417,0.7291666666666666
0.007367030062768417,0.7298611111111111
0.007383548067393459,0.7298611111111111
0.007383548067393459,0.7319444444444444
0.007482656095143707,0.7319444444444444
0.007482656095143707,0.7326388888888888
0.007581764122893954,0.7326388888888888
0.007581764122893954,0.7333333333333333
0.007664354146019161,0.7333333333333333
0.007664354146019161,0.7340277777777777
0.007697390155269244,0.7340277777777777
0.007697390155269244,0.7347222222222223
0.007713908159894285,0.7347222222222223
0.007713908159894285,0.7354166666666667
0.007763462173769409,0.7354166666666667
0.007763462173769409,0.7361111111111112
0.00777998017839445,0.7361111111111112
0.00777998017839445,0.7368055555555556
0.007796498183019491,0.7368055555555556
0.007796498183019491,0.7381944444444445
0.007846052196894614,0.7381944444444445
0.007846052196894614,0.7388888888888889
0.00791212421539478,0.7388888888888889
0.007945160224644863,0.7388888888888889
0.007961678229269905,0.7388888888888889
0.007961678229269905,0.7402777777777778
0.008159894284770399,0.7402777777777778
0.008159894284770399,0.7409722222222223
0.00817641228939544,0.7409722222222223
0.00817641228939544,0.7416666666666667
0.008192930294020483,0.7416666666666667
0.008192930294020483,0.7423611111111111
0.008225966303270564,0.7423611111111111
0.008225966303270564,0.7430555555555556
0.008391146349520979,0.7430555555555556
0.008391146349520979,0.74375
0.00842418235877106,0.74375
0.00842418235877106,0.7444444444444445
0.008473736372646184,0.7444444444444445
0.008473736372646184,0.7451388888888889
0.008523290386521309,0.7451388888888889
0.008523290386521309,0.7465277777777778
0.008572844400396433,0.7465277777777778
0.008572844400396433,0.7472222222222222
0.008754542451271887,0.7472222222222222
0.008754542451271887,0.7479166666666667
0.008837132474397092,0.7479166666666667
0.008870168483647176,0.7479166666666667
0.008870168483647176,0.7486111111111111
0.008886686488272217,0.7486111111111111
0.008886686488272217,0.7493055555555556
0.008952758506772383,0.7493055555555556
0.008952758506772383,0.75
0.009035348529897588,0.75
0.009035348529897588,0.7506944444444444
0.00905186653452263,0.7506944444444444
0.00905186653452263,0.7527777777777778
0.009117938553022795,0.7527777777777778
0.009117938553022795,0.7534722222222222
0.009134456557647837,0.7534722222222222
0.009134456557647837,0.7541666666666667
0.009382226627023456,0.7541666666666667
0.009415262636273538,0.7541666666666667
0.009497852659398745,0.7541666666666667
0.009497852659398745,0.7555555555555555
0.009745622728774364,0.7555555555555555
0.009745622728774364,0.75625
0.009877766765774695,0.75625
0.009877766765774695,0.7569444444444444
0.010009910802775026,0.7569444444444444
0.010009910802775026,0.7576388888888889
0.010042946812025107,0.7576388888888889
0.010042946812025107,0.7583333333333333
0.01005946481665015,0.7583333333333333
0.01005946481665015,0.7590277777777777
0.010158572844400396,0.7590277777777777
0.010158572844400396,0.7597222222222222
0.010274198876775685,0.7597222222222222
0.010274198876775685,0.7604166666666666
0.010389824909150974,0.7604166666666666
0.010389824909150974,0.7611111111111111
0.010472414932276181,0.7611111111111111
0.010472414932276181,0.7618055555555555
0.0107201850016518,0.7618055555555555
0.0107201850016518,0.7625
0.010736703006276842,0.7625
0.010736703006276842,0.7631944444444444
0.01083581103402709,0.7631944444444444
0.01083581103402709,0.7645833333333333
0.010934919061777338,0.7645833333333333
0.010934919061777338,0.7652777777777777
0.011050545094152627,0.7652777777777777
0.011050545094152627,0.7659722222222223
0.011166171126527916,0.7659722222222223
0.011166171126527916,0.7666666666666667
0.011182689131152957,0.7666666666666667
0.011182689131152957,0.7673611111111112
0.011232243145028081,0.7673611111111112
0.011232243145028081,0.7680555555555556
0.011248761149653123,0.7680555555555556
0.011248761149653123,0.76875
0.011265279154278163,0.76875
0.011298315163528246,0.76875
0.011430459200528577,0.76875
0.011430459200528577,0.7694444444444445
0.011562603237528906,0.7694444444444445
0.011562603237528906,0.7701388888888889
0.011612157251404031,0.7701388888888889
0.011612157251404031,0.7708333333333334
0.011760819293029402,0.7708333333333334
0.011760819293029402,0.7715277777777778
0.011959035348529897,0.7715277777777778
0.011959035348529897,0.7722222222222223
0.012041625371655105,0.7722222222222223
0.012041625371655105,0.7729166666666667
0.01212421539478031,0.7729166666666667
0.01212421539478031,0.7736111111111111
0.012190287413280475,0.7736111111111111
0.012190287413280475,0.775
0.012305913445655764,0.775
0.012305913445655764,0.7756944444444445
0.012553683515031383,0.7756944444444445
0.012553683515031383,0.7763888888888889
0.012685827552031714,0.7763888888888889
0.012685827552031714,0.7770833333333333
0.01288404360753221,0.7770833333333333
0.01288404360753221,0.7777777777777778
0.012900561612157252,0.7777777777777778
0.012900561612157252,0.7784722222222222
0.012933597621407333,0.7784722222222222
0.012933597621407333,0.7791666666666667
0.01301618764453254,0.7791666666666667
0.01301618764453254,0.78125
0.013082259663032706,0.78125
0.013082259663032706,0.7819444444444444
0.013098777667657747,0.7819444444444444
0.013098777667657747,0.7826388888888889
0.013214403700033036,0.7826388888888889
0.013214403700033036,0.7833333333333333
0.013363065741658407,0.7833333333333333
0.013363065741658407,0.7840277777777778
0.013379583746283449,0.7840277777777778
0.013379583746283449,0.7847222222222222
0.013412619755533532,0.7847222222222222
0.013412619755533532,0.7854166666666667
0.013528245787908821,0.7854166666666667
0.013528245787908821,0.7861111111111111
0.013627353815659068,0.7861111111111111
0.013627353815659068,0.7868055555555555
0.013941195903534853,0.7868055555555555
0.013941195903534853,0.7875
0.014321110009910803,0.7875
0.014354146019160885,0.7875
0.014519326065411299,0.7875
0.014519326065411299,0.7881944444444444
0.01455236207466138,0.7881944444444444
0.01455236207466138,0.7888888888888889
0.014734060125536835,0.7888888888888889
0.014734060125536835,0.7902777777777777
0.014816650148662042,0.7902777777777777
0.014849686157912123,0.7902777777777777
0.014882722167162207,0.7902777777777777
0.014882722167162207,0.7909722222222222
0.014915758176412289,0.7909722222222222
0.014915758176412289,0.7916666666666666
0.01504790221341262,0.7916666666666666
0.01504790221341262,0.7930555555555555
0.015163528245787908,0.7930555555555555
0.015163528245787908,0.79375
0.015246118268913115,0.79375
0.015246118268913115,0.7944444444444444
0.015394780310538488,0.7944444444444444
0.015394780310538488,0.7951388888888888
0.015543442352163858,0.7951388888888888
0.015543442352163858,0.7958333333333333
0.015989428477039973,0.7958333333333333
0.015989428477039973,0.7965277777777777
0.016154608523290388,0.7965277777777777
0.016154608523290388,0.7972222222222223
0.016468450611166172,0.7972222222222223
0.016468450611166172,0.7979166666666667
0.016518004625041296,0.7979166666666667
0.016518004625041296,0.7986111111111112
0.016798810703666997,0.7986111111111112
0.016798810703666997,0.7993055555555556
0.017063098777667658,0.7993055555555556
0.017063098777667658,0.8
0.01719524281466799,0.8
0.01719524281466799,0.8006944444444445
0.01721176081929303,0.8006944444444445
0.01721176081929303,0.8013888888888889
0.017261314833168152,0.8013888888888889
0.017261314833168152,0.8020833333333334
0.017376940865543443,0.8020833333333334
0.017376940865543443,0.8027777777777778
0.017409976874793526,0.8027777777777778
0.017443012884043606,0.8027777777777778
0.017674264948794184,0.8027777777777778
0.017674264948794184,0.8034722222222223
0.01795507102741989,0.8034722222222223
0.01795507102741989,0.8041666666666667
0.01797158903204493,0.8048611111111111
0.01823587710604559,0.8048611111111111
0.018268913115295674,0.8048611111111111
0.018648827221671622,0.8048611111111111
0.018648827221671622,0.8055555555555556
0.0188800792864222,0.8055555555555556
0.0188800792864222,0.80625
0.019078295341922697,0.80625
0.019078295341922697,0.8076388888888889
0.01914436736042286,0.8076388888888889
0.01914436736042286,0.8083333333333333
0.01925999339279815,0.8083333333333333
0.01925999339279815,0.8090277777777778
0.0193591014205484,0.8090277777777778
0.0193591014205484,0.8097222222222222
0.019458209448298645,0.8097222222222222
0.019458209448298645,0.8111111111111111
0.019739015526924347,0.8111111111111111
0.019739015526924347,0.8118055555555556
0.01978856954079947,0.8118055555555556
0.01978856954079947,0.8125
0.019970267591674924,0.8125
0.019970267591674924,0.8131944444444444
0.020333663693425832,0.8131944444444444
0.020333663693425832,0.8138888888888889
0.02053187974892633,0.8138888888888889
0.02053187974892633,0.8145833333333333
0.020862239841427155,0.8145833333333333
0.02089527585067724,0.8145833333333333
0.02089527585067724,0.8159722222222222
0.02091179385530228,0.8159722222222222
0.02091179385530228,0.8166666666666667
0.02132474397092831,0.8166666666666667
0.02132474397092831,0.8173611111111111
0.021374297984803437,0.8173611111111111
0.021374297984803437,0.8180555555555555
0.021605550049554015,0.8180555555555555
0.021605550049554015,0.81875
0.02165510406342914,0.81875
0.02165510406342914,0.8194444444444444
0.022035018169805087,0.8194444444444444
0.022035018169805087,0.8201388888888889
0.022101090188305254,0.8201388888888889
0.022101090188305254,0.8208333333333333
0.022365378262305915,0.8208333333333333
0.022365378262305915,0.8215277777777777
0.02241493227618104,0.8215277777777777
0.02241493227618104,0.8229166666666666
0.022596630327056492,0.8229166666666666
0.022596630327056492,0.8236111111111111
0.022613148331681533,0.8236111111111111
0.022613148331681533,0.8243055555555555
0.022662702345556656,0.8243055555555555
0.022662702345556656,0.8256944444444444
0.0226792203501817,0.8256944444444444
0.0226792203501817,0.8263888888888888
0.022728774364056823,0.8263888888888888
0.022728774364056823,0.8270833333333333
0.022860918401057154,0.8270833333333333
0.022860918401057154,0.8277777777777777
0.022877436405682194,0.8277777777777777
0.022877436405682194,0.8284722222222223
0.022943508424182357,0.8284722222222223
0.022943508424182357,0.8291666666666667
0.023224314502808062,0.8291666666666667
0.023224314502808062,0.8298611111111112
0.02332342253055831,0.8298611111111112
0.02332342253055831,0.83125
0.023422530558308556,0.83125
0.023422530558308556,0.8319444444444445
0.023637264618434094,0.8319444444444445
0.023637264618434094,0.8326388888888889
0.023818962669309548,0.8326388888888889
0.023818962669309548,0.8333333333333334
0.023984142715559962,0.8333333333333334
0.023984142715559962,0.8340277777777778
0.02449620085893624,0.8340277777777778
0.02449620085893624,0.8347222222222223
0.024529236868186324,0.8347222222222223
0.024909150974562273,0.8347222222222223
0.024909150974562273,0.8354166666666667
0.025206475057813017,0.8354166666666667
0.025206475057813017,0.8361111111111111
0.025322101090188304,0.8361111111111111
0.025322101090188304,0.8375
0.026131483316815328,0.8375
0.026131483316815328,0.8381944444444445
0.026296663363065742,0.8381944444444445
0.026296663363065742,0.8395833333333333
0.026461843409316156,0.8395833333333333
0.026461843409316156,0.8402777777777778
0.02664354146019161,0.8402777777777778
0.02664354146019161,0.8409722222222222
0.02679220350181698,0.8409722222222222
0.02679220350181698,0.8416666666666667
0.02713908159894285,0.8416666666666667
0.02713908159894285,0.8423611111111111
0.027238189626693096,0.8423611111111111
0.027238189626693096,0.8430555555555556
0.02771721176081929,0.8430555555555556
0.027750247770069375,0.8430555555555556
0.027981499834819953,0.8430555555555556
0.027981499834819953,0.84375
0.02817971589032045,0.84375
0.02817971589032045,0.8451388888888889
0.02834489593657086,0.8451388888888889
0.02834489593657086,0.8458333333333333
0.028377931945820944,0.8458333333333333
0.028377931945820944,0.8465277777777778
0.028493557978196235,0.8465277777777778
0.028526593987446315,0.8465277777777778
0.0288404360753221,0.8465277777777778
0.0288404360753221,0.8472222222222222
0.0293194582094483,0.8472222222222222
0.0293194582094483,0.8479166666666667
0.029534192269573836,0.8479166666666667
0.029534192269573836,0.8486111111111111
0.02998017839444995,0.8486111111111111
0.02998017839444995,0.8493055555555555
0.03009580442682524,0.8493055555555555
0.03009580442682524,0.85
0.030128840436075322,0.85
0.030128840436075322,0.8506944444444444
0.03021143045920053,0.8506944444444444
0.03021143045920053,0.8513888888888889
0.03037661050545094,0.8513888888888889
0.03037661050545094,0.8520833333333333
0.030591344565576477,0.8520833333333333
0.030591344565576477,0.8527777777777777
0.030921704658077306,0.8527777777777777
0.030921704658077306,0.8534722222222222
0.030954740667327386,0.8534722222222222
0.030954740667327386,0.8541666666666666
0.03097125867195243,0.8541666666666666
0.03097125867195243,0.8548611111111111
0.031565906838453915,0.8548611111111111
0.031598942847703995,0.8548611111111111
0.03192930294020482,0.8548611111111111
0.03192930294020482,0.8555555555555555
0.03214403700033036,0.8555555555555555
0.03214403700033036,0.85625
0.03268913115295672,0.85625
0.03272216716220681,0.85625
0.03330029732408325,0.85625
0.03330029732408325,0.8569444444444444
0.03354806739345887,0.8569444444444444
0.03354806739345887,0.8576388888888888
0.03372976544433432,0.8576388888888888
0.03372976544433432,0.8583333333333333
0.034258341592335644,0.8583333333333333
0.034258341592335644,0.8590277777777777
0.03430789560621077,0.8590277777777777
0.03430789560621077,0.8597222222222223
0.034373967624710934,0.8597222222222223
0.034373967624710934,0.8604166666666667
0.03559629996696399,0.8604166666666667
0.03559629996696399,0.8611111111111112
0.03597621407333994,0.8611111111111112
0.03597621407333994,0.8618055555555556
0.036124876114965315,0.8618055555555556
0.036124876114965315,0.8625
0.036818632309217045,0.8625
0.036818632309217045,0.8631944444444445
0.0370003303600925,0.8631944444444445
0.0370003303600925,0.8638888888888889
0.037165510406342916,0.8638888888888889
0.037165510406342916,0.8652777777777778
0.03777667657746944,0.8652777777777778
0.03777667657746944,0.8659722222222223
0.038222662702345554,0.8659722222222223
0.038222662702345554,0.8666666666666667
0.0387182028410968,0.8666666666666667
0.03875123885034688,0.8666666666666667
0.038850346878097124,0.8666666666666667
0.038850346878097124,0.8680555555555556
0.03944499504459861,0.8680555555555556
0.03944499504459861,0.86875
0.03969276511397423,0.86875
0.03969276511397423,0.8694444444444445
0.039709283118599274,0.8694444444444445
0.039742319127849354,0.8694444444444445
0.04056821935910142,0.8694444444444445
0.04056821935910142,0.8701388888888889
0.04076643541460192,0.8701388888888889
0.04076643541460192,0.8708333333333333
0.04165840766435414,0.8708333333333333
0.04165840766435414,0.8715277777777778
0.04177403369672943,0.8715277777777778
0.04177403369672943,0.8722222222222222
0.04327717211760819,0.8722222222222222
0.04327717211760819,0.8729166666666667
0.043937892302609846,0.8729166666666667
0.043937892302609846,0.8743055555555556
0.043970928311859926,0.8743055555555556
0.043970928311859926,0.875
0.04426825239511067,0.875
0.04426825239511067,0.8756944444444444
0.044681202510736706,0.8756944444444444
0.044681202510736706,0.8763888888888889
0.04529236868186323,0.8763888888888889
0.04529236868186323,0.8770833333333333
0.045341922695738356,0.8770833333333333
0.045341922695738356,0.8777777777777778
0.045738354806739344,0.8777777777777778
0.045738354806739344,0.8784722222222222
0.04606871489924017,0.8784722222222222
0.04610175090849025,0.8784722222222222
0.04633300297324083,0.8784722222222222
0.04636603898249091,0.8784722222222222
0.04649818301949125,0.8784722222222222
0.04649818301949125,0.8791666666666667
0.047010241162867526,0.8791666666666667
0.047010241162867526,0.8798611111111111
0.04791873141724479,0.8798611111111111
0.04791873141724479,0.8805555555555555
0.048034357449620084,0.8805555555555555
0.048034357449620084,0.88125
0.04849686157912124,0.88125
0.048529897588371326,0.88125
0.04854641559299636,0.88125
0.04854641559299636,0.8819444444444444
0.04909150974562273,0.8819444444444444
0.04912454575487281,0.8819444444444444
0.05001651800462504,0.8819444444444444
0.05001651800462504,0.8826388888888889
0.05079286422200198,0.8826388888888889
0.050825900231252066,0.8826388888888889
0.05166831846712917,0.8826388888888889
0.05166831846712917,0.8833333333333333
0.05183349851337958,0.8833333333333333
0.05186653452262967,0.8833333333333333
0.052378592666005946,0.8833333333333333
0.052378592666005946,0.8840277777777777
0.05254377271225636,0.8840277777777777
0.05254377271225636,0.8847222222222222
0.053600925008259005,0.8847222222222222
0.053600925008259005,0.8854166666666666
0.053898249091509746,0.8854166666666666
0.053898249091509746,0.8861111111111111
0.05394780310538487,0.8861111111111111
0.05394780310538487,0.8868055555555555
0.05406342913776016,0.8868055555555555
0.05406342913776016,0.8875
0.05412950115626032,0.8875
0.05412950115626032,0.8881944444444444
0.05442682523951107,0.8881944444444444
0.05445986124876115,0.8881944444444444
0.054922365378262304,0.8881944444444444
0.054922365378262304,0.8888888888888888
0.055599603567889,0.8888888888888888
0.055599603567889,0.8895833333333333
0.05591344565576478,0.8895833333333333
0.05591344565576478,0.8902777777777777
0.056045589692765116,0.8902777777777777
0.056045589692765116,0.8909722222222223
0.056078625702015196,0.8909722222222223
0.056078625702015196,0.8916666666666667
0.056475057813016184,0.8916666666666667
0.056475057813016184,0.8923611111111112
0.05680541790551701,0.8923611111111112
0.05680541790551701,0.8930555555555556
0.056821935910142056,0.8930555555555556
0.056854971919392136,0.8930555555555556
0.057367030062768415,0.8930555555555556
0.057367030062768415,0.89375
0.05969606871489924,0.89375
0.05969606871489924,0.8944444444444445
0.05979517674264949,0.8944444444444445
0.05982821275189957,0.8944444444444445
0.0601585728444004,0.8944444444444445
0.06019160885365048,0.8944444444444445
0.06053848695077635,0.8944444444444445
0.06053848695077635,0.8951388888888889
0.06205814337628014,0.8951388888888889
0.06205814337628014,0.8958333333333334
0.0622398414271556,0.8958333333333334
0.0622398414271556,0.8965277777777778
0.06352824578790882,0.8965277777777778
0.06352824578790882,0.8972222222222223
0.06418896597291048,0.8972222222222223
0.06418896597291048,0.8979166666666667
0.06423851998678559,0.8979166666666667
0.06423851998678559,0.8986111111111111
0.0646349520977866,0.8986111111111111
0.0646349520977866,0.8993055555555556
0.06465147010241162,0.8993055555555556
0.06465147010241162,0.9
0.06608853650479023,0.9
0.06608853650479023,0.9006944444444445
0.06665014866204162,0.9006944444444445
0.06665014866204162,0.9013888888888889
0.06689791873141725,0.9013888888888889
0.06689791873141725,0.9020833333333333
0.06724479682854312,0.9020833333333333
0.06724479682854312,0.9027777777777778
0.06770730095804427,0.9027777777777778
0.06770730095804427,0.9034722222222222
0.06838453914767097,0.9034722222222222
0.06841757515692104,0.9034722222222222
0.06866534522629666,0.9034722222222222
0.06866534522629666,0.9041666666666667
0.06871489924017178,0.9041666666666667
0.06874793524942187,0.9041666666666667
0.06902874132804757,0.9041666666666667
0.06902874132804757,0.9048611111111111
0.07016848364717543,0.9048611111111111
0.07016848364717543,0.9055555555555556
0.07051536174430129,0.9055555555555556
0.07054839775355137,0.9055555555555556
0.07195242814667988,0.9055555555555556
0.07198546415592996,0.9055555555555556
0.07206805417905517,0.9055555555555556
0.07210109018830525,0.9055555555555556
0.07210109018830525,0.90625
0.0730756524611827,0.90625
0.0730756524611827,0.9069444444444444
0.07383548067393458,0.9069444444444444
0.07386851668318467,0.9069444444444444
0.07424843078956062,0.9069444444444444
0.0742814667988107,0.9069444444444444
0.07492566897918732,0.9069444444444444
0.07492566897918732,0.9076388888888889
0.07786587380244467,0.9076388888888889
0.07786587380244467,0.9083333333333333
0.07943508424182359,0.9083333333333333
0.07943508424182359,0.9097222222222222
0.07950115626032375,0.9097222222222222
0.07950115626032375,0.9104166666666667
0.07971589032044929,0.9104166666666667
0.07974892632969938,0.9104166666666667
0.07998017839444994,0.9104166666666667
0.08001321440370003,0.9104166666666667
0.08019491245457548,0.9104166666666667
0.08019491245457548,0.9111111111111111
0.08034357449620086,0.9111111111111111
0.08034357449620086,0.9118055555555555
0.08050875454245127,0.9118055555555555
0.08054179055170135,0.9118055555555555
0.08095474066732739,0.9118055555555555
0.08095474066732739,0.9125
0.08227618103733068,0.9125
0.08227618103733068,0.9131944444444444
0.08290386521308225,0.9131944444444444
0.08290386521308225,0.9138888888888889
0.08330029732408326,0.9138888888888889
0.08330029732408326,0.9145833333333333
0.08397753551370994,0.9145833333333333
0.08397753551370994,0.9152777777777777
0.08450611166171126,0.9152777777777777
0.08453914767096135,0.9152777777777777
0.08638916418896597,0.9152777777777777
0.08638916418896597,0.9159722222222222
0.08648827221671622,0.9159722222222222
0.0865213082259663,0.9159722222222222
0.08752890650809382,0.9159722222222222
0.08756194251734391,0.9159722222222222
0.08802444664684506,0.9159722222222222
0.08802444664684506,0.9166666666666666
0.09010571522960026,0.9166666666666666
0.09013875123885035,0.9166666666666666
0.09018830525272548,0.9166666666666666
0.09022134126197555,0.9166666666666666
0.09037000330360093,0.9166666666666666
0.09037000330360093,0.9173611111111111
0.09051866534522629,0.9173611111111111
0.09055170135447638,0.9173611111111111
0.09094813346547737,0.9173611111111111
0.09094813346547737,0.9180555555555555
0.0909976874793525,0.9180555555555555
0.0909976874793525,0.91875
0.09109679550710274,0.91875
0.09109679550710274,0.9194444444444444
0.09112983151635283,0.9194444444444444
0.09112983151635283,0.9201388888888888
0.09263296993723158,0.9201388888888888
0.09263296993723158,0.9208333333333333
0.092798149983482,0.9208333333333333
0.09283118599273207,0.9208333333333333
0.09321110009910803,0.9208333333333333
0.09322761810373308,0.9215277777777777
0.09400396432111001,0.9215277777777777
0.09400396432111001,0.9222222222222223
0.09426825239511068,0.9222222222222223
0.09426825239511068,0.9229166666666667
0.09601916088536505,0.9229166666666667
0.09601916088536505,0.9236111111111112
0.09623389494549059,0.9236111111111112
0.09623389494549059,0.9243055555555556
0.09681202510736703,0.9243055555555556
0.09681202510736703,0.925
0.09902543772712256,0.925
0.09902543772712256,0.9256944444444445
0.09965312190287413,0.9256944444444445
0.09965312190287413,0.9263888888888889
0.10100759828212752,0.9263888888888889
0.1010406342913776,0.9263888888888889
0.10142054839775355,0.9263888888888889
0.10145358440700364,0.9263888888888889
0.10259332672613149,0.9263888888888889
0.10265939874463165,0.9263888888888889
0.10355137099438388,0.9263888888888889
0.10358440700363396,0.9263888888888889
0.10784605219689461,0.9263888888888889
0.1078790882061447,0.9263888888888889
0.10875454245127189,0.9263888888888889
0.10878757846052196,0.9263888888888889
0.11425503799141064,0.9263888888888889
0.11425503799141064,0.9270833333333334
0.11618764453254046,0.9270833333333334
0.11622068054179055,0.9270833333333334
0.11633630657416584,0.9270833333333334
0.11636934258341593,0.9270833333333334
0.11665014866204163,0.9270833333333334
0.11665014866204163,0.9277777777777778
0.11816980508754542,0.9277777777777778
0.1182028410967955,0.9277777777777778
0.11828543111992071,0.9277777777777778
0.11828543111992071,0.9284722222222223
0.11879748926329699,0.9284722222222223
0.11883052527254707,0.9284722222222223
0.1192434753881731,0.9284722222222223
0.1192434753881731,0.9291666666666667
0.11955731747604889,0.9291666666666667
0.11955731747604889,0.9298611111111111
0.12008589362405021,0.9298611111111111
0.12008589362405021,0.9305555555555556
0.12096134786917741,0.9305555555555556
0.12096134786917741,0.93125
0.12249752229930624,0.93125
0.12249752229930624,0.9319444444444445
0.12342253055830855,0.9319444444444445
0.12345556656755864,0.9319444444444445
0.1253221010901883,0.9319444444444445
0.12535513709943838,0.9319444444444445
0.12573505120581432,0.9319444444444445
0.1257680872150644,0.9319444444444445
0.12786587380244466,0.9319444444444445
0.12786587380244466,0.9326388888888889
0.13009580442682525,0.9326388888888889
0.13009580442682525,0.9333333333333333
0.13078956062107697,0.9333333333333333
0.13082259663032705,0.9333333333333333
0.13108688470432772,0.9333333333333333
0.13108688470432772,0.9340277777777778
0.13178064089857947,0.9340277777777778
0.13178064089857947,0.9347222222222222
0.1322761810373307,0.9347222222222222
0.13234225305583086,0.9347222222222222
0.13282127518995707,0.9347222222222222
0.13285431119920713,0.9347222222222222
0.1345226296663363,0.9347222222222222
0.1345226296663363,0.9354166666666667
0.13458870168483647,0.9354166666666667
0.13462173769408656,0.9354166666666667
0.1346382556987116,0.9354166666666667
0.1346382556987116,0.9361111111111111
0.13485298975883714,0.9361111111111111
0.13488602576808723,0.9361111111111111
0.13686818632309217,0.9361111111111111
0.13690122233234225,0.9361111111111111
0.13704988437396762,0.9361111111111111
0.13704988437396762,0.9368055555555556
0.1373967624710935,0.9368055555555556
0.13742979848034356,0.9368055555555556
0.13923026098447308,0.9368055555555556
0.13923026098447308,0.9375
0.1397092831185993,0.9375
0.13974231912784935,0.9375
0.14015526924347538,0.9375
0.14018830525272546,0.9375
0.1411133135117278,0.9375
0.14114634952097788,0.9375
0.14238519986785597,0.9375
0.14241823587710606,0.9375
0.14331020812685827,0.9375
0.14331020812685827,0.9388888888888889
0.1439213742979848,0.9388888888888889
0.1439213742979848,0.9395833333333333
0.1452428146679881,0.9395833333333333
0.1452428146679881,0.9402777777777778
0.14639907499174099,0.9402777777777778
0.14643211100099107,0.9402777777777778
0.1466468450611166,0.9402777777777778
0.1466468450611166,0.9409722222222222
0.146795507102742,0.9409722222222222
0.14682854311199206,0.9409722222222222
0.1468450611166171,0.9416666666666667
0.14890981169474726,0.9416666666666667
0.14894284770399735,0.9416666666666667
0.1529236868186323,0.9416666666666667
0.1529236868186323,0.9423611111111111
0.1534027089527585,0.9423611111111111
0.1534027089527585,0.9430555555555555
0.1535183349851338,0.9430555555555555
0.1535183349851338,0.94375
0.15479022134126197,0.94375
0.15482325735051206,0.94375
0.1559134456557648,0.94375
0.15594648166501487,0.94375
0.15733399405351833,0.94375
0.15733399405351833,0.9444444444444444
0.15820944829864553,0.9444444444444444
0.15824248430789561,0.9444444444444444
0.15949785265939875,0.9444444444444444
0.15949785265939875,0.9451388888888889
0.1605550049554014,0.9451388888888889
0.1605550049554014,0.9458333333333333
0.16083581103402708,0.9458333333333333
0.16086884704327717,0.9458333333333333
0.16152956722827883,0.9458333333333333
0.16152956722827883,0.9465277777777777
0.16189296333002973,0.9465277777777777
0.1619259993392798,0.9465277777777777
0.16258671952428147,0.9465277777777777
0.16258671952428147,0.9472222222222222
0.16417244796828542,0.9472222222222222
0.16417244796828542,0.9479166666666666
0.16458539808391145,0.9479166666666666
0.16461843409316154,0.9479166666666666
0.16551040634291378,0.9479166666666666
0.16554344235216387,0.9479166666666666
0.16673273868516683,0.9479166666666666
0.16673273868516683,0.9486111111111111
0.1669970267591675,0.9486111111111111
0.1669970267591675,0.9493055555555555
0.16973901552692436,0.9493055555555555
0.16973901552692436,0.95
0.17059795176742648,0.95
0.17059795176742648,0.9506944444444444
0.1713577799801784,0.9506944444444444
0.17139081598942849,0.9506944444444444
0.1739180706970598,0.9506944444444444
0.1739180706970598,0.9513888888888888
0.1750082590023125,0.9513888888888888
0.1750412950115626,0.9513888888888888
0.17609844730756524,0.9513888888888888
0.17609844730756524,0.9527777777777777
0.17717211760819293,0.9527777777777777
0.17720515361744302,0.9527777777777777
0.177601585728444,0.9527777777777777
0.1776346217376941,0.9527777777777777
0.17915427816319787,0.9527777777777777
0.17918731417244796,0.9527777777777777
0.18026098447307565,0.9527777777777777
0.18032705649157582,0.9527777777777777
0.18125206475057812,0.9527777777777777
0.1812851007598282,0.9527777777777777
0.18310208126858277,0.9527777777777777
0.18313511727783283,0.9527777777777777
0.18358110340270895,0.9527777777777777
0.18361413941195903,0.9527777777777777
0.1839610175090849,0.9527777777777777
0.18399405351833498,0.9527777777777777
0.18468780971258672,0.9527777777777777
0.1847208457218368,0.9527777777777777
0.18638916418896598,0.9527777777777777
0.18638916418896598,0.9534722222222223
0.1866369342583416,0.9534722222222223
0.1866369342583416,0.9541666666666667
0.1880740006607202,0.9541666666666667
0.18810703666997028,0.9541666666666667
0.18845391476709614,0.9541666666666667
0.18848695077634622,0.9541666666666667
0.1891146349520978,0.9541666666666667
0.18914767096134788,0.9541666666666667
0.19037000330360093,0.9541666666666667
0.19037000330360093,0.9548611111111112
0.19086554344235215,0.9548611111111112
0.19089857945160224,0.9548611111111112
0.19190617773372975,0.9548611111111112
0.19193921374297984,0.9548611111111112
0.19217046580773042,0.9548611111111112
0.1922035018169805,0.9548611111111112
0.1945160224644863,0.9548611111111112
0.1945160224644863,0.9555555555555556
0.1949950445986125,0.9555555555555556
0.19502808060786256,0.9555555555555556
0.19651470102411628,0.9555555555555556
0.19651470102411628,0.95625
0.19722497522299307,0.95625
0.19725801123224315,0.95625
0.19765444334324414,0.95625
0.19765444334324414,0.9569444444444445
0.19808391146349522,0.9569444444444445
0.1981169474727453,0.9569444444444445
0.19892632969937232,0.9569444444444445
0.19892632969937232,0.9576388888888889
0.1990089197224975,0.9576388888888889
0.1990419557317476,0.9576388888888889
0.1994383878427486,0.9576388888888889
0.1994383878427486,0.9583333333333334
0.2001156260323753,0.9583333333333334
0.20014866204162537,0.9583333333333334
0.20221341261975553,0.9583333333333334
0.20224644862900562,0.9583333333333334
0.20297324083250742,0.9583333333333334
0.20297324083250742,0.9590277777777778
0.20312190287413281,0.9590277777777778
0.20312190287413281,0.9597222222222223
0.20338619094813346,0.9597222222222223
0.20338619094813346,0.9604166666666667
0.20432771721176082,0.9604166666666667
0.2043607532210109,0.9604166666666667
0.20611166171126527,0.9604166666666667
0.20614469772051536,0.9604166666666667
0.2078790882061447,0.9604166666666667
0.2078790882061447,0.9611111111111111
0.20829203832177073,0.9611111111111111
0.20832507433102082,0.9611111111111111
0.2127188635612818,0.9611111111111111
0.21275189957053187,0.9611111111111111
0.21303270564915758,0.9611111111111111
0.21306574165840766,0.9611111111111111
0.2141559299636604,0.9611111111111111
0.21418896597291048,0.9611111111111111
0.2150313842087876,0.9611111111111111
0.2150313842087876,0.9618055555555556
0.21627023455566569,0.9618055555555556
0.21627023455566569,0.9625
0.2169639907499174,0.9625
0.2169970267591675,0.9625
0.21732738685166833,0.9625
0.2173604228609184,0.9625
0.21769078295341923,0.9625
0.21772381896266932,0.9625
0.21874793524942188,0.9625
0.21878097125867196,0.9625
0.2213247439709283,0.9625
0.2213577799801784,0.9625
0.22148992401717874,0.9625
0.22148992401717874,0.9631944444444445
0.22198546415592996,0.9631944444444445
0.22201850016518004,0.9631944444444445
0.22383548067393458,0.9631944444444445
0.22386851668318467,0.9631944444444445
0.22434753881731087,0.9631944444444445
0.22438057482656096,0.9631944444444445
0.22485959696068714,0.9631944444444445
0.22489263296993722,0.9631944444444445
0.22570201519656424,0.9631944444444445
0.22570201519656424,0.9638888888888889
0.22588371324743972,0.9638888888888889
0.22588371324743972,0.9645833333333333
0.225999339279815,0.9645833333333333
0.22603237528906509,0.9645833333333333
0.22722167162206805,0.9645833333333333
0.22722167162206805,0.9652777777777778
0.2273207796498183,0.9652777777777778
0.2273538156590684,0.9652777777777778
0.2287248100429468,0.9652777777777778
0.2287578460521969,0.9652777777777778
0.22917079616782293,0.9652777777777778
0.22917079616782293,0.9659722222222222
0.23044268252395111,0.9659722222222222
0.2304757185332012,0.9659722222222222
0.23225966303270565,0.9659722222222222
0.23229269904195574,0.9659722222222222
0.23389494549058473,0.9659722222222222
0.23389494549058473,0.9666666666666667
0.2343244136108358,0.9666666666666667
0.2343244136108358,0.9673611111111111
0.23475388173108688,0.9673611111111111
0.23475388173108688,0.9680555555555556
0.23842087875784604,0.9680555555555556
0.23845391476709613,0.9680555555555556
0.2406012553683515,0.9680555555555556
0.2406342913776016,0.9680555555555556
0.2423191278493558,0.9680555555555556
0.2423521638586059,0.9680555555555556
0.2433597621407334,0.9680555555555556
0.2433927981499835,0.9680555555555556
0.24494549058473736,0.9680555555555556
0.24497852659398744,0.9680555555555556
0.2453584407003634,0.9680555555555556
0.2453584407003634,0.96875
0.2463164849686158,0.96875
0.24634952097786586,0.96875
0.24653121902874134,0.96875
0.2465642550379914,0.96875
0.24854641559299637,0.96875
0.24857945160224645,0.96875
0.24953749587049884,0.96875
0.24957053187974892,0.96875
0.252411628675256,0.96875
0.2524446646845061,0.96875
0.2526759167492567,0.96875
0.2527089527585068,0.96875
0.253600925008259,0.96875
0.25363396101750907,0.96875
0.25363396101750907,0.9694444444444444
0.2542286091840106,0.9694444444444444
0.25426164519326067,0.9694444444444444
0.2549554013875124,0.9694444444444444
0.25498843739676247,0.9694444444444444
0.2581598942847704,0.9694444444444444
0.25819293029402046,0.9694444444444444
0.2585728444003964,0.9694444444444444
0.2586058804096465,0.9694444444444444
0.2597951767426495,0.9694444444444444
0.25982821275189955,0.9694444444444444
0.26199207135777997,0.9694444444444444
0.26202510736703005,0.9694444444444444
0.2628510075982821,0.9694444444444444
0.2628840436075322,0.9694444444444444
0.2652956722827882,0.9694444444444444
0.2653287082920383,0.9694444444444444
0.26589032044928973,0.9694444444444444
0.2659233564585398,0.9694444444444444
0.26605550049554016,0.9694444444444444
0.26605550049554016,0.9708333333333333
0.2679220350181698,0.9708333333333333
0.2679550710274199,0.9708333333333333
0.26892963330029734,0.9708333333333333
0.26892963330029734,0.9715277777777778
0.26902874132804755,0.9715277777777778
0.26906177733729764,0.9715277777777778
0.27195242814667986,0.9715277777777778
0.27198546415592995,0.9715277777777778
0.27229930624380577,0.9715277777777778
0.2723323422530558,0.9715277777777778
0.2742319127849356,0.9715277777777778
0.27426494879418567,0.9715277777777778
0.27888999008919724,0.9715277777777778
0.27888999008919724,0.9722222222222222
0.28027750247770067,0.9722222222222222
0.28031053848695076,0.9722222222222222
0.28199537495870497,0.9722222222222222
0.28202841096795506,0.9722222222222222
0.28282127518995703,0.9722222222222222
0.2828543111992071,0.9722222222222222
0.2843078956062108,0.9722222222222222
0.28434093161546087,0.9722222222222222
0.2856788899900892,0.9722222222222222
0.28571192599933926,0.9722222222222222
0.2866864882722167,0.9722222222222222
0.2867195242814668,0.9722222222222222
0.2873802444664684,0.9722222222222222
0.2874132804757185,0.9722222222222222
0.28812355467459533,0.9722222222222222
0.28812355467459533,0.9729166666666667
0.28814007267922037,0.9729166666666667
0.28817310868847046,0.9729166666666667
0.2901883052527255,0.9729166666666667
0.2902213412619756,0.9729166666666667
0.29373967624710934,0.9729166666666667
0.2937727122563594,0.9729166666666667
0.2945325404691113,0.9729166666666667
0.2945325404691113,0.9736111111111111
0.29484638255698714,0.9736111111111111
0.2948794185662372,0.9736111111111111
0.29654773703336634,0.9736111111111111
0.29654773703336634,0.9743055555555555
0.29702675916749255,0.9743055555555555
0.29705979517674264,0.9743055555555555
0.2978031053848695,0.9743055555555555
0.29783614139411957,0.9743055555555555
0.29874463164849685,0.9743055555555555
0.29877766765774694,0.9743055555555555
0.29998348199537495,0.9743055555555555
0.30001651800462503,0.9743055555555555
0.30021473406012555,0.9743055555555555
0.30021473406012555,0.975
0.30037991410637593,0.975
0.300412950115626,0.975
0.30236207466138093,0.975
0.30239511067063096,0.975
0.30398083911463497,0.975
0.30401387512388506,0.975
0.30564915758176414,0.975
0.30568219359101423,0.975
0.3061116617112653,0.975
0.30614469772051534,0.975
0.3064255037991411,0.975
0.3064255037991411,0.9756944444444444
0.3075322101090188,0.9756944444444444
0.3075652461182689,0.9756944444444444
0.30761480013214404,0.9756944444444444
0.3076478361413941,0.9756944444444444
0.3090849025437727,0.9756944444444444
0.3091179385530228,0.9756944444444444
0.31199207135777995,0.9756944444444444
0.31199207135777995,0.9763888888888889
0.31962338949454905,0.9763888888888889
0.31965642550379914,0.9763888888888889
0.3204823257350512,0.9763888888888889
0.3205153617443013,0.9763888888888889
0.3217542120911794,0.9763888888888889
0.32178724810042947,0.9763888888888889
0.3224975222993062,0.9763888888888889
0.3225305583085563,0.9763888888888889
0.3245622728774364,0.9763888888888889
0.3245953088866865,0.9763888888888889
0.3255533531549389,0.9763888888888889
0.32558638916418897,0.9763888888888889
0.3269904195573175,0.9763888888888889
0.3269904195573175,0.9770833333333333
0.3274529236868186,0.9770833333333333
0.3274859596960687,0.9770833333333333
0.32900561612157253,0.9770833333333333
0.3290386521308226,0.9770833333333333
0.32905517013544766,0.9770833333333333
0.32905517013544766,0.9777777777777777
0.3292368681863231,0.9777777777777777
0.32926990419557317,0.9777777777777777
0.33082259663032704,0.9777777777777777
0.3308556326395771,0.9777777777777777
0.3317641228939544,0.9777777777777777
0.3317971589032045,0.9777777777777777
0.3344730756524612,0.9777777777777777
0.3345061116617113,0.9777777777777777
0.33663693425834157,0.9777777777777777
0.33663693425834157,0.9784722222222222
0.33733069045259334,0.9784722222222222
0.3373637264618434,0.9784722222222222
0.33989098116947475,0.9784722222222222
0.33992401717872484,0.9784722222222222
0.34058473736372646,0.9784722222222222
0.34061777337297655,0.9784722222222222
0.34122893954410305,0.9784722222222222
0.34126197555335314,0.9784722222222222
0.34218698381235546,0.9784722222222222
0.34222001982160555,0.9784722222222222
0.3429633300297324,0.9784722222222222
0.3429633300297324,0.9791666666666666
0.34321110009910805,0.9791666666666666
0.34324413610835813,0.9791666666666666
0.3446812025107367,0.9791666666666666
0.34469772051536174,0.9798611111111111
0.3460356788899901,0.9798611111111111
0.3460687148992402,0.9798611111111111
0.346795507102742,0.9798611111111111
0.34682854311199207,0.9798611111111111
0.3489098116947473,0.9798611111111111
0.34894284770399736,0.9798611111111111
0.350412950115626,0.9798611111111111
0.3504459861248761,0.9798611111111111
0.35160224644862903,0.9798611111111111
0.35163528245787906,0.9798611111111111
0.3517178724810043,0.9798611111111111
0.35175090849025437,0.9798611111111111
0.3534027089527585,0.9798611111111111
0.3534357449620086,0.9798611111111111
0.35485629335976215,0.9798611111111111
0.35485629335976215,0.9805555555555555
0.35518665345226297,0.9805555555555555
0.35521968946151306,0.9805555555555555
0.35721836802114304,0.9805555555555555
0.3572514040303931,0.9805555555555555
0.3578790882061447,0.9805555555555555
0.35791212421539476,0.9805555555555555
0.3583581103402709,0.9805555555555555
0.35839114634952096,0.9805555555555555
0.358804096465147,0.9805555555555555
0.3588371324743971,0.9805555555555555
0.3592500825900231,0.9805555555555555
0.3592831185992732,0.9805555555555555
0.36101750908490254,0.9805555555555555
0.36101750908490254,0.98125
0.36250412950115624,0.98125
0.3625371655104063,0.98125
0.3627518995705319,0.98125
0.362784935579782,0.98125
0.3648827221671622,0.98125
0.3649157581764123,0.98125
0.365609514370664,0.98125
0.3656425503799141,0.98125
0.3658903204492897,0.98125
0.3659233564585398,0.98125
0.36641889659729104,0.98125
0.36645193260654113,0.98125
0.3668483647175421,0.98125
0.3668814007267922,0.98125
0.37142385199867856,0.98125
0.37145688800792864,0.98125
0.3718368021143046,0.98125
0.3718698381235547,0.98125
0.3722001982160555,0.98125
0.3722332342253056,0.98125
0.3732408325074331,0.98125
0.3732738685166832,0.98125
0.3734886025768087,0.98125
0.37350512058143376,0.9819444444444444
0.3747274529236868,0.9819444444444444
0.3747604889329369,0.9819444444444444
0.37547076313181366,0.9819444444444444
0.37550379914106374,0.9819444444444444
0.37730426164519326,0.9819444444444444
0.37733729765444335,0.9819444444444444
0.3780475718533201,0.9819444444444444
0.3780806078625702,0.9819444444444444
0.3783779319458209,0.9819444444444444
0.378410967955071,0.9819444444444444
0.3821770730095804,0.9819444444444444
0.3822101090188305,0.9819444444444444
0.3830360092500826,0.9819444444444444
0.38306904525933266,0.9819444444444444
0.3845556656755864,0.9819444444444444
0.3845887016848365,0.9819444444444444
0.386802114304592,0.9819444444444444
0.3868351503138421,0.9819444444444444
0.3869507763462174,0.9819444444444444
0.3869507763462174,0.9826388888888888
0.38754542451271884,0.9826388888888888
0.3875784605219689,0.9826388888888888
0.3899074991740998,0.9826388888888888
0.38994053518334987,0.9826388888888888
0.3906838453914767,0.9826388888888888
0.3906838453914767,0.9833333333333333
0.3914106375949785,0.9833333333333333
0.3914436736042286,0.9833333333333333
0.39193921374297985,0.9833333333333333
0.39193921374297985,0.9840277777777777
0.3920383217707301,0.9840277777777777
0.3920713577799802,0.9840277777777777
0.39218698381235545,0.9840277777777777
0.3922530558308556,0.9840277777777777
0.39266600594648166,0.9840277777777777
0.39269904195573174,0.9840277777777777
0.3927485959696069,0.9840277777777777
0.39278163197885696,0.9840277777777777
0.3941526263627354,0.9840277777777777
0.3941856623719855,0.9840277777777777
0.40110670630987777,0.9840277777777777
0.40113974231912786,0.9840277777777777
0.4021143045920053,0.9840277777777777
0.40214734060125534,0.9840277777777777
0.4034852989758837,0.9840277777777777
0.4035183349851338,0.9840277777777777
0.4044433432441361,0.9840277777777777
0.4044763792533862,0.9840277777777777
0.4045920052857615,0.9840277777777777
0.4045920052857615,0.9847222222222223
0.40460852329038655,0.9847222222222223
0.4046415592996366,0.9847222222222223
0.4062603237528907,0.9847222222222223
0.40629335976214076,0.9847222222222223
0.41230591344565576,0.9847222222222223
0.41233894945490585,0.9847222222222223
0.4124380574826561,0.9847222222222223
0.4124710934919062,0.9847222222222223
0.4137099438387843,0.9847222222222223
0.4137429798480344,0.9847222222222223
0.41453584407003635,0.9847222222222223
0.41456888007928644,0.9847222222222223
0.41554344235216384,0.9847222222222223
0.4155764783614139,0.9847222222222223
0.4162041625371655,0.9847222222222223
0.4162371985464156,0.9847222222222223
0.4163693425834159,0.9847222222222223
0.416402378592666,0.9847222222222223
0.41906177733729766,0.9847222222222223
0.41909481334654775,0.9847222222222223
0.42066402378592666,0.9847222222222223
0.42069705979517674,0.9847222222222223
0.42129170796167825,0.9847222222222223
0.42132474397092834,0.9847222222222223
0.42259663032705647,0.9847222222222223
0.42259663032705647,0.9854166666666667
0.42329038652130824,0.9854166666666667
0.4233234225305583,0.9854166666666667
0.423604228609184,0.9854166666666667
0.4236372646184341,0.9854166666666667
0.4239676247109349,0.9854166666666667
0.424000660720185,0.9854166666666667
0.4242814667988107,0.9854166666666667
0.42431450280806077,0.9854166666666667
0.42548728113643874,0.9854166666666667
0.4255203171456888,0.9854166666666667
0.42588371324743973,0.9854166666666667
0.4259167492566898,0.9854166666666667
0.4265113974231913,0.9854166666666667
0.42654443343244136,0.9854166666666667
0.4267096134786918,0.9854166666666667
0.4267426494879419,0.9854166666666667
0.4296663363065742,0.9854166666666667
0.4296993723158242,0.9854166666666667
0.42981499834819953,0.9854166666666667
0.4298480343574496,0.9854166666666667
0.4300297324083251,0.9854166666666667
0.4300627684175752,0.9854166666666667
0.43321770730095804,0.9854166666666667
0.43325074331020813,0.9854166666666667
0.4337462834489594,0.9854166666666667
0.43377931945820947,0.9854166666666667
0.43427485959696066,0.9854166666666667
0.43430789560621075,0.9854166666666667
0.43508424182358774,0.9854166666666667
0.43511727783283777,0.9854166666666667
0.43729765444334323,0.9854166666666667
0.4373306904525933,0.9854166666666667
0.43777667657746944,0.9854166666666667
0.4378097125867195,0.9854166666666667
0.43954410307234887,0.9854166666666667
0.43957713908159896,0.9854166666666667
0.439593657086224,0.9854166666666667
0.4396266930954741,0.9854166666666667
0.4398744631648497,0.9854166666666667
0.43990749917409977,0.9854166666666667
0.44205483977535515,0.9854166666666667
0.44205483977535515,0.9861111111111112
0.4434258341592336,0.9861111111111112
0.4434588701684836,0.9861111111111112
0.4436405682193591,0.9861111111111112
0.4436736042286092,0.9861111111111112
0.44851337958374626,0.9861111111111112
0.44854641559299635,0.9861111111111112
0.4503303600925008,0.9861111111111112
0.4503633961017509,0.9861111111111112
0.45062768417575155,0.9861111111111112
0.45066072018500164,0.9861111111111112
0.45113974231912785,0.9861111111111112
0.45117277832837793,0.9861111111111112
0.4520317145688801,0.9861111111111112
0.45206475057813017,0.9861111111111112
0.45289065080938223,0.9861111111111112
0.4529236868186323,0.9861111111111112
0.45502147340601257,0.9861111111111112
0.45505450941526265,0.9861111111111112
0.45574826560951437,0.9861111111111112
0.45578130161876446,0.9861111111111112
0.45584737363726463,0.9861111111111112
0.4558804096465147,0.9861111111111112
0.4563594317806409,0.9861111111111112
0.45639246778989095,0.9861111111111112
0.45650809382226626,0.9861111111111112
0.45650809382226626,0.9868055555555556
0.4571192599933928,0.9868055555555556
0.4571522960026429,0.9868055555555556
0.45797819623389496,0.9868055555555556
0.45801123224314505,0.9868055555555556
0.45958044268252396,0.9868055555555556
0.45961347869177405,0.9868055555555556
0.46450280806078625,0.9868055555555556
0.4645193260654113,0.9875
0.46458539808391147,0.9875
0.46461843409316156,0.9875
0.464800132144037,0.9875
0.46483316815328707,0.9875
0.4668814007267922,0.9875
0.4668814007267922,0.9881944444444445
0.4695573174760489,0.9881944444444445
0.469590353485299,0.9881944444444445
0.4699537495870499,0.9881944444444445
0.46998678559629997,0.9881944444444445
0.47158903204492897,0.9881944444444445
0.47162206805417906,0.9881944444444445
0.472398414271556,0.9881944444444445
0.4724314502808061,0.9881944444444445
0.4730756524611827,0.9881944444444445
0.47310868847043275,0.9881944444444445
0.47370333663693426,0.9881944444444445
0.47373637264618434,0.9881944444444445
0.4750082590023125,0.9881944444444445
0.4750412950115626,0.9881944444444445
0.4751404030393129,0.9881944444444445
0.4751734390485629,0.9881944444444445
0.4769243475388173,0.9881944444444445
0.4769573835480674,0.9881944444444445
0.4772547076313181,0.9881944444444445
0.4772877436405682,0.9881944444444445
0.4773372976544433,0.9881944444444445
0.4773703336636934,0.9881944444444445
0.47808060786257023,0.9881944444444445
0.47811364387182026,0.9881944444444445
0.4793194582094483,0.9881944444444445
0.47935249421869836,0.9881944444444445
0.48161546085232904,0.9881944444444445
0.48161546085232904,0.9888888888888889
0.4826891311529567,0.9888888888888889
0.4827221671622068,0.9888888888888889
0.4833994053518335,0.9888888888888889
0.4834654773703337,0.9888888888888889
0.4853980839114635,0.9888888888888889
0.4854311199207136,0.9888888888888889
0.48805748265609517,0.9888888888888889
0.48809051866534525,0.9888888888888889
0.4891641889659729,0.9888888888888889
0.489197224975223,0.9888888888888889
0.4894119590353485,0.9888888888888889
0.4894449950445986,0.9888888888888889
0.49089857945160226,0.9888888888888889
0.49093161546085234,0.9888888888888889
0.49217046580773044,0.9888888888888889
0.4922035018169805,0.9888888888888889
0.4985133795837463,0.9888888888888889
0.49854641559299634,0.9888888888888889
0.502411628675256,0.9888888888888889
0.5024446646845061,0.9888888888888889
0.5034027089527585,0.9888888888888889
0.5034357449620086,0.9888888888888889
0.5036504790221341,0.9888888888888889
0.5036504790221341,0.9895833333333334
0.5038486950776346,0.9895833333333334
0.5038817310868847,0.9895833333333334
0.5066402378592666,0.9895833333333334
0.5066732738685167,0.9895833333333334
0.5073339940535183,0.9895833333333334
0.5073670300627684,0.9895833333333334
0.511199207135778,0.9895833333333334
0.5112322431450281,0.9895833333333334
0.5117773372976544,0.9895833333333334
0.5118103733069045,0.9895833333333334
0.5147505781301619,0.9895833333333334
0.5147505781301619,0.9902777777777778
0.5177568549719194,0.9902777777777778
0.5177898909811695,0.9902777777777778
0.5195077634621738,0.9902777777777778
0.5195407994714238,0.9902777777777778
0.5195573174760489,0.9902777777777778
0.519590353485299,0.9902777777777778
0.522398414271556,0.9902777777777778
0.5224314502808061,0.9902777777777778
0.5225470763131813,0.9902777777777778
0.5225801123224314,0.9902777777777778
0.5244962008589362,0.9902777777777778
0.5245292368681863,0.9902777777777778
0.5259497852659398,0.9902777777777778
0.5259828212751899,0.9902777777777778
0.5301783944499504,0.9902777777777778
0.5302114304592005,0.9902777777777778
0.5320449289725802,0.9902777777777778
0.5320779649818302,0.9902777777777778
0.5325404691113313,0.9902777777777778
0.5325735051205814,0.9902777777777778
0.5330690452593326,0.9902777777777778
0.5331020812685827,0.9902777777777778
0.5334819953749587,0.9902777777777778
0.5335150313842087,0.9902777777777778
0.5335645853980839,0.9902777777777778
0.533597621407334,0.9902777777777778
0.5343574496200859,0.9902777777777778
0.534390485629336,0.9902777777777778
0.5344895936570863,0.9902777777777778
0.5345226296663363,0.9902777777777778
0.5352989758837132,0.9902777777777778
0.5353320118929633,0.9902777777777778
0.5361083581103403,0.9902777777777778
0.5361413941195904,0.9902777777777778
0.538817310868847,0.9902777777777778
0.5388503468780971,0.9902777777777778
0.5388999008919723,0.9902777777777778
0.5389329369012223,0.9902777777777778
0.5396101750908491,0.9902777777777778
0.5396432111000992,0.9902777777777778
0.5405517013544764,0.9902777777777778
0.5405517013544764,0.9909722222222223
0.5435249421869838,0.9909722222222223
0.5435579781962339,0.9909722222222223
0.5446481665014866,0.9909722222222223
0.5446812025107367,0.9909722222222223
0.5449785265939875,0.9909722222222223
0.5450115626032376,0.9909722222222223
0.5454575487281137,0.9909722222222223
0.5454905847373638,0.9909722222222223
0.5457218368021143,0.9909722222222223
0.5457548728113644,0.9909722222222223
0.5467624710934919,0.9909722222222223
0.5467624710934919,0.9916666666666667
0.5485959696068715,0.9916666666666667
0.5486290056161216,0.9916666666666667
0.5492071357779981,0.9916666666666667
0.5492401717872482,0.9916666666666667
0.5500495540138751,0.9916666666666667
0.5500825900231252,0.9916666666666667
0.5504955401387512,0.9916666666666667
0.5505285761480013,0.9916666666666667
0.5521308225966304,0.9916666666666667
0.5521638586058805,0.9916666666666667
0.5538156590683846,0.9916666666666667
0.5538156590683846,0.9923611111111111
0.5550049554013875,0.9923611111111111
0.5550379914106376,0.9923611111111111
0.5577634621737694,0.9923611111111111
0.5577964981830195,0.9923611111111111
0.5588371324743971,0.9923611111111111
0.5588701684836471,0.9923611111111111
0.559596960687149,0.9923611111111111
0.5596299966963991,0.9923611111111111
0.5606541129831516,0.9923611111111111
0.5606871489924017,0.9923611111111111
0.5645358440700363,0.9923611111111111
0.5645358440700363,0.9930555555555556
0.5654443343244137,0.9930555555555556
0.5654773703336637,0.9930555555555556
0.5660389824909151,0.9930555555555556
0.5660720185001652,0.9930555555555556
0.5682358771060456,0.9930555555555556
0.5682689131152957,0.9930555555555556
0.5699372315824248,0.9930555555555556
0.5699702675916749,0.9930555555555556
0.5700693756194252,0.9930555555555556
0.5701024116286753,0.9930555555555556
0.5705814337628015,0.9930555555555556
0.5706144697720515,0.9930555555555556
0.5720350181698051,0.9930555555555556
0.5720680541790552,0.9930555555555556
0.5734555665675587,0.9930555555555556
0.5734555665675587,0.99375
0.5736372646184341,0.99375
0.5736372646184341,0.9944444444444445
0.5736868186323092,0.9944444444444445
0.5737198546415593,0.9944444444444445
0.5738685166831847,0.9944444444444445
0.5739015526924347,0.9944444444444445
0.5753221010901883,0.9944444444444445
0.5753551370994384,0.9944444444444445
0.5760654112983151,0.9944444444444445
0.5760984473075652,0.9944444444444445
0.5775685497191939,0.9944444444444445
0.577601585728444,0.9944444444444445
0.5797984803435745,0.9944444444444445
0.5798315163528246,0.9944444444444445
0.5827056491575817,0.9944444444444445
0.5827386851668318,0.9944444444444445
0.5869177403369673,0.9944444444444445
0.5869177403369673,0.9951388888888889
0.591195903534853,0.9951388888888889
0.591228939544103,0.9951388888888889
0.5917575156921044,0.9951388888888889
0.5917905517013545,0.9951388888888889
0.5918235877106045,0.9951388888888889
0.5918566237198546,0.9951388888888889
0.5920713577799802,0.9951388888888889
0.5921043937892303,0.9951388888888889
0.5923356458539808,0.9951388888888889
0.5923356458539808,0.9958333333333333
0.5955566567558639,0.9958333333333333
0.595589692765114,0.9958333333333333
0.5988437396762472,0.9958333333333333
0.5988767756854972,0.9958333333333333
0.6005285761480014,0.9958333333333333
0.6005616121572515,0.9958333333333333
0.6016518004625041,0.9958333333333333
0.6016848364717542,0.9958333333333333
0.6019326065411298,0.9958333333333333
0.6019656425503799,0.9958333333333333
0.6020482325735051,0.9958333333333333
0.6020812685827552,0.9958333333333333
0.6027419887677569,0.9958333333333333
0.602775024777007,0.9958333333333333
0.6033366369342583,0.9958333333333333
0.6033696729435084,0.9958333333333333
0.6070697059795177,0.9958333333333333
0.6071027419887678,0.9958333333333333
0.6083415923356459,0.9958333333333333
0.608374628344896,0.9958333333333333
0.6087710604558969,0.9958333333333333
0.608804096465147,0.9958333333333333
0.6091344565576479,0.9958333333333333
0.609167492566898,0.9958333333333333
0.6102081268582755,0.9958333333333333
0.6102411628675256,0.9958333333333333
0.6110835811034027,0.9958333333333333
0.6111166171126527,0.9958333333333333
0.6112983151635283,0.9958333333333333
0.6113313511727784,0.9958333333333333
0.6116617112652791,0.9958333333333333
0.6116947472745292,0.9958333333333333
0.613610835811034,0.9958333333333333
0.6136438718202841,0.9958333333333333
0.6161711265279154,0.9958333333333333
0.6162041625371655,0.9958333333333333
0.6169309547406673,0.9958333333333333
0.6169805087545425,0.9958333333333333
0.6181698050875454,0.9958333333333333
0.6182028410967955,0.9958333333333333
0.6227618103733069,0.9958333333333333
0.622794846382557,0.9958333333333333
0.6240997687479353,0.9958333333333333
0.6241328047571854,0.9958333333333333
0.6259167492566898,0.9958333333333333
0.6259497852659399,0.9958333333333333
0.6278658738024446,0.9958333333333333
0.6278989098116947,0.9958333333333333
0.6302279484638256,0.9958333333333333
0.6302609844730757,0.9958333333333333
0.630806078625702,0.9958333333333333
0.6308391146349521,0.9958333333333333
0.6311034027089527,0.9958333333333333
0.6311364387182028,0.9958333333333333
0.6316484968615791,0.9958333333333333
0.6316815328708292,0.9958333333333333
0.6323752890650809,0.9958333333333333
0.632408325074331,0.9958333333333333
0.6338453914767096,0.9958333333333333
0.6338949454905848,0.9958333333333333
0.6398249091509746,0.9958333333333333
0.6398579451602247,0.9958333333333333
0.6399240171787248,0.9958333333333333
0.6399570531879749,0.9958333333333333
0.6446812025107367,0.9958333333333333
0.6447307565246119,0.9958333333333333
0.6447472745292369,0.9958333333333333
0.644780310538487,0.9958333333333333
0.6479848034357449,0.9958333333333333
0.648017839444995,0.9958333333333333
0.6483481995374959,0.9958333333333333
0.648381235546746,0.9958333333333333
0.6501651800462505,0.9958333333333333
0.6501982160555005,0.9958333333333333
0.6516518004625041,0.9958333333333333
0.6516848364717542,0.9958333333333333
0.661595639246779,0.9958333333333333
0.661595639246779,0.9965277777777778
0.6661380905186653,0.9965277777777778
0.6661711265279154,0.9965277777777778
0.6662206805417905,0.9965277777777778
0.6662537165510406,0.9965277777777778
0.6679385530227948,0.9965277777777778
0.6679715890320449,0.9965277777777778
0.6693260654112984,0.9965277777777778
0.6693591014205484,0.9965277777777778
0.6694582094482986,0.9965277777777778
0.6694912454575487,0.9965277777777778
0.6705318797489264,0.9965277777777778
0.6705649157581764,0.9965277777777778
0.6758506772381896,0.9965277777777778
0.6758837132474397,0.9965277777777778
0.6774859596960687,0.9965277777777778
0.6775189957053188,0.9965277777777778
0.6786587380244467,0.9965277777777778
0.6786917740336967,0.9965277777777778
0.6793855302279485,0.9965277777777778
0.6794185662371985,0.9965277777777778
0.6814007267922035,0.9965277777777778
0.6814337628014536,0.9965277777777778
0.6815493888338289,0.9965277777777778
0.681582424843079,0.9965277777777778
0.6824413610835811,0.9965277777777778
0.6824743970928312,0.9965277777777778
0.6831185992732078,0.9965277777777778
0.6831516352824579,0.9965277777777778
0.685992732077965,0.9965277777777778
0.686025768087215,0.9965277777777778
0.6866864882722167,0.9965277777777778
0.6867195242814668,0.9965277777777778
0.6875289065080938,0.9965277777777778
0.6875619425173439,0.9965277777777778
0.6925503799141064,0.9965277777777778
0.6925503799141064,0.9972222222222222
0.6926164519326066,0.9972222222222222
0.6926494879418567,0.9972222222222222
0.6941526263627353,0.9972222222222222
0.6941856623719854,0.9972222222222222
0.6956722827882392,0.9972222222222222
0.6957053187974893,0.9972222222222222
0.6962008589362405,0.9972222222222222
0.6962338949454906,0.9972222222222222
0.6996861579121242,0.9972222222222222
0.6997191939213743,0.9972222222222222
0.7026759167492567,0.9972222222222222
0.7027089527585068,0.9972222222222222
0.7067723818962669,0.9972222222222222
0.706805417905517,0.9972222222222222
0.712405021473406,0.9972222222222222
0.7124380574826561,0.9972222222222222
0.7125206475057813,0.9972222222222222
0.7125536835150313,0.9972222222222222
0.7126032375289065,0.9972222222222222
0.7126362735381566,0.9972222222222222
0.7154773703336637,0.9972222222222222
0.7155104063429137,0.9972222222222222
0.7196399074991741,0.9972222222222222
0.7196729435084241,0.9972222222222222
0.7207631318136769,0.9972222222222222
0.7207631318136769,0.9979166666666667
0.7212917079616782,0.9979166666666667
0.7213247439709283,0.9979166666666667
0.7259167492566898,0.9979166666666667
0.7259497852659399,0.9979166666666667
0.7262801453584407,0.9979166666666667
0.7263131813676907,0.9979166666666667
0.7283283779319458,0.9979166666666667
0.7283614139411959,0.9979166666666667
0.7308886686488272,0.9979166666666667
0.7309217046580773,0.9979166666666667
0.7325074331020812,0.9979166666666667
0.7325404691113313,0.9979166666666667
0.7326395771390816,0.9979166666666667
0.7326726131483317,0.9979166666666667
0.7333663693425834,0.9979166666666667
0.7333994053518335,0.9979166666666667
0.7334985133795837,0.9979166666666667
0.7335645853980839,0.9979166666666667
0.7351337958374629,0.9979166666666667
0.7351668318467129,0.9979166666666667
0.7363561281797159,0.9979166666666667
0.7363891641889659,0.9979166666666667
0.7381731086884704,0.9979166666666667
0.7382061446977205,0.9979166666666667
0.7385034687809713,0.9979166666666667
0.7385365047902214,0.9979166666666667
0.7395275850677239,0.9979166666666667
0.739560621076974,0.9979166666666667
0.7409150974562273,0.9979166666666667
0.7409150974562273,0.9986111111111111
0.7421209117938553,0.9986111111111111
0.7421539478031054,0.9986111111111111
0.7432606541129831,0.9986111111111111
0.7432936901222332,0.9986111111111111
0.7435579781962339,0.9986111111111111
0.743591014205484,0.9986111111111111
0.7467789890981169,0.9986111111111111
0.746812025107367,0.9986111111111111
0.7485794516022465,0.9986111111111111
0.7486124876114966,0.9986111111111111
0.7489428477039973,0.9986111111111111
0.7489758837132474,0.9986111111111111
0.7548397753551371,0.9986111111111111
0.7548728113643872,0.9986111111111111
0.7550214734060126,0.9986111111111111
0.7550545094152626,0.9986111111111111
0.7558969276511397,0.9986111111111111
0.7559299636603898,0.9986111111111111
0.757614800132144,0.9986111111111111
0.7576478361413941,0.9986111111111111
0.7601255368351503,0.9986111111111111
0.7601585728444004,0.9986111111111111
0.7609018830525273,0.9986111111111111
0.7609349190617773,0.9986111111111111
0.7637429798480344,0.9986111111111111
0.7637760158572844,0.9986111111111111
0.7646679881070366,0.9986111111111111
0.7647010241162867,0.9986111111111111
0.7672447968285431,0.9986111111111111
0.7672778328377932,0.9986111111111111
0.7677898909811695,0.9986111111111111
0.7678229269904195,0.9986111111111111
0.7700033036009251,0.9986111111111111
0.770036339610175,0.9986111111111111
0.7704988437396763,0.9986111111111111
0.7705318797489263,0.9986111111111111
0.7752725470763132,0.9986111111111111
0.7753055830855633,0.9986111111111111
0.7762471093491906,0.9986111111111111
0.7762801453584407,0.9986111111111111
0.7789560621076974,0.9986111111111111
0.7789890981169475,0.9986111111111111
0.7812520647505782,0.9986111111111111
0.7812851007598283,0.9986111111111111
0.7820118929633301,0.9986111111111111
0.7820449289725802,0.9986111111111111
0.782408325074331,0.9986111111111111
0.7824413610835811,0.9986111111111111
0.7832177073009581,0.9986111111111111
0.7832507433102082,0.9986111111111111
0.7850346878097126,0.9986111111111111
0.7850677238189626,0.9986111111111111
0.785199867855963,0.9986111111111111
0.785232903865213,0.9986111111111111
0.7853980839114635,0.9986111111111111
0.7854311199207136,0.9986111111111111
0.7869012223323423,0.9986111111111111
0.7869342583415924,0.9986111111111111
0.7873306904525933,0.9986111111111111
0.7873637264618434,0.9986111111111111
0.7874793524942187,0.9986111111111111
0.7875123885034688,0.9986111111111111
0.7878427485959696,0.9986111111111111
0.7878757846052197,0.9986111111111111
0.7880905186653452,0.9986111111111111
0.7881235546745953,0.9986111111111111
0.7905186653452263,0.9986111111111111
0.7905517013544764,0.9986111111111111
0.7919557317476049,0.9986111111111111
0.791988767756855,0.9986111111111111
0.7946151304922365,0.9986111111111111
0.7946481665014866,0.9986111111111111
0.7999174099768748,0.9986111111111111
0.7999504459861249,0.9986111111111111
0.8002642880740006,0.9986111111111111
0.8002973240832507,0.9986111111111111
0.8021473406012554,0.9986111111111111
0.8021803766105055,0.9986111111111111
0.809184010571523,0.9986111111111111
0.8092170465807731,0.9986111111111111
0.8106706309877767,0.9986111111111111
0.8107036669970268,0.9986111111111111
0.8112983151635282,0.9986111111111111
0.8113313511727783,0.9986111111111111
0.8113809051866534,0.9986111111111111
0.8114139411959035,0.9986111111111111
0.8137594978526594,0.9986111111111111
0.8137925338619095,0.9986111111111111
0.8159398744631648,0.9986111111111111
0.8159729104724149,0.9986111111111111
0.8166666666666667,0.9986111111111111
0.8166997026759167,0.9986111111111111
0.817228278823918,0.9986111111111111
0.8172613148331681,0.9986111111111111
0.8185497191939214,0.9986111111111111
0.8185827552031715,0.9986111111111111
0.8190287413280476,0.9986111111111111
0.8190617773372977,0.9986111111111111
0.8218037661050545,0.9986111111111111
0.8218368021143045,0.9986111111111111
0.8263131813676908,0.9986111111111111
0.8263462173769409,0.9986111111111111
0.8267096134786918,0.9986111111111111
0.8267426494879418,0.9986111111111111
0.8284605219689462,0.9986111111111111
0.8284935579781962,0.9986111111111111
0.8293690122233234,0.9986111111111111
0.8294020482325735,0.9986111111111111
0.8318136769078295,0.9986111111111111
0.8318467129170796,0.9986111111111111
0.8322761810373307,0.9986111111111111
0.8323092170465808,0.9986111111111111
0.833581103402709,0.9986111111111111
0.833614139411959,0.9986111111111111
0.8356458539808391,0.9986111111111111
0.8356788899900892,0.9986111111111111
0.8391641889659729,0.9986111111111111
0.839197224975223,0.9986111111111111
0.8392467789890982,0.9986111111111111
0.8392798149983483,0.9986111111111111
0.8397918731417244,0.9986111111111111
0.8398249091509745,0.9986111111111111
0.8418070697059795,0.9986111111111111
0.8418401057152296,0.9986111111111111
0.8431615460852329,0.9986111111111111
0.843194582094483,0.9986111111111111
0.8445986124876115,0.9986111111111111
0.8446316484968616,0.9986111111111111
0.8456227287743641,0.9986111111111111
0.8456557647836142,0.9986111111111111
0.8457713908159894,0.9986111111111111
0.8458044268252395,0.9986111111111111
0.8472249752229931,0.9986111111111111
0.8472580112322431,0.9986111111111111
0.8505450941526264,0.9986111111111111
0.8505781301618764,0.9986111111111111
0.8562272877436405,0.9986111111111111
0.8562603237528906,0.9986111111111111
0.8563098777667658,0.9986111111111111
0.8563429137760159,0.9986111111111111
0.8565741658407664,0.9986111111111111
0.8566072018500165,0.9986111111111111
0.8596795507102742,0.9986111111111111
0.8597125867195243,0.9986111111111111
0.8629501156260324,0.9986111111111111
0.8629831516352825,0.9986111111111111
0.8640403039312851,0.9986111111111111
0.8640733399405351,0.9986111111111111
0.864816650148662,0.9986111111111111
0.8648496861579121,0.9986111111111111
0.8658077304261645,0.9986111111111111
0.8658407664354146,0.9986111111111111
0.8672778328377932,0.9986111111111111
0.8673108688470432,0.9986111111111111
0.8695407994714238,0.9986111111111111
0.8695738354806739,0.9986111111111111
0.8699207135777998,0.9986111111111111
0.8699537495870499,0.9986111111111111
0.8703501816980509,0.9986111111111111
0.870383217707301,0.9986111111111111
0.8716385860588041,0.9986111111111111
0.8716716220680542,0.9986111111111111
0.8739676247109349,0.9986111111111111
0.874000660720185,0.9986111111111111
0.8740502147340601,0.9986111111111111
0.8740832507433102,0.9986111111111111
0.8742979848034358,0.9986111111111111
0.8742979848034358,0.9993055555555556
0.8744466468450611,0.9993055555555556
0.8744796828543112,0.9993055555555556
0.8765279154278163,0.9993055555555556
0.8765609514370664,0.9993055555555556
0.8771060455896927,0.9993055555555556
0.8771390815989428,0.9993055555555556
0.8777832837793195,0.9993055555555556
0.8778163197885696,0.9993055555555556
0.8780145358440701,0.9993055555555556
0.8780475718533202,0.9993055555555556
0.8793855302279484,0.9993055555555556
0.8794185662371985,0.9993055555555556
0.879600264288074,0.9993055555555556
0.8796333002973241,0.9993055555555556
0.8815659068384539,0.9993055555555556
0.881598942847704,0.9993055555555556
0.8821770730095805,0.9993055555555556
0.8822101090188306,0.9993055555555556
0.882821275189957,0.9993055555555556
0.8828543111992071,0.9993055555555556
0.8869507763462173,0.9993055555555556
0.8869838123554674,0.9993055555555556
0.892831185992732,0.9993055555555556
0.8928642220019821,0.9993055555555556
0.8937231582424843,0.9993055555555556
0.8937561942517344,0.9993055555555556
0.8954245127188636,0.9993055555555556
0.8954575487281137,0.9993055555555556
0.8955236207466138,0.9993055555555556
0.8955566567558639,0.9993055555555556
0.899223653782623,0.9993055555555556
0.8992566897918731,0.9993055555555556
0.8995705318797489,0.9993055555555556
0.899603567888999,0.9993055555555556
0.9002477700693756,0.9993055555555556
0.9002808060786257,0.9993055555555556
0.9018830525272548,0.9993055555555556
0.9019160885365048,0.9993055555555556
0.9025437727122564,0.9993055555555556
0.9025768087215065,0.9993055555555556
0.9033531549388834,0.9993055555555556
0.9033861909481334,0.9993055555555556
0.906805417905517,0.9993055555555556
0.9068384539147671,0.9993055555555556
0.9077469441691444,0.9993055555555556
0.9077799801783945,0.9993055555555556
0.9111166171126528,0.9993055555555556
0.9111496531219029,0.9993055555555556
0.9219193921374298,0.9993055555555556
0.9219524281466799,0.9993055555555556
0.9230591344565576,0.9993055555555556
0.9230921704658077,0.9993055555555556
0.9241823587710605,0.9993055555555556
0.9242153947803106,0.9993055555555556
0.9243145028080608,0.9993055555555556
0.9243475388173109,0.9993055555555556
0.9312520647505781,0.9993055555555556
0.9312851007598282,0.9993055555555556
0.9334159233564585,0.9993055555555556
0.9334489593657086,0.9993055555555556
0.9336471754212091,0.9993055555555556
0.9336802114304592,0.9993055555555556
0.9337793194582095,0.9993055555555556
0.9338123554674596,0.9993055555555556
0.9369838123554675,0.9993055555555556
0.9370168483647175,0.9993055555555556
0.944780310538487,0.9993055555555556
0.9448133465477371,0.9993055555555556
0.9464981830194913,0.9993055555555556
0.9465312190287414,0.9993055555555556
0.9488767756854972,0.9993055555555556
0.9489098116947473,0.9993055555555556
0.9496696399074992,0.9993055555555556
0.9497026759167493,0.9993055555555556
0.9497191939213743,0.9993055555555556
0.9497522299306244,0.9993055555555556
0.9504625041295012,0.9993055555555556
0.9505285761480013,0.9993055555555556
0.9515526924347539,0.9993055555555556
0.951585728444004,0.9993055555555556
0.9518334985133796,0.9993055555555556
0.9518665345226297,0.9993055555555556
0.9523290386521308,0.9993055555555556
0.9523620746613809,0.9993055555555556
0.9529071688140073,0.9993055555555556
0.9529402048232574,0.9993055555555556
0.9542946812025107,0.9993055555555556
0.9543277172117608,0.9993055555555556
0.9558473736372646,0.9993055555555556
0.9558804096465147,0.9993055555555556
0.9588371324743971,0.9993055555555556
0.9588701684836471,0.9993055555555556
0.9595143706640238,0.9993055555555556
0.9595474066732739,0.9993055555555556
0.9601750908490254,0.9993055555555556
0.9602081268582755,0.9993055555555556
0.9604558969276511,0.9993055555555556
0.9604889329369012,0.9993055555555556
0.961595639246779,0.9993055555555556
0.961595639246779,1.0
0.9626693095474067,1.0
0.9627023455566568,1.0
0.9656921043937893,1.0
0.9657251404030394,1.0
0.9693591014205484,1.0
0.9693921374297985,1.0
0.9704823257350512,1.0
0.9705153617443013,1.0
0.9729600264288074,1.0
0.9729930624380575,1.0
0.9750743310208126,1.0
0.9751073670300627,1.0
0.9776511397423191,1.0
0.9776841757515692,1.0
0.9808721506442022,1.0
0.9809051866534523,1.0
0.9819458209448299,1.0
0.9819788569540799,1.0
0.9826395771390816,1.0
0.9826726131483317,1.0
0.9858771060455896,1.0
0.9859101420548397,1.0
0.9888668648827221,1.0
0.9888999008919722,1.0
0.9920713577799801,1.0
0.9921043937892302,1.0
0.9942021803766105,1.0
0.9942352163858605,1.0
0.9961513049223654,1.0
0.9961843409316155,1.0
0.9979187314172447,1.0
0.9979517674264948,1.0
0.9991740997687479,1.0
0.999207135777998,1.0
1.0,1.0
