fpr,tpr
0.0,0.0
0.0,0.00018301610541727673
0.0,0.007320644216691069
5.037732617303604e-06,0.007320644216691069
5.037732617303604e-06,0.032302342606149344
5.037732617303604e-06,0.03248535871156662
5.037732617303604e-06,0.03468155197657394
5.037732617303604e-06,0.03486456808199122
5.037732617303604e-06,0.06762445095168375
1.0075465234607208e-05,0.06762445095168375
1.0075465234607208e-05,0.08510248901903368
1.5113197851910811e-05,0.08510248901903368
1.5113197851910811e-05,0.12033308931185945
2.0150930469214415e-05,0.12033308931185945
2.0150930469214415e-05,0.12948389458272327
2.0150930469214415e-05,0.12966691068814057
2.0150930469214415e-05,0.13863469985358712
2.0150930469214415e-05,0.13881771595900438
2.0150930469214415e-05,0.15117130307467058
2.518866308651802e-05,0.15117130307467058
2.518866308651802e-05,0.17871522693997072
2.518866308651802e-05,0.17889824304538798
2.518866308651802e-05,0.20625915080527085
3.0226395703821623e-05,0.20625915080527085
3.0226395703821623e-05,0.21980234260614934
3.0226395703821623e-05,0.21998535871156663
3.0226395703821623e-05,0.24789531478770133
3.0226395703821623e-05,0.2480783308931186
3.0226395703821623e-05,0.25558199121522696
3.526412832112523e-05,0.25558199121522696
3.526412832112523e-05,0.2891654465592972
3.526412832112523e-05,0.2893484626647145
3.526412832112523e-05,0.31002928257686674
4.030186093842883e-05,0.31002928257686674
4.030186093842883e-05,0.3185395314787701
4.533959355573244e-05,0.3185395314787701
4.533959355573244e-05,0.33976939970717424
5.037732617303604e-05,0.33976939970717424
5.037732617303604e-05,0.3420571010248902
5.5415058790339646e-05,0.3420571010248902
5.5415058790339646e-05,0.3463579795021962
6.0452791407643246e-05,0.3463579795021962
6.0452791407643246e-05,0.35175695461200585
6.549052402494685e-05,0.35175695461200585
6.549052402494685e-05,0.35349560761347
7.052825664225046e-05,0.35349560761347
7.052825664225046e-05,0.35770497803806733
7.556598925955406e-05,0.35770497803806733
7.556598925955406e-05,0.3640190336749634
8.060372187685766e-05,0.3640190336749634
8.060372187685766e-05,0.3652086383601757
8.564145449416126e-05,0.3652086383601757
8.564145449416126e-05,0.37866032210834555
9.067918711146488e-05,0.37866032210834555
9.067918711146488e-05,0.38085651537335286
9.571691972876848e-05,0.38085651537335286
9.571691972876848e-05,0.38232064421669104
0.00010075465234607208,0.38232064421669104
0.00010075465234607208,0.38460834553440704
0.00010579238496337569,0.38460834553440704
0.00010579238496337569,0.38515739385065884
0.00011083011758067929,0.38515739385065884
0.00011083011758067929,0.3886346998535871
0.00011586785019798289,0.3886346998535871
0.00011586785019798289,0.3890922401171303
0.00012090558281528649,0.3890922401171303
0.00012090558281528649,0.3908308931185944
0.0001259433154325901,0.3908308931185944
0.0001259433154325901,0.3911054172767203
0.0001309810480498937,0.3911054172767203
0.0001309810480498937,0.39760248901903367
0.00013601878066719732,0.39760248901903367
0.00013601878066719732,0.39851756954612005
0.00014105651328450092,0.39851756954612005
0.00014105651328450092,0.40300146412884336
0.00014609424590180452,0.40300146412884336
0.00014609424590180452,0.40519765739385066
0.00015113197851910812,0.40519765739385066
0.00015113197851910812,0.4062042459736457
0.00015616971113641172,0.4062042459736457
0.00015616971113641172,0.4103221083455344
0.00016120744375371532,0.4103221083455344
0.00016120744375371532,0.4126098096632504
0.00016624517637101892,0.4126098096632504
0.00016624517637101892,0.412701317715959
0.00017128290898832252,0.412701317715959
0.00017128290898832252,0.4141654465592972
0.00017632064160562615,0.4141654465592972
0.00017632064160562615,0.41590409956076135
0.00018135837422292975,0.41590409956076135
0.00018135837422292975,0.41654465592972184
0.00018639610684023335,0.41654465592972184
0.00018639610684023335,0.41709370424597364
0.00019143383945753695,0.41709370424597364
0.00019143383945753695,0.4177342606149341
0.00019647157207484055,0.4177342606149341
0.00019647157207484055,0.4185578330893119
0.00020150930469214415,0.4185578330893119
0.00020150930469214415,0.4195644216691069
0.00020654703730944775,0.4195644216691069
0.00020654703730944775,0.4201134699853587
0.00021158476992675138,0.4201134699853587
0.00021158476992675138,0.4236822840409956
0.00021662250254405498,0.4236822840409956
0.00021662250254405498,0.42542093704245976
0.00022166023516135858,0.42542093704245976
0.00022166023516135858,0.4269765739385066
0.00022669796777866218,0.4269765739385066
0.00022669796777866218,0.42780014641288433
0.00023173570039596578,0.42780014641288433
0.00023173570039596578,0.4284407027818448
0.00023677343301326938,0.4284407027818448
0.00023677343301326938,0.4286237188872621
0.00024181116563057298,0.4286237188872621
0.00024181116563057298,0.4330161054172767
0.0002468488982478766,0.4330161054172767
0.0002468488982478766,0.43420571010248904
0.0002518866308651802,0.43420571010248904
0.0002518866308651802,0.4346632503660322
0.0002569243634824838,0.4346632503660322
0.0002569243634824838,0.43521229868228406
0.0002619620960997874,0.43521229868228406
0.0002619620960997874,0.4359443631039531
0.000266999828717091,0.4359443631039531
0.000266999828717091,0.43640190336749635
0.00027203756133439464,0.43640190336749635
0.00027203756133439464,0.43704245973645683
0.0002770752939516982,0.43704245973645683
0.0002770752939516982,0.43859809663250365
0.00028211302656900184,0.43859809663250365
0.00028211302656900184,0.43978770131771594
0.0002871507591863054,0.43978770131771594
0.0002871507591863054,0.4407027818448023
0.00029218849180360904,0.4407027818448023
0.00029218849180360904,0.44079428989751096
0.0002972262244209126,0.44079428989751096
0.0002972262244209126,0.4415263543191801
0.00030226395703821624,0.4415263543191801
0.00030226395703821624,0.44454612005856514
0.0003073016896555198,0.44454612005856514
0.0003073016896555198,0.44546120058565153
0.00031233942227282344,0.44546120058565153
0.00031233942227282344,0.44573572474377743
0.00031233942227282344,0.44591874084919475
0.00031233942227282344,0.4470168374816984
0.00031737715489012707,0.4470168374816984
0.00031737715489012707,0.4480234260614934
0.00032241488750743065,0.4480234260614934
0.00032241488750743065,0.4491215226939971
0.00032745262012473427,0.4491215226939971
0.00032745262012473427,0.450402635431918
0.00033249035274203785,0.450402635431918
0.00033249035274203785,0.4508601756954612
0.0003375280853593415,0.4508601756954612
0.0003375280853593415,0.4545204978038067
0.00034256581797664505,0.4545204978038067
0.00034256581797664505,0.45763177159590046
0.0003476035505939487,0.45763177159590046
0.0003476035505939487,0.4578147877013177
0.0003526412832112523,0.4578147877013177
0.0003526412832112523,0.4592789165446559
0.0003576790158285559,0.4592789165446559
0.0003576790158285559,0.4608345534407028
0.0003627167484458595,0.4608345534407028
0.0003627167484458595,0.4620241581259151
0.0003677544810631631,0.4620241581259151
0.0003677544810631631,0.4630307467057101
0.0003727922136804667,0.4630307467057101
0.0003727922136804667,0.4652269399707174
0.0003778299462977703,0.4652269399707174
0.0003778299462977703,0.46641654465592974
0.0003828676789150739,0.46641654465592974
0.0003828676789150739,0.46669106881405564
0.00038790541153237753,0.46669106881405564
0.00038790541153237753,0.4667825768667643
0.0003929431441496811,0.4667825768667643
0.0003929431441496811,0.46696559297218154
0.00039798087676698473,0.46696559297218154
0.00039798087676698473,0.4670571010248902
0.0004030186093842883,0.4670571010248902
0.0004030186093842883,0.4685212298682284
0.00040805634200159193,0.4685212298682284
0.00040805634200159193,0.4687957540263543
0.0004130940746188955,0.4687957540263543
0.0004130940746188955,0.4707174231332357
0.00041813180723619913,0.4707174231332357
0.00041813180723619913,0.47236456808199123
0.00042316953985350276,0.47236456808199123
0.00042316953985350276,0.4725475841874085
0.00042820727247080634,0.4725475841874085
0.00042820727247080634,0.4737371888726208
0.00043324500508810996,0.4737371888726208
0.00043324500508810996,0.4738286969253294
0.00043828273770541354,0.4738286969253294
0.00043828273770541354,0.4753843338213763
0.00044835820294002074,0.4753843338213763
0.00044835820294002074,0.4757503660322108
0.00045339593555732436,0.4757503660322108
0.00045339593555732436,0.4759333821376281
0.00045843366817462794,0.4759333821376281
0.00045843366817462794,0.4768484626647145
0.00046347140079193157,0.4768484626647145
0.00046347140079193157,0.47776354319180087
0.0004685091334092352,0.47776354319180087
0.0004685091334092352,0.4783125915080527
0.00047354686602653877,0.4783125915080527
0.00047354686602653877,0.4785871156661786
0.0004785845986438424,0.4785871156661786
0.0004785845986438424,0.48151537335285505
0.00048362233126114597,0.48151537335285505
0.00048362233126114597,0.4839860907759883
0.0004886600638784495,0.4839860907759883
0.0004886600638784495,0.4844436310395315
0.0004936977964957532,0.4844436310395315
0.0004936977964957532,0.48535871156661786
0.0005037732617303604,0.48535871156661786
0.0005037732617303604,0.48599926793557835
0.000508810994347664,0.48599926793557835
0.000508810994347664,0.4866398243045388
0.0005138487269649676,0.4866398243045388
0.0005138487269649676,0.4882869692532943
0.0005188864595822712,0.4882869692532943
0.0005188864595822712,0.4892020497803807
0.0005239241921995748,0.4892020497803807
0.0005239241921995748,0.49075768667642755
0.0005289619248168785,0.49075768667642755
0.0005289619248168785,0.4914897510980966
0.000533999657434182,0.4914897510980966
0.000533999657434182,0.4927708638360176
0.0005390373900514856,0.4927708638360176
0.0005390373900514856,0.49542459736456806
0.0005440751226687893,0.49542459736456806
0.0005440751226687893,0.49579062957540265
0.0005491128552860929,0.49579062957540265
0.0005491128552860929,0.4959736456808199
0.0005541505879033964,0.4959736456808199
0.0005541505879033964,0.4962481698389458
0.0005591883205207,0.4962481698389458
0.0005591883205207,0.4978038067349927
0.0005642260531380037,0.4978038067349927
0.0005642260531380037,0.4978953147877013
0.0005692637857553073,0.4978953147877013
0.0005692637857553073,0.4984443631039531
0.0005743015183726108,0.4984443631039531
0.0005743015183726108,0.4990849194729136
0.0005843769836072181,0.4990849194729136
0.0005843769836072181,0.49981698389458273
0.0005894147162245217,0.49981698389458273
0.0005894147162245217,0.5010980966325037
0.0005944524488418252,0.5010980966325037
0.0005944524488418252,0.5013726207906296
0.0005994901814591289,0.5013726207906296
0.0005994901814591289,0.5014641288433382
0.0006045279140764325,0.5014641288433382
0.0006045279140764325,0.5024707174231332
0.0006095656466937361,0.5024707174231332
0.0006095656466937361,0.5031112737920937
0.0006196411119283433,0.5031112737920937
0.0006196411119283433,0.504300878477306
0.0006246788445456469,0.504300878477306
0.0006246788445456469,0.5049414348462665
0.0006297165771629505,0.5049414348462665
0.0006297165771629505,0.5057650073206442
0.0006347543097802541,0.5057650073206442
0.0006347543097802541,0.5070461200585652
0.0006397920423975577,0.5070461200585652
0.0006397920423975577,0.5072291361639825
0.0006448297750148613,0.5072291361639825
0.0006448297750148613,0.5073206442166911
0.0006498675076321649,0.5073206442166911
0.0006498675076321649,0.5078696925329429
0.0006549052402494685,0.5078696925329429
0.0006549052402494685,0.5081442166910688
0.0006599429728667721,0.5081442166910688
0.0006599429728667721,0.5103404099560761
0.0006649807054840757,0.5103404099560761
0.0006649807054840757,0.5110724743777453
0.0006700184381013794,0.5110724743777453
0.0006700184381013794,0.5116215226939971
0.000675056170718683,0.5116215226939971
0.000675056170718683,0.5118045387994143
0.0006800939033359865,0.5118045387994143
0.0006800939033359865,0.5119875549048316
0.0006851316359532901,0.5119875549048316
0.0006851316359532901,0.5124450951683748
0.0006901693685705938,0.5124450951683748
0.0006901693685705938,0.5125366032210834
0.0006952071011878973,0.5125366032210834
0.0006952071011878973,0.512628111273792
0.0007002448338052009,0.512628111273792
0.0007002448338052009,0.5148243045387995
0.0007103202990398082,0.5148243045387995
0.0007103202990398082,0.5153733528550513
0.0007153580316571118,0.5153733528550513
0.0007153580316571118,0.5162884333821376
0.0007203957642744153,0.5162884333821376
0.0007203957642744153,0.5172950219619327
0.0007304712295090226,0.5172950219619327
0.0007304712295090226,0.5179355783308931
0.0007355089621263262,0.5179355783308931
0.0007355089621263262,0.5181185944363104
0.0007405466947436298,0.5181185944363104
0.0007405466947436298,0.5204978038067349
0.0007455844273609334,0.5204978038067349
0.0007455844273609334,0.520772327964861
0.000750622159978237,0.520772327964861
0.000750622159978237,0.5213213762811127
0.0007556598925955406,0.5213213762811127
0.0007556598925955406,0.5215959004392386
0.0007606976252128442,0.5215959004392386
0.0007606976252128442,0.5225109809663251
0.0007657353578301478,0.5225109809663251
0.0007657353578301478,0.5255307467057101
0.0007707730904474514,0.5255307467057101
0.0007707730904474514,0.5259882869692533
0.0007758108230647551,0.5259882869692533
0.0007758108230647551,0.527086383601757
0.0007808485556820586,0.527086383601757
0.0007808485556820586,0.5274524158125915
0.0007858862882993622,0.5274524158125915
0.0007858862882993622,0.5281844802342606
0.0007909240209166658,0.5281844802342606
0.0007909240209166658,0.5296486090775988
0.0007959617535339695,0.5296486090775988
0.0007959617535339695,0.5305636896046853
0.000800999486151273,0.5305636896046853
0.000800999486151273,0.5309297218155198
0.0008060372187685766,0.5309297218155198
0.0008060372187685766,0.5320278184480234
0.0008110749513858803,0.5320278184480234
0.0008110749513858803,0.5331259150805271
0.0008211504166204874,0.5331259150805271
0.0008211504166204874,0.5333089311859444
0.000826188149237791,0.5333089311859444
0.000826188149237791,0.5347730600292826
0.0008312258818550947,0.5347730600292826
0.0008312258818550947,0.5358711566617862
0.0008362636144723983,0.5358711566617862
0.0008362636144723983,0.5360541727672035
0.0008413013470897018,0.5360541727672035
0.0008413013470897018,0.5361456808199122
0.0008463390797070055,0.5361456808199122
0.0008463390797070055,0.5365117130307467
0.0008513768123243091,0.5365117130307467
0.0008513768123243091,0.5367862371888726
0.0008564145449416127,0.5367862371888726
0.0008564145449416127,0.5371522693997072
0.0008614522775589162,0.5371522693997072
0.0008614522775589162,0.5380673499267935
0.0008664900101762199,0.5380673499267935
0.0008664900101762199,0.5390739385065886
0.0008715277427935235,0.5390739385065886
0.0008715277427935235,0.5394399707174231
0.0008765654754108271,0.5394399707174231
0.0008765654754108271,0.5395314787701317
0.0008816032080281306,0.5395314787701317
0.0008816032080281306,0.5413616398243045
0.0008866409406454343,0.5413616398243045
0.0008866409406454343,0.5414531478770132
0.0008916786732627379,0.5414531478770132
0.0008916786732627379,0.5416361639824304
0.0009067918711146487,0.5416361639824304
0.0009067918711146487,0.541727672035139
0.0009118296037319523,0.541727672035139
0.0009118296037319523,0.5432833089311859
0.0009168673363492559,0.5432833089311859
0.0009168673363492559,0.5444729136163983
0.0009219050689665596,0.5444729136163983
0.0009219050689665596,0.5450219619326501
0.0009319805342011667,0.5450219619326501
0.0009319805342011667,0.5487737920937042
0.0009370182668184704,0.5487737920937042
0.0009370182668184704,0.5489568081991215
0.000942055999435774,0.5489568081991215
0.000942055999435774,0.5496888726207906
0.0009470937320530775,0.5496888726207906
0.0009470937320530775,0.550603953147877
0.0009521314646703811,0.550603953147877
0.0009521314646703811,0.5515190336749634
0.0009622069299049884,0.5515190336749634
0.0009622069299049884,0.552891654465593
0.0009672446625222919,0.552891654465593
0.0009672446625222919,0.5544472913616398
0.0009722823951395956,0.5544472913616398
0.0009722823951395956,0.5552708638360175
0.000977320127756899,0.5552708638360175
0.000977320127756899,0.5571010248901903
0.0009823578603742028,0.5571010248901903
0.0009823578603742028,0.5572840409956076
0.0009873955929915064,0.5572840409956076
0.0009873955929915064,0.5580161054172768
0.00099243332560881,0.5580161054172768
0.00099243332560881,0.5597547584187409
0.0010075465234607207,0.5597547584187409
0.0010075465234607207,0.5608528550512445
0.0010125842560780244,0.5608528550512445
0.0010125842560780244,0.5610358711566618
0.001017621988695328,0.5610358711566618
0.001017621988695328,0.5616764275256223
0.0010226597213126316,0.5616764275256223
0.0010226597213126316,0.5625915080527086
0.0010276974539299352,0.5625915080527086
0.0010276974539299352,0.5626830161054173
0.0010327351865472387,0.5626830161054173
0.0010327351865472387,0.5629575402635432
0.0010377729191645424,0.5629575402635432
0.0010377729191645424,0.5633235724743777
0.001042810651781846,0.5633235724743777
0.001042810651781846,0.5651537335285505
0.0010528861170164532,0.5651537335285505
0.0010528861170164532,0.5675329428989752
0.001057923849633757,0.5675329428989752
0.001057923849633757,0.5679904831625183
0.0010629615822510604,0.5679904831625183
0.0010629615822510604,0.5683565153733529
0.0010730370474856677,0.5683565153733529
0.0010730370474856677,0.5684480234260615
0.0010780747801029712,0.5684480234260615
0.0010780747801029712,0.5693631039531479
0.0010881502453375786,0.5693631039531479
0.0010881502453375786,0.5697291361639825
0.001093187977954882,0.5697291361639825
0.001093187977954882,0.5711932650073206
0.0010982257105721857,0.5711932650073206
0.0010982257105721857,0.5714677891654466
0.0011032634431894892,0.5714677891654466
0.0011032634431894892,0.5716508052708639
0.0011083011758067929,0.5716508052708639
0.0011083011758067929,0.5723828696925329
0.0011133389084240965,0.5723828696925329
0.0011133389084240965,0.5724743777452416
0.0011183766410414,0.5724743777452416
0.0011183766410414,0.573114934114202
0.0011284521062760074,0.573114934114202
0.0011284521062760074,0.573389458272328
0.0011334898388933108,0.573389458272328
0.0011334898388933108,0.5738469985358712
0.0011385275715106145,0.5738469985358712
0.0011385275715106145,0.5743045387994143
0.0011486030367452217,0.5743045387994143
0.0011486030367452217,0.575402635431918
0.0011536407693625253,0.575402635431918
0.0011536407693625253,0.5762262079062958
0.0011637162345971325,0.5762262079062958
0.0011637162345971325,0.5765007320644217
0.0011687539672144362,0.5765007320644217
0.0011687539672144362,0.5765922401171303
0.0011737916998317396,0.5765922401171303
0.0011737916998317396,0.5766837481698389
0.001183867165066347,0.5766837481698389
0.001183867165066347,0.5767752562225475
0.0011889048976836505,0.5767752562225475
0.0011889048976836505,0.5775073206442167
0.0011939426303009541,0.5775073206442167
0.0011939426303009541,0.5778733528550513
0.0011989803629182578,0.5778733528550513
0.0011989803629182578,0.5784224011713031
0.0012040180955355613,0.5784224011713031
0.0012040180955355613,0.5788799414348462
0.001209055828152865,0.5788799414348462
0.001209055828152865,0.5799780380673499
0.0012140935607701687,0.5799780380673499
0.0012140935607701687,0.5801610541727672
0.0012241690260047758,0.5801610541727672
0.0012241690260047758,0.5805270863836017
0.0012392822238566866,0.5805270863836017
0.0012392822238566866,0.5812591508052709
0.00124431995647399,0.5812591508052709
0.00124431995647399,0.5814421669106882
0.0012493576890912938,0.5814421669106882
0.0012493576890912938,0.5820827232796486
0.001259433154325901,0.5820827232796486
0.001259433154325901,0.5829978038067349
0.0012644708869432046,0.5829978038067349
0.0012644708869432046,0.5833638360175696
0.0012745463521778118,0.5833638360175696
0.0012745463521778118,0.58400439238653
0.0012795840847951154,0.58400439238653
0.0012795840847951154,0.5847364568081991
0.0012896595500297226,0.5847364568081991
0.0012896595500297226,0.5851024890190337
0.0012946972826470263,0.5851024890190337
0.0012946972826470263,0.5855600292825769
0.0012997350152643297,0.5855600292825769
0.0012997350152643297,0.5858345534407028
0.0013047727478816334,0.5858345534407028
0.0013047727478816334,0.5859260614934114
0.001309810480498937,0.5859260614934114
0.001309810480498937,0.5870241581259151
0.0013148482131162406,0.5870241581259151
0.0013148482131162406,0.5879392386530015
0.0013198859457335442,0.5879392386530015
0.0013198859457335442,0.5887628111273792
0.0013299614109681514,0.5887628111273792
0.0013299614109681514,0.5889458272327965
0.001334999143585455,0.5889458272327965
0.001334999143585455,0.5890373352855052
0.0013400368762027587,0.5890373352855052
0.0013400368762027587,0.5891288433382138
0.0013450746088200622,0.5891288433382138
0.0013450746088200622,0.5894948755490483
0.001350112341437366,0.5894948755490483
0.001350112341437366,0.5897693997071742
0.001360187806671973,0.5897693997071742
0.001360187806671973,0.5914165446559297
0.0013652255392892767,0.5914165446559297
0.0013652255392892767,0.5920571010248902
0.0013702632719065802,0.5920571010248902
0.0013702632719065802,0.5922401171303074
0.0013753010045238839,0.5922401171303074
0.0013753010045238839,0.592880673499268
0.0013803387371411876,0.592880673499268
0.0013803387371411876,0.5932467057101025
0.001385376469758491,0.5932467057101025
0.001385376469758491,0.5942532942898975
0.0013904142023757947,0.5942532942898975
0.0013904142023757947,0.5944363103953147
0.0014004896676104018,0.5944363103953147
0.0014004896676104018,0.5957174231332357
0.0014105651328450092,0.5957174231332357
0.0014105651328450092,0.5967240117130308
0.00142567833069692,0.5967240117130308
0.00142567833069692,0.5978221083455344
0.0014357537959315272,0.5978221083455344
0.0014357537959315272,0.597913616398243
0.0014407915285488306,0.597913616398243
0.0014407915285488306,0.5980966325036603
0.0014458292611661343,0.5980966325036603
0.0014458292611661343,0.5981881405563689
0.001450866993783438,0.5981881405563689
0.001450866993783438,0.5985541727672035
0.0014559047264007415,0.5985541727672035
0.0014559047264007415,0.5998352855051244
0.0014710179242526523,0.5998352855051244
0.0014710179242526523,0.600201317715959
0.001476055656869956,0.600201317715959
0.001476055656869956,0.6004758418740849
0.0014861311221045631,0.6004758418740849
0.0014861311221045631,0.6005673499267935
0.0014911688547218668,0.6005673499267935
0.0014911688547218668,0.6006588579795022
0.0014962065873391703,0.6006588579795022
0.0014962065873391703,0.6007503660322109
0.0015062820525737776,0.6007503660322109
0.0015062820525737776,0.60148243045388
0.001511319785191081,0.60148243045388
0.001511319785191081,0.6017569546120058
0.0015163575178083848,0.6017569546120058
0.0015163575178083848,0.6025805270863837
0.0015213952504256885,0.6025805270863837
0.0015213952504256885,0.6026720351390923
0.001526432983042992,0.6026720351390923
0.001526432983042992,0.60349560761347
0.0015314707156602956,0.60349560761347
0.0015314707156602956,0.6036786237188873
0.0015365084482775993,0.6036786237188873
0.0015365084482775993,0.604227672035139
0.0015415461808949028,0.604227672035139
0.0015415461808949028,0.6054172767203514
0.0015465839135122064,0.6054172767203514
0.0015465839135122064,0.60550878477306
0.0015516216461295101,0.60550878477306
0.0015516216461295101,0.6063323572474377
0.0015566593787468136,0.6063323572474377
0.0015566593787468136,0.6066983894582724
0.0015616971113641173,0.6066983894582724
0.0015616971113641173,0.6069729136163983
0.0015667348439814207,0.6069729136163983
0.0015667348439814207,0.6075219619326501
0.0015717725765987244,0.6075219619326501
0.0015717725765987244,0.607796486090776
0.001576810309216028,0.607796486090776
0.001576810309216028,0.6078879941434846
0.0015818480418333316,0.6078879941434846
0.0015818480418333316,0.6079795021961932
0.0015868857744506353,0.6079795021961932
0.0015868857744506353,0.6083455344070278
0.0015969612396852424,0.6083455344070278
0.0015969612396852424,0.6085285505124451
0.0016120744375371532,0.6085285505124451
0.0016120744375371532,0.6089860907759883
0.001617112170154457,0.6089860907759883
0.001617112170154457,0.6091691068814056
0.0016221499027717606,0.6091691068814056
0.0016221499027717606,0.6097181551976574
0.001627187635389064,0.6097181551976574
0.001627187635389064,0.609809663250366
0.0016322253680063677,0.609809663250366
0.0016322253680063677,0.6099926793557833
0.0016372631006236712,0.6099926793557833
0.0016372631006236712,0.6101756954612005
0.0016473385658582786,0.6101756954612005
0.0016473385658582786,0.6112737920937042
0.001652376298475582,0.6112737920937042
0.001652376298475582,0.611822840409956
0.0016574140310928857,0.611822840409956
0.0016574140310928857,0.6119143484626647
0.0016624517637101894,0.6119143484626647
0.0016624517637101894,0.6124633967789166
0.0016674894963274929,0.6124633967789166
0.0016674894963274929,0.6125549048316252
0.0016775649615621002,0.6125549048316252
0.0016775649615621002,0.6130124450951684
0.0016876404267967074,0.6130124450951684
0.0016876404267967074,0.613103953147877
0.001692678159414011,0.613103953147877
0.001692678159414011,0.6136530014641288
0.0016977158920313145,0.6136530014641288
0.0016977158920313145,0.6142020497803806
0.0017027536246486182,0.6142020497803806
0.0017027536246486182,0.6148426061493412
0.0017077913572659217,0.6148426061493412
0.0017077913572659217,0.6151171303074671
0.0017128290898832253,0.6151171303074671
0.0017128290898832253,0.6153001464128843
0.001717866822500529,0.6153001464128843
0.001717866822500529,0.615391654465593
0.0017229045551178325,0.615391654465593
0.0017229045551178325,0.6154831625183016
0.0017279422877351362,0.6154831625183016
0.0017279422877351362,0.6165812591508053
0.0017329800203524399,0.6165812591508053
0.0017329800203524399,0.6169472913616398
0.0017380177529697433,0.6169472913616398
0.0017380177529697433,0.6171303074670571
0.001743055485587047,0.6171303074670571
0.001743055485587047,0.6175878477306003
0.0017480932182043507,0.6175878477306003
0.0017480932182043507,0.6178623718887262
0.0017531309508216541,0.6178623718887262
0.0017531309508216541,0.6179538799414348
0.0017581686834389578,0.6179538799414348
0.0017581686834389578,0.6180453879941434
0.001768244148673565,0.6180453879941434
0.001768244148673565,0.6181368960468521
0.0017732818812908687,0.6181368960468521
0.0017732818812908687,0.6182284040995608
0.0017783196139081721,0.6182284040995608
0.0017783196139081721,0.6190519765739385
0.0017833573465254758,0.6190519765739385
0.0017833573465254758,0.6197840409956076
0.0017883950791427795,0.6197840409956076
0.0017883950791427795,0.6202415812591509
0.001793432811760083,0.6202415812591509
0.001793432811760083,0.6206076134699854
0.0017984705443773866,0.6206076134699854
0.0017984705443773866,0.6207906295754027
0.0018035082769946903,0.6207906295754027
0.0018035082769946903,0.6212481698389458
0.0018085460096119938,0.6212481698389458
0.0018085460096119938,0.6213396778916545
0.0018135837422292975,0.6213396778916545
0.0018135837422292975,0.6214311859443631
0.0018186214748466011,0.6214311859443631
0.0018186214748466011,0.6216142020497804
0.0018286969400812083,0.6216142020497804
0.0018286969400812083,0.6221632503660323
0.0018337346726985118,0.6221632503660323
0.0018337346726985118,0.6222547584187409
0.0018387724053158154,0.6222547584187409
0.0018387724053158154,0.6223462664714495
0.0018438101379331191,0.6223462664714495
0.0018438101379331191,0.6225292825768668
0.0018538856031677263,0.6225292825768668
0.0018538856031677263,0.6228953147877013
0.00185892333578503,0.6228953147877013
0.00185892333578503,0.6230783308931186
0.001868998801019637,0.6230783308931186
0.001868998801019637,0.6232613469985359
0.0018790742662542442,0.6232613469985359
0.0018790742662542442,0.6236273792093704
0.001884111998871548,0.6236273792093704
0.001884111998871548,0.6239019033674963
0.0018891497314888516,0.6239019033674963
0.0018891497314888516,0.6239934114202049
0.001894187464106155,0.6239934114202049
0.001894187464106155,0.625
0.0018992251967234587,0.625
0.0018992251967234587,0.6253660322108345
0.0019042629293407622,0.6253660322108345
0.0019042629293407622,0.6256405563689604
0.001909300661958066,0.6256405563689604
0.001909300661958066,0.626281112737921
0.0019143383945753696,0.626281112737921
0.0019143383945753696,0.6268301610541728
0.001919376127192673,0.6268301610541728
0.001919376127192673,0.6271046852122987
0.0019294515924272804,0.6271046852122987
0.0019294515924272804,0.6274707174231332
0.0019344893250445839,0.6274707174231332
0.0019344893250445839,0.6279282576866764
0.0019395270576618876,0.6279282576866764
0.0019395270576618876,0.6286603221083455
0.0019445647902791912,0.6286603221083455
0.0019445647902791912,0.6291178623718887
0.0019496025228964947,0.6291178623718887
0.0019496025228964947,0.6297584187408491
0.001954640255513798,0.6297584187408491
0.001954640255513798,0.6302159590043924
0.001959677988131102,0.6302159590043924
0.001959677988131102,0.6309480234260615
0.0019647157207484055,0.6309480234260615
0.0019647157207484055,0.6312225475841874
0.001969753453365709,0.6312225475841874
0.001969753453365709,0.6317715959004392
0.001974791185983013,0.6317715959004392
0.001974791185983013,0.6318631039531479
0.0019798289186003164,0.6318631039531479
0.0019798289186003164,0.6325036603221084
0.00198486665121762,0.6325036603221084
0.00198486665121762,0.6335102489019033
0.001994942116452227,0.6335102489019033
0.001994942116452227,0.6337847730600292
0.0019999798490695306,0.6337847730600292
0.0019999798490695306,0.6346998535871157
0.0020050175816868345,0.6346998535871157
0.0020050175816868345,0.6357064421669106
0.002010055314304138,0.6357064421669106
0.002010055314304138,0.6361639824304539
0.0020150930469214415,0.6361639824304539
0.0020150930469214415,0.6364385065885798
0.0020201307795387454,0.6364385065885798
0.0020201307795387454,0.6373535871156661
0.002025168512156049,0.6373535871156661
0.002025168512156049,0.6380856515373353
0.0020302062447733523,0.6380856515373353
0.0020302062447733523,0.6387262079062958
0.002035243977390656,0.6387262079062958
0.002035243977390656,0.6388177159590044
0.002050357175242567,0.6388177159590044
0.002050357175242567,0.638909224011713
0.002060432640477174,0.638909224011713
0.002060432640477174,0.6390007320644217
0.0020654703730944774,0.6390007320644217
0.0020654703730944774,0.6393667642752562
0.0020705081057117813,0.6393667642752562
0.0020705081057117813,0.6394582723279648
0.002075545838329085,0.6394582723279648
0.002075545838329085,0.6395497803806734
0.0020805835709463883,0.6395497803806734
0.0020805835709463883,0.640190336749634
0.002085621303563692,0.640190336749634
0.002085621303563692,0.6410139092240117
0.0020906590361809956,0.6410139092240117
0.0020906590361809956,0.6412884333821376
0.002095696768798299,0.6412884333821376
0.002095696768798299,0.6413799414348462
0.002100734501415603,0.6413799414348462
0.002100734501415603,0.6414714494875549
0.00211080996665021,0.6414714494875549
0.00211080996665021,0.6419289897510981
0.0021208854318848173,0.6419289897510981
0.0021208854318848173,0.6424780380673499
0.0021259231645021207,0.6424780380673499
0.0021259231645021207,0.6428440702781845
0.0021309608971194246,0.6428440702781845
0.0021309608971194246,0.6431185944363104
0.0021410363623540316,0.6431185944363104
0.0021410363623540316,0.6433016105417276
0.0021460740949713355,0.6433016105417276
0.0021460740949713355,0.6435761346998536
0.002151111827588639,0.6435761346998536
0.002151111827588639,0.6438506588579795
0.0021561495602059424,0.6438506588579795
0.0021561495602059424,0.6441251830161054
0.0021662250254405498,0.6441251830161054
0.0021662250254405498,0.64449121522694
0.002176300490675157,0.64449121522694
0.002176300490675157,0.6445827232796486
0.0021813382232924606,0.6445827232796486
0.0021813382232924606,0.6447657393850659
0.002186375955909764,0.6447657393850659
0.002186375955909764,0.6448572474377745
0.002191413688527068,0.6448572474377745
0.002191413688527068,0.6460468521229868
0.0021964514211443714,0.6460468521229868
0.0021964514211443714,0.6462298682284041
0.002201489153761675,0.6462298682284041
0.002201489153761675,0.6463213762811127
0.0022065268863789783,0.6463213762811127
0.0022065268863789783,0.6466874084919473
0.0022115646189962822,0.6466874084919473
0.0022115646189962822,0.6471449487554904
0.002221640084230889,0.6471449487554904
0.002221640084230889,0.6482430453879942
0.002226677816848193,0.6482430453879942
0.002226677816848193,0.6483345534407028
0.0022317155494654965,0.6483345534407028
0.0022317155494654965,0.6484260614934114
0.002241791014700104,0.6484260614934114
0.002241791014700104,0.64851756954612
0.0022468287473174074,0.64851756954612
0.0022468287473174074,0.6496156661786238
0.002251866479934711,0.6496156661786238
0.002251866479934711,0.6503477306002928
0.0022569042125520147,0.6503477306002928
0.0022569042125520147,0.6505307467057101
0.002261941945169318,0.6505307467057101
0.002261941945169318,0.6506222547584187
0.0022669796777866217,0.6506222547584187
0.0022669796777866217,0.6509882869692533
0.0022720174104039256,0.6509882869692533
0.0022720174104039256,0.6510797950219619
0.002277055143021229,0.6510797950219619
0.002277055143021229,0.6511713030746705
0.0022820928756385325,0.6511713030746705
0.0022820928756385325,0.6512628111273792
0.0022871306082558364,0.6512628111273792
0.0022871306082558364,0.6513543191800878
0.0023022438061077472,0.6513543191800878
0.0023022438061077472,0.6514458272327965
0.0023072815387250507,0.6514458272327965
0.0023072815387250507,0.6516288433382138
0.002312319271342354,0.6516288433382138
0.002312319271342354,0.6521778916544656
0.002317357003959658,0.6521778916544656
0.002317357003959658,0.6525439238653001
0.0023223947365769615,0.6525439238653001
0.0023223947365769615,0.6530014641288433
0.002327432469194265,0.6530014641288433
0.002327432469194265,0.6534590043923866
0.0023324702018115684,0.6534590043923866
0.0023324702018115684,0.6535505124450952
0.0023375079344288723,0.6535505124450952
0.0023375079344288723,0.6538250366032211
0.002342545667046176,0.6538250366032211
0.002342545667046176,0.6540080527086384
0.0023475833996634793,0.6540080527086384
0.0023475833996634793,0.6542825768667643
0.0023576588648980866,0.6542825768667643
0.0023576588648980866,0.6549231332357247
0.00236269659751539,0.6549231332357247
0.00236269659751539,0.6551976573938506
0.002367734330132694,0.6551976573938506
0.002367734330132694,0.6552891654465594
0.0023727720627499975,0.6552891654465594
0.0023727720627499975,0.6559297218155198
0.002377809795367301,0.6559297218155198
0.002377809795367301,0.6568448023426061
0.002382847527984605,0.6568448023426061
0.002382847527984605,0.6573023426061494
0.0023878852606019083,0.6573023426061494
0.0023878852606019083,0.6574853587115667
0.0023979607258365157,0.6574853587115667
0.0023979607258365157,0.6575768667642753
0.0024130739236884265,0.6575768667642753
0.0024130739236884265,0.6588579795021962
0.00241811165630573,0.6588579795021962
0.00241811165630573,0.6592240117130308
0.0024231493889230334,0.6592240117130308
0.0024231493889230334,0.6593155197657394
0.0024281871215403373,0.6593155197657394
0.0024281871215403373,0.6594985358711567
0.0024332248541576408,0.6594985358711567
0.0024332248541576408,0.659681551976574
0.0024382625867749442,0.659681551976574
0.0024382625867749442,0.6614202049780381
0.002443300319392248,0.6614202049780381
0.002443300319392248,0.6615117130307467
0.0024483380520095516,0.6615117130307467
0.0024483380520095516,0.6621522693997072
0.002453375784626855,0.6621522693997072
0.002453375784626855,0.6623352855051244
0.0024584135172441585,0.6623352855051244
0.0024584135172441585,0.662701317715959
0.0024634512498614624,0.662701317715959
0.0024634512498614624,0.6629758418740849
0.0024735267150960694,0.6629758418740849
0.0024735267150960694,0.6634333821376281
0.0024785644477133733,0.6634333821376281
0.0024785644477133733,0.6638909224011713
0.00248863991294798,0.6638909224011713
0.00248863991294798,0.6640739385065886
0.0024987153781825876,0.6640739385065886
0.0024987153781825876,0.6642569546120058
0.002503753110799891,0.6642569546120058
0.002503753110799891,0.6643484626647145
0.002518866308651802,0.6643484626647145
0.002518866308651802,0.664714494875549
0.0025239040412691057,0.664714494875549
0.0025239040412691057,0.6651720351390923
0.002528941773886409,0.6651720351390923
0.002528941773886409,0.6652635431918009
0.0025390172391210166,0.6652635431918009
0.0025390172391210166,0.6655380673499268
0.00254405497173832,0.6655380673499268
0.00254405497173832,0.6657210834553441
0.0025490927043556235,0.6657210834553441
0.0025490927043556235,0.6659040995607614
0.0025541304369729274,0.6659040995607614
0.0025541304369729274,0.6663616398243045
0.002559168169590231,0.6663616398243045
0.002559168169590231,0.6666361639824304
0.0025642059022075343,0.6666361639824304
0.0025642059022075343,0.6668191800878477
0.0025692436348248382,0.6668191800878477
0.0025692436348248382,0.6670021961932651
0.0025742813674421417,0.6670021961932651
0.0025742813674421417,0.667276720351391
0.002584356832676749,0.667276720351391
0.002584356832676749,0.6676427525622255
0.0025893945652940525,0.6676427525622255
0.0025893945652940525,0.6677342606149341
0.002594432297911356,0.6677342606149341
0.002594432297911356,0.6681002928257687
0.0025994700305286595,0.6681002928257687
0.0025994700305286595,0.6688323572474377
0.0026045077631459634,0.6688323572474377
0.0026045077631459634,0.6690153733528551
0.0026145832283805703,0.6690153733528551
0.0026145832283805703,0.6694729136163983
0.002629696426232481,0.6694729136163983
0.002629696426232481,0.6697474377745242
0.002649847356701696,0.6697474377745242
0.002649847356701696,0.6700219619326501
0.0026599228219363028,0.6700219619326501
0.0026599228219363028,0.6702049780380673
0.0026649605545536067,0.6702049780380673
0.0026649605545536067,0.670296486090776
0.00266999828717091,0.670296486090776
0.00266999828717091,0.6705710102489019
0.0026800737524055175,0.6705710102489019
0.0026800737524055175,0.6706625183016105
0.0026901492176401244,0.6706625183016105
0.0026901492176401244,0.6709370424597365
0.0026951869502574283,0.6709370424597365
0.0026951869502574283,0.6710285505124451
0.002700224682874732,0.6710285505124451
0.002700224682874732,0.6711200585651538
0.0027052624154920353,0.6711200585651538
0.0027052624154920353,0.6712115666178624
0.002710300148109339,0.6712115666178624
0.002710300148109339,0.6715775988286969
0.0027153378807266426,0.6715775988286969
0.0027153378807266426,0.6717606149341142
0.002720375613343946,0.6717606149341142
0.002720375613343946,0.6720351390922401
0.0027304510785785534,0.6720351390922401
0.0027304510785785534,0.6724011713030746
0.002735488811195857,0.6724011713030746
0.002735488811195857,0.6725841874084919
0.0027405265438131604,0.6725841874084919
0.0027405265438131604,0.6727672035139092
0.0027455642764304643,0.6727672035139092
0.0027455642764304643,0.6728587115666179
0.002760677474282375,0.6728587115666179
0.002760677474282375,0.6733162518301611
0.002775790672134286,0.6733162518301611
0.002775790672134286,0.6734077598828697
0.0027808284047515894,0.6734077598828697
0.0027808284047515894,0.6734992679355783
0.002785866137368893,0.6734992679355783
0.002785866137368893,0.673590775988287
0.0027959416026035002,0.673590775988287
0.0027959416026035002,0.6737737920937042
0.0028060170678381076,0.6737737920937042
0.0028060170678381076,0.6745058565153733
0.002811054800455411,0.6745058565153733
0.002811054800455411,0.6752379209370425
0.0028160925330727145,0.6752379209370425
0.0028160925330727145,0.675603953147877
0.0028211302656900184,0.675603953147877
0.0028211302656900184,0.6756954612005857
0.002826167998307322,0.6756954612005857
0.002826167998307322,0.6763360175695461
0.0028312057309246253,0.6763360175695461
0.0028312057309246253,0.676610541727672
0.0028362434635419292,0.676610541727672
0.0028362434635419292,0.6767935578330894
0.002846318928776536,0.6767935578330894
0.002846318928776536,0.6774341142020498
0.0028563943940111435,0.6774341142020498
0.0028563943940111435,0.6778001464128843
0.0028664698592457505,0.6778001464128843
0.0028664698592457505,0.6784407027818448
0.0028715075918630544,0.6784407027818448
0.0028715075918630544,0.6793557833089312
0.002876545324480358,0.6793557833089312
0.002876545324480358,0.6798133235724744
0.002886620789714965,0.6798133235724744
0.002886620789714965,0.6801793557833089
0.002896696254949572,0.6801793557833089
0.002896696254949572,0.6804538799414348
0.002901733987566876,0.6804538799414348
0.002901733987566876,0.6805453879941434
0.0029067717201841795,0.6805453879941434
0.0029067717201841795,0.6806368960468521
0.0029218849180360903,0.6806368960468521
0.0029218849180360903,0.6809114202049781
0.0029269226506533938,0.6809114202049781
0.0029269226506533938,0.6810029282576867
0.0029319603832706977,0.6810029282576867
0.0029319603832706977,0.681185944363104
0.002936998115888001,0.681185944363104
0.002936998115888001,0.6812774524158126
0.0029420358485053046,0.6812774524158126
0.0029420358485053046,0.6813689604685212
0.0029470735811226085,0.6813689604685212
0.0029470735811226085,0.6814604685212299
0.0029571490463572154,0.6814604685212299
0.0029571490463572154,0.6817349926793558
0.002967224511591823,0.6817349926793558
0.002967224511591823,0.681918008784773
0.00297729997682643,0.681918008784773
0.00297729997682643,0.6820095168374817
0.0029823377094437336,0.6820095168374817
0.0029823377094437336,0.6823755490483162
0.0029924131746783406,0.6823755490483162
0.0029924131746783406,0.6829245973645681
0.0029974509072956445,0.6829245973645681
0.0029974509072956445,0.6831076134699854
0.003002488639912948,0.6831076134699854
0.003002488639912948,0.6837481698389458
0.0030075263725302514,0.6837481698389458
0.0030075263725302514,0.6838396778916545
0.0030176018377648588,0.6838396778916545
0.0030176018377648588,0.6841142020497804
0.003027677302999466,0.6841142020497804
0.003027677302999466,0.684205710102489
0.0030327150356167696,0.684205710102489
0.0030327150356167696,0.6843887262079063
0.0030478282334686804,0.6843887262079063
0.0030478282334686804,0.6844802342606149
0.0030679791639378947,0.6844802342606149
0.0030679791639378947,0.6845717423133236
0.0030830923617898055,0.6845717423133236
0.0030830923617898055,0.6847547584187409
0.0030881300944071094,0.6847547584187409
0.0030881300944071094,0.6855783308931186
0.0031032432922590203,0.6855783308931186
0.0031032432922590203,0.6856698389458272
0.003113318757493627,0.6856698389458272
0.003113318757493627,0.6857613469985359
0.003118356490110931,0.6857613469985359
0.003118356490110931,0.6858528550512445
0.0031233942227282346,0.6858528550512445
0.0031233942227282346,0.686218887262079
0.003128431955345538,0.686218887262079
0.003128431955345538,0.6863103953147877
0.0031485828858147523,0.6863103953147877
0.0031485828858147523,0.6864934114202049
0.003153620618432056,0.6864934114202049
0.003153620618432056,0.6868594436310396
0.0031586583510493597,0.6868594436310396
0.0031586583510493597,0.6872254758418741
0.003163696083666663,0.6872254758418741
0.003163696083666663,0.6878660322108345
0.003168733816283967,0.6878660322108345
0.003168733816283967,0.6879575402635432
0.0031737715489012705,0.6879575402635432
0.0031737715489012705,0.6881405563689604
0.003178809281518574,0.6881405563689604
0.003183847014135878,0.6882320644216691
0.003183847014135878,0.6884150805270863
0.0031888847467531813,0.6884150805270863
0.0031888847467531813,0.6888726207906296
0.003193922479370485,0.6888726207906296
0.003193922479370485,0.6890556368960469
0.003203997944605092,0.6890556368960469
0.003203997944605092,0.6894216691068814
0.0032090356772223956,0.6894216691068814
0.0032090356772223956,0.6899707174231332
0.0032140734098396995,0.6899707174231332
0.0032140734098396995,0.6900622254758418
0.003219111142457003,0.6900622254758418
0.003219111142457003,0.6902452415812591
0.0032241488750743065,0.6902452415812591
0.0032241488750743065,0.6910688140556369
0.0032291866076916103,0.6910688140556369
0.0032291866076916103,0.6916178623718887
0.003234224340308914,0.6916178623718887
0.003234224340308914,0.6921669106881405
0.003244299805543521,0.6921669106881405
0.003244299805543521,0.6922584187408491
0.003254375270778128,0.6922584187408491
0.003254375270778128,0.6924414348462665
0.0032594130033954316,0.6924414348462665
0.0032594130033954316,0.6926244509516838
0.003269488468630039,0.6926244509516838
0.003269488468630039,0.6928989751098097
0.0032745262012473424,0.6928989751098097
0.0032745262012473424,0.6932650073206442
0.0032795639338646463,0.6932650073206442
0.0032795639338646463,0.6939055636896047
0.0032846016664819498,0.6939055636896047
0.0032846016664819498,0.6942715959004392
0.003294677131716557,0.6942715959004392
0.003294677131716557,0.6944546120058566
0.003309790329568468,0.6944546120058566
0.003309790329568468,0.6946376281112738
0.003324903527420379,0.6946376281112738
0.003324903527420379,0.6947291361639825
0.0033299412600376822,0.6947291361639825
0.0033299412600376822,0.6950036603221084
0.0033349789926549857,0.6950036603221084
0.0033349789926549857,0.695095168374817
0.0033551299231242004,0.695095168374817
0.0033551299231242004,0.6951866764275256
0.0033702431209761113,0.6951866764275256
0.0033702431209761113,0.6953696925329429
0.0033752808535934147,0.6953696925329429
0.0033752808535934147,0.6956442166910688
0.003385356318828022,0.6956442166910688
0.003385356318828022,0.6958272327964861
0.0033903940514453256,0.6958272327964861
0.0033903940514453256,0.696101756954612
0.0034055072492972364,0.696101756954612
0.0034055072492972364,0.6961932650073206
0.0034155827145318433,0.6961932650073206
0.0034155827145318433,0.696376281112738
0.0034206204471491472,0.696376281112738
0.0034206204471491472,0.6967423133235725
0.0034256581797664507,0.6967423133235725
0.0034256581797664507,0.6969253294289898
0.003430695912383754,0.6969253294289898
0.003430695912383754,0.6971998535871157
0.003435733645001058,0.6971998535871157
0.003435733645001058,0.6975658857979502
0.0034407713776183615,0.6975658857979502
0.0034407713776183615,0.6978404099560761
0.003445809110235665,0.6978404099560761
0.003445809110235665,0.698114934114202
0.003460922308087576,0.698114934114202
0.003460922308087576,0.6982979502196194
0.0034659600407048797,0.6982979502196194
0.0034659600407048797,0.698389458272328
0.003470997773322183,0.698389458272328
0.003470997773322183,0.6990300146412884
0.0034760355059394866,0.6990300146412884
0.0034760355059394866,0.6991215226939971
0.0034810732385567905,0.6991215226939971
0.0034810732385567905,0.699396046852123
0.003486110971174094,0.699396046852123
0.003486110971174094,0.6996705710102489
0.0034911487037913975,0.6996705710102489
0.0034911487037913975,0.7000366032210834
0.0034961864364087014,0.7000366032210834
0.0034961864364087014,0.700128111273792
0.0035062619016433083,0.700128111273792
0.0035062619016433083,0.7002196193265008
0.003521375099495219,0.7002196193265008
0.003521375099495219,0.7015922401171303
0.0035314505647298265,0.7015922401171303
0.0035314505647298265,0.7019582723279648
0.00353648829734713,0.7019582723279648
0.00353648829734713,0.7021412884333821
0.0035415260299644334,0.7021412884333821
0.0035415260299644334,0.7022327964860908
0.0035465637625817373,0.7022327964860908
0.0035465637625817373,0.7025073206442167
0.0035566392278163442,0.7025073206442167
0.0035566392278163442,0.7028733528550513
0.003561676960433648,0.7028733528550513
0.003561676960433648,0.7032393850658858
0.0035667146930509516,0.7032393850658858
0.0035667146930509516,0.7037884333821376
0.003571752425668255,0.7037884333821376
0.003571752425668255,0.7042459736456809
0.003576790158285559,0.7042459736456809
0.003576790158285559,0.704703513909224
0.0035818278909028624,0.704703513909224
0.0035818278909028624,0.7047950219619327
0.003586865623520166,0.7047950219619327
0.003586865623520166,0.7048865300146413
0.00359190335613747,0.7048865300146413
0.00359190335613747,0.7058931185944363
0.0035969410887547733,0.7058931185944363
0.0035969410887547733,0.7061676427525623
0.0036019788213720767,0.7061676427525623
0.0036019788213720767,0.7062591508052709
0.003612054286606684,0.7062591508052709
0.003612054286606684,0.7063506588579795
0.0036170920192239876,0.7063506588579795
0.0036170920192239876,0.7064421669106882
0.0036221297518412915,0.7064421669106882
0.0036221297518412915,0.7068997071742313
0.003627167484458595,0.7068997071742313
0.003627167484458595,0.70699121522694
0.0036322052170758984,0.70699121522694
0.0036322052170758984,0.7070827232796486
0.0036372429496932023,0.7070827232796486
0.0036372429496932023,0.7074487554904831
0.003647318414927809,0.7074487554904831
0.003647318414927809,0.7075402635431918
0.003652356147545113,0.7075402635431918
0.003652356147545113,0.707723279648609
0.00366243161277972,0.707723279648609
0.00366243161277972,0.7078147877013177
0.0036674693453970235,0.7078147877013177
0.0036674693453970235,0.7079062957540263
0.0036725070780143274,0.7079062957540263
0.0036725070780143274,0.7084553440702782
0.003677544810631631,0.7084553440702782
0.003677544810631631,0.7091874084919473
0.0036825825432489343,0.7091874084919473
0.0036825825432489343,0.7093704245973645
0.0036876202758662382,0.7093704245973645
0.0036876202758662382,0.7094619326500732
0.0036926580084835417,0.7094619326500732
0.0036926580084835417,0.7096449487554904
0.003697695741100845,0.7096449487554904
0.003697695741100845,0.7097364568081991
0.0037077712063354525,0.7097364568081991
0.0037077712063354525,0.7101939970717424
0.003712808938952756,0.7101939970717424
0.003712808938952756,0.7103770131771596
0.00371784667157006,0.7103770131771596
0.00371784667157006,0.7105600292825769
0.0037228844041873634,0.7105600292825769
0.0037228844041873634,0.7108345534407028
0.003727922136804667,0.7108345534407028
0.003727922136804667,0.71101756954612
0.0037329598694219707,0.71101756954612
0.0037329598694219707,0.7114751098096632
0.0037430353346565776,0.7114751098096632
0.0037430353346565776,0.7115666178623719
0.0037480730672738815,0.7115666178623719
0.0037480730672738815,0.7116581259150805
0.003768223997743096,0.7116581259150805
0.003768223997743096,0.7119326500732065
0.0037732617303603993,0.7119326500732065
0.0037732617303603993,0.7120241581259151
0.00378837492821231,0.7120241581259151
0.00378837492821231,0.7121156661786238
0.0037934126608296136,0.7121156661786238
0.0037934126608296136,0.7124816983894583
0.0037984503934469175,0.7124816983894583
0.0037984503934469175,0.7125732064421669
0.003803488126064221,0.7125732064421669
0.003803488126064221,0.7129392386530015
0.003818601323916132,0.7129392386530015
0.003818601323916132,0.7130307467057101
0.0038236390565334353,0.7130307467057101
0.0038236390565334353,0.7131222547584187
0.003853865452237257,0.7131222547584187
0.003853865452237257,0.7136713030746705
0.003858903184854561,0.7136713030746705
0.003858903184854561,0.7142203513909224
0.0038689786500891677,0.7142203513909224
0.0038689786500891677,0.7143118594436311
0.0038740163827064716,0.7143118594436311
0.0038740163827064716,0.7144033674963397
0.0038840918479410786,0.7144033674963397
0.0038840918479410786,0.7146778916544656
0.003894167313175686,0.7146778916544656
0.003894167313175686,0.7147693997071742
0.0038992050457929894,0.7147693997071742
0.0038992050457929894,0.7149524158125915
0.0039143182436449,0.7149524158125915
0.0039143182436449,0.7152269399707174
0.003919355976262204,0.7152269399707174
0.003919355976262204,0.7154099560761347
0.003924393708879507,0.7154099560761347
0.003924393708879507,0.7155014641288433
0.003929431441496811,0.7155014641288433
0.003929431441496811,0.7155929721815519
0.003934469174114115,0.7155929721815519
0.003934469174114115,0.7156844802342606
0.003944544639348722,0.7156844802342606
0.003944544639348722,0.7160505124450952
0.003949582371966026,0.7160505124450952
0.003949582371966026,0.7161420204978038
0.003954620104583329,0.7161420204978038
0.003954620104583329,0.7163250366032211
0.003959657837200633,0.7163250366032211
0.003959657837200633,0.7165080527086384
0.003964695569817937,0.7165080527086384
0.003964695569817937,0.7167825768667643
0.00396973330243524,0.7167825768667643
0.00396973330243524,0.7168740849194729
0.0039747710350525435,0.7168740849194729
0.0039747710350525435,0.7171486090775988
0.0039798087676698474,0.7171486090775988
0.0039798087676698474,0.717880673499268
0.0039848465002871505,0.717880673499268
0.0039848465002871505,0.7179721815519766
0.003989884232904454,0.7179721815519766
0.003989884232904454,0.7180636896046853
0.003994921965521758,0.7180636896046853
0.003994921965521758,0.7181551976573939
0.003999959698139061,0.7181551976573939
0.003999959698139061,0.7183382137628112
0.004004997430756365,0.7183382137628112
0.004004997430756365,0.718887262079063
0.004010035163373669,0.718887262079063
0.004010035163373669,0.719619326500732
0.004015072895990972,0.719619326500732
0.004015072895990972,0.719893850658858
0.00402514836122558,0.719893850658858
0.00402514836122558,0.7199853587115667
0.004030186093842883,0.7199853587115667
0.004030186093842883,0.7200768667642753
0.004040261559077491,0.7200768667642753
0.004040261559077491,0.7201683748169839
0.004045299291694794,0.7201683748169839
0.004045299291694794,0.7203513909224012
0.004050337024312098,0.7203513909224012
0.004050337024312098,0.7205344070278185
0.004055374756929402,0.7205344070278185
0.004055374756929402,0.7210834553440703
0.0040654502221640085,0.7210834553440703
0.0040654502221640085,0.7211749633967789
0.004080563420015919,0.7211749633967789
0.004080563420015919,0.7212664714494875
0.004085601152633223,0.7212664714494875
0.004085601152633223,0.7213579795021962
0.004105752083102437,0.7213579795021962
0.004105752083102437,0.7215409956076134
0.004120865280954348,0.7215409956076134
0.004120865280954348,0.7218155197657394
0.004135978478806259,0.7218155197657394
0.004135978478806259,0.7219985358711567
0.004141016211423563,0.7219985358711567
0.004141016211423563,0.7220900439238653
0.004146053944040866,0.7220900439238653
0.004146053944040866,0.7224560761346999
0.00415109167665817,0.7224560761346999
0.00415109167665817,0.7226390922401171
0.0041561294092754735,0.7226390922401171
0.0041561294092754735,0.7228221083455344
0.00416620487451008,0.7228221083455344
0.00416620487451008,0.7230051244509517
0.004171242607127384,0.7230051244509517
0.004171242607127384,0.7230966325036603
0.004181318072361991,0.7230966325036603
0.004181318072361991,0.7232796486090776
0.004191393537596598,0.7232796486090776
0.004191393537596598,0.7238286969253295
0.004211544468065813,0.7238286969253295
0.004211544468065813,0.7240117130307467
0.004216582200683117,0.7240117130307467
0.004216582200683117,0.724194729136164
0.004226657665917724,0.724194729136164
0.004226657665917724,0.7242862371888726
0.004231695398535028,0.7242862371888726
0.004231695398535028,0.7243777452415813
0.0042468085963869385,0.7243777452415813
0.0042468085963869385,0.7244692532942899
0.004271997259473456,0.7244692532942899
0.004271997259473456,0.7245607613469985
0.004282072724708063,0.7245607613469985
0.004282072724708063,0.7246522693997072
0.004287110457325367,0.7246522693997072
0.004287110457325367,0.7250183016105417
0.004302223655177278,0.7250183016105417
0.004302223655177278,0.7253843338213762
0.004312299120411885,0.7253843338213762
0.004312299120411885,0.7254758418740849
0.004317336853029189,0.7254758418740849
0.004317336853029189,0.7255673499267935
0.004322374585646493,0.7255673499267935
0.004322374585646493,0.7258418740849195
0.004327412318263796,0.7258418740849195
0.004327412318263796,0.7259333821376281
0.0043324500508810995,0.7259333821376281
0.0043324500508810995,0.7261163982430454
0.004337487783498403,0.7261163982430454
0.004337487783498403,0.7262994143484627
0.0043425255161157065,0.7262994143484627
0.0043425255161157065,0.7263909224011713
0.00434756324873301,0.7263909224011713
0.00434756324873301,0.72648243045388
0.004352600981350314,0.72648243045388
0.004352600981350314,0.7265739385065886
0.004362676446584921,0.7265739385065886
0.004362676446584921,0.7266654465592972
0.004367714179202225,0.7266654465592972
0.004367714179202225,0.7267569546120058
0.004372751911819528,0.7267569546120058
0.004372751911819528,0.7271229868228404
0.004387865109671439,0.7271229868228404
0.004387865109671439,0.727214494875549
0.00440297830752335,0.727214494875549
0.00440297830752335,0.7273975109809663
0.004408016040140654,0.7273975109809663
0.004408016040140654,0.7277635431918009
0.004418091505375261,0.7277635431918009
0.004418091505375261,0.7278550512445096
0.004438242435844475,0.7278550512445096
0.004438242435844475,0.7283125915080527
0.004443280168461778,0.7283125915080527
0.004443280168461778,0.7284040995607614
0.004463431098930993,0.7284040995607614
0.004463431098930993,0.72849560761347
0.004468468831548297,0.72849560761347
0.004468468831548297,0.7285871156661786
0.0044735065641656,0.7285871156661786
0.0044735065641656,0.7286786237188873
0.004478544296782904,0.7286786237188873
0.004478544296782904,0.7288616398243045
0.004493657494634815,0.7288616398243045
0.004493657494634815,0.7289531478770132
0.004498695227252119,0.7289531478770132
0.004498695227252119,0.729227672035139
0.004503732959869422,0.729227672035139
0.004503732959869422,0.7293191800878477
0.0045087706924867256,0.7293191800878477
0.0045087706924867256,0.7294106881405563
0.0045188461577213325,0.7294106881405563
0.0045188461577213325,0.7296852122986823
0.004523883890338636,0.7296852122986823
0.004523883890338636,0.7298682284040996
0.00452892162295594,0.7298682284040996
0.00452892162295594,0.7300512445095169
0.004549072553425154,0.7300512445095169
0.004549072553425154,0.7301427525622255
0.004554110286042458,0.7301427525622255
0.004554110286042458,0.73050878477306
0.004559148018659762,0.73050878477306
0.004559148018659762,0.7306002928257687
0.004564185751277065,0.7306002928257687
0.004564185751277065,0.7313323572474377
0.004569223483894369,0.7313323572474377
0.004569223483894369,0.7315153733528551
0.004574261216511673,0.7315153733528551
0.004574261216511673,0.7320644216691069
0.004579298949128976,0.7320644216691069
0.004579298949128976,0.7325219619326501
0.004594412146980887,0.7325219619326501
0.004594412146980887,0.7327049780380673
0.0045994498795981905,0.7327049780380673
0.0045994498795981905,0.7329795021961932
0.0046095253448327975,0.7329795021961932
0.0046095253448327975,0.7330710102489019
0.004614563077450101,0.7330710102489019
0.004614563077450101,0.7332540263543191
0.004624638542684708,0.7332540263543191
0.004624638542684708,0.733803074670571
0.004629676275302012,0.733803074670571
0.004629676275302012,0.7338945827232797
0.00465486493838853,0.7338945827232797
0.00465486493838853,0.7339860907759883
0.004659902671005834,0.7339860907759883
0.004659902671005834,0.7340775988286969
0.004664940403623137,0.7340775988286969
0.004664940403623137,0.7342606149341142
0.004675015868857745,0.7342606149341142
0.004675015868857745,0.7344436310395315
0.004680053601475048,0.7344436310395315
0.004680053601475048,0.7345351390922401
0.0046901290667096555,0.7345351390922401
0.0046901290667096555,0.7346266471449487
0.0046951667993269585,0.7346266471449487
0.0046951667993269585,0.7347181551976574
0.0047002045319442624,0.7347181551976574
0.0047002045319442624,0.734809663250366
0.00472539319503078,0.734809663250366
0.00472539319503078,0.7349926793557833
0.004735468660265388,0.7349926793557833
0.004735468660265388,0.7353587115666179
0.004740506392882691,0.7353587115666179
0.004740506392882691,0.7358162518301611
0.004745544125499995,0.7358162518301611
0.004745544125499995,0.7359077598828697
0.004750581858117299,0.7359077598828697
0.004750581858117299,0.736090775988287
0.004755619590734602,0.736090775988287
0.004755619590734602,0.7361822840409956
0.004770732788586513,0.7361822840409956
0.004770732788586513,0.7362737920937042
0.0047808082538211205,0.7362737920937042
0.0047808082538211205,0.7363653001464129
0.004790883719055727,0.7363653001464129
0.004790883719055727,0.7364568081991215
0.004800959184290334,0.7364568081991215
0.004805996916907638,0.7365483162518301
0.004811034649524942,0.7365483162518301
0.004811034649524942,0.7366398243045388
0.004816072382142245,0.7366398243045388
0.004816072382142245,0.736822840409956
0.004831185579994156,0.736822840409956
0.004831185579994156,0.7369143484626647
0.00483622331261146,0.7369143484626647
0.00483622331261146,0.7370058565153733
0.004841261045228764,0.7370058565153733
0.004841261045228764,0.737097364568082
0.004846298777846067,0.737097364568082
0.004846298777846067,0.7371888726207906
0.004861411975697978,0.7371888726207906
0.004861411975697978,0.7374633967789166
0.004886600638784496,0.7374633967789166
0.004886600638784496,0.7376464128843339
0.004891638371401799,0.7376464128843339
0.004891638371401799,0.7379209370424598
0.004896676104019103,0.7379209370424598
0.004896676104019103,0.7380124450951684
0.00490675156925371,0.7380124450951684
0.00490675156925371,0.7381954612005857
0.004911789301871014,0.7381954612005857
0.004911789301871014,0.7382869692532943
0.004916827034488317,0.7382869692532943
0.004916827034488317,0.7383784773060029
0.004921864767105621,0.7383784773060029
0.004921864767105621,0.7386530014641288
0.004931940232340228,0.7386530014641288
0.004931940232340228,0.7387445095168375
0.004936977964957532,0.7387445095168375
0.004936977964957532,0.7388360175695461
0.004947053430192139,0.7388360175695461
0.004947053430192139,0.739110541727672
0.0049571288954267465,0.739110541727672
0.0049571288954267465,0.7392935578330894
0.0049621666280440496,0.7392935578330894
0.0049621666280440496,0.739385065885798
0.0049672043606613535,0.739385065885798
0.0049672043606613535,0.7396595900439239
0.004972242093278657,0.7396595900439239
0.004972242093278657,0.7399341142020498
0.00497727982589596,0.7399341142020498
0.00497727982589596,0.7400256222547584
0.004992393023747871,0.7400256222547584
0.004992393023747871,0.7401171303074671
0.005002468488982479,0.7401171303074671
0.005002468488982479,0.7409407027818448
0.005007506221599782,0.7409407027818448
0.005007506221599782,0.7410322108345534
0.005012543954217086,0.7410322108345534
0.005012543954217086,0.741398243045388
0.005022619419451693,0.741398243045388
0.005022619419451693,0.7414897510980967
0.005027657152068997,0.7414897510980967
0.005027657152068997,0.7417642752562226
0.005037732617303604,0.7417642752562226
0.005037732617303604,0.7419472913616398
0.005042770349920908,0.7419472913616398
0.005042770349920908,0.7421303074670571
0.0050478080825382115,0.7421303074670571
0.0050478080825382115,0.7423133235724744
0.005057883547772818,0.7423133235724744
0.005057883547772818,0.742404831625183
0.005062921280390122,0.742404831625183
0.005062921280390122,0.7424963396778916
0.005078034478242033,0.7424963396778916
0.005078034478242033,0.7425878477306003
0.005083072210859336,0.7425878477306003
0.005083072210859336,0.7427708638360175
0.005098185408711247,0.7427708638360175
0.005098185408711247,0.7433199121522694
0.005103223141328551,0.7433199121522694
0.005103223141328551,0.7437774524158126
0.005108260873945855,0.7437774524158126
0.005108260873945855,0.7438689604685212
0.005118336339180462,0.7438689604685212
0.005118336339180462,0.7440519765739385
0.005128411804415069,0.7440519765739385
0.005128411804415069,0.744418008784773
0.0051435250022669795,0.744418008784773
0.0051435250022669795,0.7445095168374817
0.005163675932736194,0.7445095168374817
0.005163675932736194,0.7446010248901903
0.005168713665353498,0.7446010248901903
0.005168713665353498,0.7446925329428989
0.005173751397970801,0.7446925329428989
0.005173751397970801,0.7449670571010248
0.005193902328440016,0.7449670571010248
0.005193902328440016,0.7451500732064422
0.005198940061057319,0.7451500732064422
0.005198940061057319,0.7453330893118595
0.0052241287241438375,0.7453330893118595
0.0052241287241438375,0.7455161054172768
0.0052291664567611406,0.7455161054172768
0.0052291664567611406,0.7456076134699854
0.005239241921995748,0.7456076134699854
0.005239241921995748,0.745699121522694
0.005244279654613051,0.745699121522694
0.005244279654613051,0.7457906295754027
0.005249317387230355,0.7457906295754027
0.005249317387230355,0.7465226939970717
0.005259392852464962,0.7465226939970717
0.005259392852464962,0.7466142020497804
0.005289619248168784,0.7466142020497804
0.005289619248168784,0.746705710102489
0.005294656980786088,0.746705710102489
0.005294656980786088,0.7468887262079063
0.005309770178637999,0.7468887262079063
0.005309770178637999,0.7470717423133236
0.0053148079112553025,0.7470717423133236
0.0053148079112553025,0.7472547584187409
0.0053198456438726055,0.7472547584187409
0.0053198456438726055,0.7475292825768668
0.005329921109107213,0.7475292825768668
0.005329921109107213,0.7478953147877013
0.005334958841724516,0.7478953147877013
0.005334958841724516,0.74798682284041
0.005350072039576427,0.74798682284041
0.005350072039576427,0.7480783308931186
0.005370222970045642,0.7480783308931186
0.005370222970045642,0.7481698389458272
0.005375260702662946,0.7481698389458272
0.005375260702662946,0.7483528550512445
0.005380298435280249,0.7483528550512445
0.005380298435280249,0.748718887262079
0.005400449365749464,0.748718887262079
0.005400449365749464,0.7488103953147877
0.0054054870983667675,0.7488103953147877
0.0054054870983667675,0.7491764275256223
0.0054105248309840705,0.7491764275256223
0.0054105248309840705,0.7494509516837482
0.005415562563601374,0.7495424597364568
0.005415562563601374,0.7497254758418741
0.005420600296218678,0.7497254758418741
0.005420600296218678,0.7498169838945827
0.005425638028835981,0.7498169838945827
0.005425638028835981,0.7501830161054173
0.005430675761453285,0.7501830161054173
0.005430675761453285,0.7503660322108345
0.005435713494070589,0.7503660322108345
0.005435713494070589,0.7506405563689604
0.005445788959305196,0.7506405563689604
0.005445788959305196,0.7508235724743777
0.00546593988977441,0.7508235724743777
0.00546593988977441,0.7509150805270863
0.005470977622391714,0.7509150805270863
0.005470977622391714,0.7510065885797951
0.005481053087626321,0.7510065885797951
0.005481053087626321,0.7511896046852123
0.0054911285528609285,0.7511896046852123
0.0054911285528609285,0.7514641288433382
0.005496166285478232,0.7514641288433382
0.005496166285478232,0.75201317715959
0.0055012040180955355,0.75201317715959
0.0055012040180955355,0.7521046852122987
0.005506241750712839,0.7521046852122987
0.005506241750712839,0.7521961932650073
0.005516317215947446,0.7521961932650073
0.005516317215947446,0.7522877013177159
0.00552135494856475,0.7522877013177159
0.00552135494856475,0.7525622254758418
0.005526392681182053,0.7525622254758418
0.005526392681182053,0.7526537335285505
0.005531430413799357,0.7526537335285505
0.005531430413799357,0.7527452415812591
0.005551581344268572,0.7527452415812591
0.005551581344268572,0.7528367496339677
0.005556619076885875,0.7528367496339677
0.005556619076885875,0.7529282576866764
0.005561656809503179,0.7529282576866764
0.005561656809503179,0.7531112737920937
0.005571732274737786,0.7531112737920937
0.005571732274737786,0.7532027818448024
0.0055918832052070004,0.7532027818448024
0.0055918832052070004,0.753294289897511
0.005606996403058911,0.753294289897511
0.005606996403058911,0.7533857979502196
0.005622109600910822,0.7533857979502196
0.005622109600910822,0.7536603221083455
0.005632185066145429,0.7536603221083455
0.005632185066145429,0.7540263543191801
0.005637222798762733,0.7540263543191801
0.005637222798762733,0.7541178623718887
0.005652335996614644,0.7541178623718887
0.005652335996614644,0.754300878477306
0.005662411461849251,0.754300878477306
0.005662411461849251,0.7549414348462665
0.0056724869270838585,0.7549414348462665
0.0056724869270838585,0.7550329428989752
0.0056775246597011615,0.7550329428989752
0.0056775246597011615,0.7551244509516838
0.005682562392318465,0.7551244509516838
0.005682562392318465,0.7552159590043924
0.005707751055404983,0.7552159590043924
0.005707751055404983,0.7553074670571011
0.005712788788022287,0.7553074670571011
0.005712788788022287,0.7553989751098097
0.005722864253256894,0.7553989751098097
0.005722864253256894,0.7557650073206442
0.005727901985874198,0.7557650073206442
0.005727901985874198,0.7561310395314788
0.005737977451108805,0.7561310395314788
0.005737977451108805,0.7562225475841874
0.00577324157942993,0.7562225475841874
0.00577324157942993,0.7564055636896047
0.005793392509899144,0.7564055636896047
0.005793392509899144,0.7568631039531479
0.005808505707751055,0.7568631039531479
0.005808505707751055,0.7570461200585652
0.005818581172985663,0.7570461200585652
0.005818581172985663,0.7571376281112738
0.005823618905602966,0.7571376281112738
0.005823618905602966,0.7572291361639825
0.00582865663822027,0.7572291361639825
0.00582865663822027,0.757595168374817
0.005833694370837574,0.757595168374817
0.005833694370837574,0.7579612005856515
0.005838732103454877,0.7579612005856515
0.005838732103454877,0.7582357247437774
0.005843769836072181,0.7582357247437774
0.005843769836072181,0.7583272327964861
0.0058488075686894845,0.7583272327964861
0.0058488075686894845,0.7586932650073206
0.0058538453013067876,0.7586932650073206
0.0058538453013067876,0.758876281112738
0.0058588830339240915,0.758876281112738
0.0058588830339240915,0.7589677891654466
0.005863920766541395,0.7589677891654466
0.005863920766541395,0.7590592972181552
0.005868958499158698,0.7590592972181552
0.005868958499158698,0.7591508052708639
0.005873996231776002,0.7591508052708639
0.005873996231776002,0.7593338213762811
0.005884071697010609,0.7593338213762811
0.005884071697010609,0.7594253294289898
0.005894147162245217,0.7594253294289898
0.005894147162245217,0.7597913616398243
0.00589918489486252,0.7597913616398243
0.00589918489486252,0.7598828696925329
0.005904222627479824,0.7598828696925329
0.005904222627479824,0.7599743777452416
0.005909260360097128,0.7599743777452416
0.005909260360097128,0.7602489019033675
0.005924373557949039,0.7602489019033675
0.005924373557949039,0.760614934114202
0.005929411290566342,0.760614934114202
0.005929411290566342,0.760889458272328
0.0059445244884182525,0.760889458272328
0.0059445244884182525,0.7609809663250366
0.005949562221035556,0.7609809663250366
0.005949562221035556,0.7611639824304539
0.00595459995365286,0.7611639824304539
0.00595459995365286,0.7612554904831625
0.005959637686270163,0.7612554904831625
0.005964675418887467,0.7613469985358712
0.005994901814591289,0.7613469985358712
0.005994901814591289,0.7618045387994143
0.005999939547208592,0.7618045387994143
0.005999939547208592,0.761896046852123
0.0060100150124432,0.761896046852123
0.0060100150124432,0.7621705710102489
0.006025128210295111,0.7621705710102489
0.006025128210295111,0.7623535871156661
0.006040241408147021,0.7623535871156661
0.006040241408147021,0.7624450951683748
0.006070467803850843,0.7624450951683748
0.006070467803850843,0.7625366032210834
0.00608054326908545,0.7625366032210834
0.00608054326908545,0.762628111273792
0.006090618734320057,0.762628111273792
0.006090618734320057,0.7627196193265008
0.006095656466937361,0.7627196193265008
0.006095656466937361,0.762902635431918
0.006100694199554665,0.762902635431918
0.006100694199554665,0.7630856515373353
0.006105731932171968,0.7630856515373353
0.006105731932171968,0.763177159590044
0.0061158073974065755,0.763177159590044
0.0061158073974065755,0.7632686676427526
0.0061258828626411825,0.7632686676427526
0.0061258828626411825,0.7634516837481699
0.006130920595258486,0.7634516837481699
0.006130920595258486,0.7636346998535871
0.006135958327875789,0.7636346998535871
0.006135958327875789,0.7638177159590044
0.006140996060493093,0.7638177159590044
0.006140996060493093,0.763909224011713
0.006146033793110397,0.763909224011713
0.006146033793110397,0.7640922401171303
0.0061510715257277,0.7640922401171303
0.0061510715257277,0.7641837481698389
0.006156109258345004,0.7641837481698389
0.006156109258345004,0.7642752562225475
0.006166184723579611,0.7642752562225475
0.006166184723579611,0.7643667642752562
0.006171222456196915,0.7643667642752562
0.006171222456196915,0.7646412884333821
0.006176260188814219,0.7646412884333821
0.006176260188814219,0.7650073206442167
0.006186335654048826,0.7650073206442167
0.006186335654048826,0.7650988286969254
0.00619137338666613,0.7650988286969254
0.00619137338666613,0.7653733528550513
0.0062115243171353435,0.7653733528550513
0.0062115243171353435,0.7655563689604685
0.0062165620497526474,0.7655563689604685
0.0062165620497526474,0.7659224011713031
0.006221599782369951,0.7659224011713031
0.006221599782369951,0.7661054172767203
0.006226637514987254,0.7661054172767203
0.006226637514987254,0.7662884333821376
0.006236712980221862,0.7662884333821376
0.006236712980221862,0.7663799414348462
0.006241750712839165,0.7663799414348462
0.006241750712839165,0.7664714494875549
0.006251826178073772,0.7664714494875549
0.006251826178073772,0.7665629575402635
0.006256863910691076,0.7665629575402635
0.006256863910691076,0.7666544655929722
0.00626190164330838,0.7666544655929722
0.00626190164330838,0.7668374816983895
0.006271977108542987,0.7668374816983895
0.006271977108542987,0.767203513909224
0.006277014841160291,0.767203513909224
0.006277014841160291,0.7672950219619327
0.006282052573777594,0.7672950219619327
0.006282052573777594,0.7673865300146413
0.006287090306394898,0.7673865300146413
0.006287090306394898,0.7674780380673499
0.0063122789694814154,0.7674780380673499
0.0063122789694814154,0.7676610541727672
0.006322354434716023,0.7676610541727672
0.006322354434716023,0.7678440702781845
0.00633242989995063,0.7678440702781845
0.00633242989995063,0.7680270863836017
0.006347543097802541,0.7680270863836017
0.006347543097802541,0.7684846266471449
0.006352580830419845,0.7684846266471449
0.006352580830419845,0.7688506588579795
0.006357618563037148,0.7688506588579795
0.006357618563037148,0.7689421669106882
0.006362656295654452,0.7689421669106882
0.006362656295654452,0.7691251830161054
0.006397920423975577,0.7691251830161054
0.006397920423975577,0.7692166910688141
0.00640295815659288,0.7692166910688141
0.00640295815659288,0.7693081991215227
0.006407995889210184,0.7693081991215227
0.006407995889210184,0.7693997071742313
0.006448297750148613,0.7693997071742313
0.006448297750148613,0.7695827232796486
0.006463410948000524,0.7695827232796486
0.006463410948000524,0.7697657393850659
0.0064734864132351315,0.7697657393850659
0.0064734864132351315,0.7698572474377745
0.0064785241458524346,0.7698572474377745
0.0064785241458524346,0.7699487554904831
0.0064835618784697385,0.7699487554904831
0.0064835618784697385,0.7703147877013177
0.006488599611087042,0.7703147877013177
0.006488599611087042,0.7706808199121523
0.006493637343704345,0.7706808199121523
0.006493637343704345,0.7708638360175696
0.006503712808938953,0.7708638360175696
0.006503712808938953,0.7711383601756955
0.006508750541556256,0.7711383601756955
0.006508750541556256,0.7712298682284041
0.00651378827417356,0.7712298682284041
0.00651378827417356,0.7713213762811127
0.006518826006790863,0.7713213762811127
0.006518826006790863,0.7715959004392386
0.006549052402494685,0.7715959004392386
0.006549052402494685,0.7717789165446559
0.006559127867729293,0.7717789165446559
0.006559127867729293,0.7718704245973645
0.006564165600346596,0.7718704245973645
0.006564165600346596,0.7719619326500732
0.00658431653081581,0.7719619326500732
0.00658431653081581,0.7720534407027818
0.006589354263433114,0.7720534407027818
0.006589354263433114,0.7721449487554904
0.006594391996050417,0.7721449487554904
0.006594391996050417,0.7722364568081991
0.006609505193902328,0.7722364568081991
0.006609505193902328,0.7723279648609077
0.006614542926519632,0.7723279648609077
0.006614542926519632,0.7725109809663251
0.006619580659136936,0.7725109809663251
0.006619580659136936,0.7726024890190337
0.006629656124371543,0.7726024890190337
0.006629656124371543,0.7726939970717424
0.006634693856988847,0.7726939970717424
0.006634693856988847,0.7730600292825769
0.006644769322223454,0.7730600292825769
0.006644769322223454,0.7731515373352855
0.006654844787458061,0.7731515373352855
0.006654844787458061,0.7734260614934114
0.006664920252692668,0.7734260614934114
0.006664920252692668,0.7736090775988287
0.006669957985309971,0.7736090775988287
0.006669957985309971,0.7737005856515373
0.00669514664839649,0.7737005856515373
0.00669514664839649,0.7741581259150805
0.006700184381013793,0.7741581259150805
0.006700184381013793,0.7742496339677891
0.006705222113631097,0.7742496339677891
0.006705222113631097,0.7743411420204978
0.006725373044100312,0.7743411420204978
0.006725373044100312,0.7745241581259151
0.006730410776717615,0.7745241581259151
0.006730410776717615,0.7747071742313324
0.006745523974569526,0.7747071742313324
0.006745523974569526,0.7749816983894583
0.006755599439804133,0.7749816983894583
0.006755599439804133,0.7750732064421669
0.00676567490503874,0.7750732064421669
0.00676567490503874,0.7753477306002928
0.006775750370273347,0.7753477306002928
0.006775750370273347,0.7754392386530015
0.006785825835507954,0.7754392386530015
0.006785825835507954,0.7756222547584187
0.006790863568125258,0.7756222547584187
0.006790863568125258,0.7760797950219619
0.006795901300742562,0.7760797950219619
0.006795901300742562,0.7761713030746705
0.006800939033359865,0.7761713030746705
0.006800939033359865,0.7764458272327965
0.00682108996382908,0.7764458272327965
0.00682108996382908,0.7766288433382138
0.006826127696446384,0.7766288433382138
0.006826127696446384,0.7767203513909224
0.006831165429063687,0.7767203513909224
0.006831165429063687,0.7768118594436311
0.006876505022619419,0.7768118594436311
0.006876505022619419,0.7769033674963397
0.006881542755236723,0.7769033674963397
0.006881542755236723,0.7769948755490483
0.006886580487854027,0.7769948755490483
0.006886580487854027,0.777086383601757
0.00689161822047133,0.777086383601757
0.00689161822047133,0.7771778916544656
0.006901693685705938,0.7771778916544656
0.006901693685705938,0.7773609077598829
0.006911769150940545,0.7773609077598829
0.006911769150940545,0.7774524158125915
0.00694703327926167,0.7774524158125915
0.00694703327926167,0.7775439238653001
0.006962146477113581,0.7775439238653001
0.006962146477113581,0.7777269399707174
0.006972221942348188,0.7777269399707174
0.006972221942348188,0.777818448023426
0.006977259674965492,0.777818448023426
0.006977259674965492,0.7781844802342606
0.006992372872817403,0.7781844802342606
0.006992372872817403,0.7782759882869692
0.0070175615359039205,0.7782759882869692
0.0070175615359039205,0.7783674963396779
0.007027637001138527,0.7783674963396779
0.007027637001138527,0.7784590043923866
0.007032674733755831,0.7784590043923866
0.007032674733755831,0.7787335285505125
0.007037712466373135,0.7787335285505125
0.007037712466373135,0.7788250366032211
0.007052825664225045,0.7788250366032211
0.007052825664225045,0.779099560761347
0.007067938862076956,0.779099560761347
0.007067938862076956,0.7791910688140556
0.007078014327311564,0.7791910688140556
0.007078014327311564,0.7792825768667643
0.007083052059928867,0.7792825768667643
0.007083052059928867,0.7793740849194729
0.007093127525163475,0.7793740849194729
0.007093127525163475,0.7799231332357247
0.007098165257780778,0.7799231332357247
0.007098165257780778,0.7800146412884333
0.0071082407230153855,0.7800146412884333
0.0071082407230153855,0.780106149341142
0.007118316188249992,0.780106149341142
0.007118316188249992,0.7801976573938506
0.007133429386101903,0.7801976573938506
0.007133429386101903,0.7802891654465594
0.007148542583953814,0.7802891654465594
0.007148542583953814,0.7804721815519766
0.007158618049188421,0.7804721815519766
0.007158618049188421,0.7806551976573939
0.00718380671227494,0.7806551976573939
0.00718380671227494,0.7807467057101025
0.0071938821775095465,0.7807467057101025
0.0071938821775095465,0.7809297218155198
0.00719891991012685,0.7809297218155198
0.00719891991012685,0.7810212298682284
0.007208995375361457,0.7810212298682284
0.007208995375361457,0.781387262079063
0.007214033107978761,0.781387262079063
0.007214033107978761,0.7817532942898975
0.007219070840596064,0.7817532942898975
0.007219070840596064,0.7818448023426061
0.007239221771065279,0.7818448023426061
0.007239221771065279,0.7819363103953147
0.00725433496891719,0.7819363103953147
0.00725433496891719,0.7820278184480234
0.007264410434151797,0.7820278184480234
0.007264410434151797,0.782119326500732
0.007269448166769101,0.782119326500732
0.007269448166769101,0.7822108345534406
0.007274485899386405,0.7822108345534406
0.007274485899386405,0.7823023426061494
0.0072845613646210115,0.7823023426061494
0.0072845613646210115,0.782393850658858
0.007294636829855618,0.782393850658858
0.007294636829855618,0.7826683748169839
0.007304712295090226,0.7826683748169839
0.007304712295090226,0.7833089311859444
0.007314787760324833,0.7833089311859444
0.007314787760324833,0.783400439238653
0.007329900958176744,0.783400439238653
0.007329900958176744,0.7835834553440703
0.007339976423411351,0.7835834553440703
0.007339976423411351,0.7836749633967789
0.007350051888645958,0.7836749633967789
0.007350051888645958,0.7838579795021962
0.007360127353880566,0.7838579795021962
0.007360127353880566,0.7839494875549048
0.0073752405517324765,0.7839494875549048
0.0073752405517324765,0.7840409956076134
0.007390353749584387,0.7840409956076134
0.007390353749584387,0.7841325036603221
0.00739539148220169,0.7841325036603221
0.00739539148220169,0.7843155197657394
0.007415542412670905,0.7843155197657394
0.007415542412670905,0.7844070278184481
0.007420580145288209,0.7844070278184481
0.007420580145288209,0.7845900439238653
0.007450806540992031,0.7845900439238653
0.007450806540992031,0.7847730600292826
0.007455844273609334,0.7847730600292826
0.007455844273609334,0.7848645680819912
0.0074608820062266375,0.7848645680819912
0.0074608820062266375,0.7849560761346999
0.0074659197388439414,0.7849560761346999
0.0074659197388439414,0.7850475841874085
0.007475995204078548,0.7850475841874085
0.007475995204078548,0.7851390922401171
0.007481032936695852,0.7851390922401171
0.007481032936695852,0.7853221083455344
0.007486070669313155,0.7853221083455344
0.007486070669313155,0.785413616398243
0.007496146134547763,0.785413616398243
0.007496146134547763,0.7855966325036603
0.007511259332399674,0.7855966325036603
0.007511259332399674,0.7856881405563689
0.007516297065016977,0.7856881405563689
0.007516297065016977,0.7857796486090776
0.007526372530251585,0.7857796486090776
0.007526372530251585,0.7858711566617862
0.007531410262868888,0.7858711566617862
0.007531410262868888,0.7862371888726208
0.0075515611933381025,0.7862371888726208
0.0075515611933381025,0.786694729136164
0.0075616366585727094,0.786694729136164
0.0075616366585727094,0.7868777452415813
0.007566674391190013,0.7868777452415813
0.007566674391190013,0.7869692532942899
0.007571712123807317,0.7869692532942899
0.007571712123807317,0.7870607613469985
0.007581787589041924,0.7870607613469985
0.007581787589041924,0.7871522693997072
0.007596900786893835,0.7871522693997072
0.007596900786893835,0.7877928257686676
0.007601938519511138,0.7877928257686676
0.007601938519511138,0.7879758418740849
0.007606976252128442,0.7879758418740849
0.007606976252128442,0.7881588579795022
0.007612013984745746,0.7881588579795022
0.007612013984745746,0.7883418740849195
0.007617051717363049,0.7883418740849195
0.007617051717363049,0.7885248901903368
0.007622089449980353,0.7885248901903368
0.007622089449980353,0.788707906295754
0.007637202647832264,0.788707906295754
0.007637202647832264,0.7887994143484627
0.0076422403804495675,0.7887994143484627
0.0076422403804495675,0.78898243045388
0.007667429043536085,0.78898243045388
0.007667429043536085,0.7890739385065886
0.007692617706622603,0.7890739385065886
0.007692617706622603,0.7891654465592972
0.007697655439239907,0.7891654465592972
0.007697655439239907,0.7894399707174231
0.007702693171857211,0.7894399707174231
0.007702693171857211,0.7898060029282576
0.007717806369709122,0.7898060029282576
0.007717806369709122,0.7898975109809663
0.007722844102326425,0.7898975109809663
0.007722844102326425,0.7899890190336749
0.0077329195675610325,0.7899890190336749
0.0077329195675610325,0.7902635431918009
0.0077379573001783355,0.7902635431918009
0.0077379573001783355,0.7903550512445096
0.007742995032795639,0.7903550512445096
0.007742995032795639,0.7905380673499268
0.007753070498030246,0.7905380673499268
0.007753070498030246,0.7908125915080527
0.00775810823064755,0.7908125915080527
0.00775810823064755,0.7909040995607614
0.007763145963264854,0.7909040995607614
0.007763145963264854,0.7910871156661786
0.007768183695882157,0.7910871156661786
0.007768183695882157,0.7913616398243045
0.007783296893734068,0.7913616398243045
0.007783296893734068,0.7914531478770132
0.007788334626351372,0.7914531478770132
0.007788334626351372,0.791727672035139
0.007793372358968676,0.791727672035139
0.007793372358968676,0.7918191800878477
0.007798410091585979,0.7918191800878477
0.007798410091585979,0.7920021961932651
0.007803447824203283,0.7920021961932651
0.007803447824203283,0.7920937042459737
0.00781352328943789,0.7920937042459737
0.00781352328943789,0.792276720351391
0.0078286364872898,0.792276720351391
0.0078286364872898,0.7923682284040996
0.007838711952524408,0.7923682284040996
0.007838711952524408,0.7924597364568082
0.007848787417759014,0.7924597364568082
0.007848787417759014,0.7925512445095169
0.007853825150376319,0.7925512445095169
0.007853825150376319,0.7929172767203514
0.007873976080845533,0.7929172767203514
0.007873976080845533,0.79300878477306
0.00788405154608014,0.79300878477306
0.00788405154608014,0.7931002928257687
0.007889089278697444,0.7931002928257687
0.007889089278697444,0.7931918008784773
0.007894127011314747,0.7931918008784773
0.007894127011314747,0.7932833089311859
0.007904202476549355,0.7932833089311859
0.007904202476549355,0.7938323572474377
0.007909240209166658,0.7938323572474377
0.007909240209166658,0.7939238653001464
0.007914277941783962,0.7939238653001464
0.007914277941783962,0.7941983894582724
0.007919315674401265,0.7941983894582724
0.007919315674401265,0.7945644216691069
0.007944504337487784,0.7945644216691069
0.007944504337487784,0.7946559297218155
0.007969693000574301,0.7946559297218155
0.007969693000574301,0.7948389458272328
0.007984806198426212,0.7948389458272328
0.007984806198426212,0.7949304538799414
0.007989843931043517,0.7949304538799414
0.007989843931043517,0.7950219619326501
0.00799488166366082,0.7950219619326501
0.00799488166366082,0.7952049780380673
0.007999919396278123,0.7952049780380673
0.007999919396278123,0.795296486090776
0.008004957128895427,0.795296486090776
0.008004957128895427,0.7954795021961932
0.008015032594130033,0.7954795021961932
0.008015032594130033,0.7955710102489019
0.008020070326747338,0.7955710102489019
0.008020070326747338,0.7957540263543191
0.008035183524599249,0.7957540263543191
0.008035183524599249,0.7958455344070278
0.008040221257216552,0.7958455344070278
0.008040221257216552,0.7960285505124451
0.008060372187685766,0.7960285505124451
0.008060372187685766,0.7962115666178624
0.00806540992030307,0.7962115666178624
0.00806540992030307,0.7963945827232797
0.008070447652920374,0.7963945827232797
0.008070447652920374,0.7964860907759883
0.008085560850772285,0.7964860907759883
0.008085560850772285,0.7965775988286969
0.00813593817694532,0.7965775988286969
0.00813593817694532,0.7967606149341142
0.008156089107414536,0.7967606149341142
0.008156089107414536,0.7968521229868228
0.008171202305266446,0.7968521229868228
0.008171202305266446,0.7969436310395315
0.00817624003788375,0.7969436310395315
0.00817624003788375,0.7970351390922401
0.008181277770501053,0.7970351390922401
0.008181277770501053,0.7971266471449487
0.008186315503118357,0.7971266471449487
0.008186315503118357,0.7972181551976574
0.008211504166204874,0.7972181551976574
0.008211504166204874,0.797309663250366
0.008221579631439482,0.797309663250366
0.008221579631439482,0.7974926793557833
0.008241730561908696,0.7974926793557833
0.008241730561908696,0.7976756954612005
0.00826188149237791,0.7976756954612005
0.00826188149237791,0.7977672035139092
0.008271956957612518,0.7977672035139092
0.008271956957612518,0.7979502196193266
0.00827699469022982,0.7979502196193266
0.00827699469022982,0.7980417276720352
0.008282032422847125,0.7980417276720352
0.008282032422847125,0.7982247437774525
0.008312258818550947,0.7982247437774525
0.008312258818550947,0.7983162518301611
0.00831729655116825,0.7983162518301611
0.00831729655116825,0.7984077598828697
0.008322334283785553,0.7984077598828697
0.008322334283785553,0.7984992679355783
0.008327372016402858,0.7984992679355783
0.008327372016402858,0.7986822840409956
0.008337447481637464,0.7986822840409956
0.008337447481637464,0.7987737920937042
0.008347522946872072,0.7987737920937042
0.008347522946872072,0.7989568081991215
0.008382787075193196,0.7989568081991215
0.008382787075193196,0.7990483162518301
0.008387824807810501,0.7990483162518301
0.008387824807810501,0.799322840409956
0.008392862540427804,0.799322840409956
0.008392862540427804,0.7995058565153733
0.008407975738279715,0.7995058565153733
0.008407975738279715,0.799597364568082
0.008433164401366234,0.799597364568082
0.008433164401366234,0.7997803806734992
0.00845835306445275,0.7997803806734992
0.00845835306445275,0.799871888726208
0.008463390797070055,0.799871888726208
0.008463390797070055,0.7999633967789166
0.008493617192773877,0.7999633967789166
0.008493617192773877,0.8000549048316252
0.00849865492539118,0.8000549048316252
0.00849865492539118,0.8001464128843339
0.008508730390625788,0.8001464128843339
0.008508730390625788,0.8003294289897511
0.008523843588477699,0.8003294289897511
0.008523843588477699,0.8004209370424598
0.008533919053712305,0.8004209370424598
0.008533919053712305,0.800603953147877
0.008564145449416126,0.800603953147877
0.008564145449416126,0.8006954612005857
0.008579258647268037,0.8006954612005857
0.008579258647268037,0.8009699853587116
0.008584296379885342,0.8009699853587116
0.008584296379885342,0.8010614934114202
0.008594371845119948,0.8010614934114202
0.008594371845119948,0.8011530014641288
0.008609485042971859,0.8011530014641288
0.008609485042971859,0.8012445095168375
0.00863971143867568,0.8012445095168375
0.00863971143867568,0.8013360175695461
0.008649786903910288,0.8013360175695461
0.008649786903910288,0.8014275256222547
0.008664900101762199,0.8014275256222547
0.008664900101762199,0.8015190336749634
0.00868001329961411,0.8015190336749634
0.00868001329961411,0.801610541727672
0.008705201962700629,0.801610541727672
0.008705201962700629,0.8017020497803806
0.00872031516055254,0.8017020497803806
0.00872031516055254,0.8017935578330894
0.008725352893169842,0.8017935578330894
0.008725352893169842,0.8022510980966325
0.008750541556256361,0.8022510980966325
0.008750541556256361,0.8023426061493412
0.008775730219342878,0.8023426061493412
0.008775730219342878,0.8024341142020498
0.008785805684577486,0.8024341142020498
0.008785805684577486,0.8025256222547584
0.008836183010750521,0.8025256222547584
0.008836183010750521,0.8026171303074671
0.008841220743367824,0.8026171303074671
0.008841220743367824,0.8027086383601757
0.008846258475985129,0.8027086383601757
0.008846258475985129,0.802891654465593
0.00886137167383704,0.802891654465593
0.00886137167383704,0.8030746705710102
0.008901673534775468,0.8030746705710102
0.008901673534775468,0.8031661786237189
0.008906711267392772,0.8031661786237189
0.008906711267392772,0.8032576866764275
0.008921824465244683,0.8032576866764275
0.008921824465244683,0.8033491947291361
0.008926862197861986,0.8033491947291361
0.008926862197861986,0.8034407027818448
0.008936937663096594,0.8034407027818448
0.008936937663096594,0.8035322108345534
0.008941975395713897,0.8035322108345534
0.008941975395713897,0.8037152269399708
0.008952050860948505,0.8037152269399708
0.008952050860948505,0.8039897510980967
0.008957088593565808,0.8039897510980967
0.008957088593565808,0.8040812591508053
0.008967164058800416,0.8040812591508053
0.008967164058800416,0.8041727672035139
0.008982277256652326,0.8041727672035139
0.008982277256652326,0.8042642752562226
0.008992352721886933,0.8042642752562226
0.008992352721886933,0.8044472913616398
0.008997390454504237,0.8044472913616398
0.008997390454504237,0.8046303074670571
0.009037692315442665,0.8046303074670571
0.009037692315442665,0.8048133235724744
0.009047767780677273,0.8048133235724744
0.009047767780677273,0.804904831625183
0.00905784324591188,0.804904831625183
0.00905784324591188,0.8050878477306003
0.009062880978529184,0.8050878477306003
0.009062880978529184,0.8052708638360175
0.009088069641615702,0.8052708638360175
0.009088069641615702,0.8053623718887262
0.009093107374233005,0.8053623718887262
0.009093107374233005,0.8054538799414348
0.009123333769936827,0.8054538799414348
0.009123333769936827,0.8055453879941434
0.009138446967788738,0.8055453879941434
0.009138446967788738,0.8059114202049781
0.009148522433023346,0.8059114202049781
0.009148522433023346,0.8060029282576867
0.009198899759196381,0.8060029282576867
0.009198899759196381,0.8060944363103953
0.009203937491813684,0.8060944363103953
0.009203937491813684,0.8062774524158126
0.009244239352752114,0.8062774524158126
0.009244239352752114,0.8066434846266471
0.009264390283221327,0.8066434846266471
0.009264390283221327,0.8068265007320644
0.009269428015838632,0.8068265007320644
0.009269428015838632,0.806918008784773
0.009279503481073238,0.806918008784773
0.009279503481073238,0.8070095168374817
0.009289578946307846,0.8070095168374817
0.009289578946307846,0.8071010248901903
0.009304692144159757,0.8071010248901903
0.009304692144159757,0.8072840409956076
0.00932484307462897,0.8072840409956076
0.00932484307462897,0.8073755490483162
0.009344994005098185,0.8073755490483162
0.009344994005098185,0.8076500732064422
0.0093651449355674,0.8076500732064422
0.0093651449355674,0.8077415812591509
0.009380258133419311,0.8077415812591509
0.009380258133419311,0.8078330893118595
0.009410484529123133,0.8078330893118595
0.009410484529123133,0.8079245973645681
0.00943567319220965,0.8079245973645681
0.00943567319220965,0.808199121522694
0.009445748657444257,0.808199121522694
0.009445748657444257,0.8083821376281113
0.009460861855296168,0.8083821376281113
0.009460861855296168,0.8084736456808199
0.009470937320530776,0.8084736456808199
0.009470937320530776,0.8085651537335286
0.009501163716234598,0.8085651537335286
0.009501163716234598,0.8088396778916545
0.009511239181469204,0.8088396778916545
0.009511239181469204,0.8089311859443631
0.009521314646703812,0.8089311859443631
0.009521314646703812,0.8090226939970717
0.009541465577173025,0.8090226939970717
0.009541465577173025,0.8091142020497804
0.009576729705494152,0.8091142020497804
0.009576729705494152,0.809205710102489
0.009627107031667187,0.809205710102489
0.009627107031667187,0.8093887262079063
0.009652295694753706,0.8093887262079063
0.009652295694753706,0.8094802342606149
0.009667408892605617,0.8094802342606149
0.009667408892605617,0.8095717423133236
0.00967244662522292,0.8095717423133236
0.00967244662522292,0.8097547584187409
0.009697635288309438,0.8097547584187409
0.009697635288309438,0.8098462664714495
0.009707710753544044,0.8098462664714495
0.009707710753544044,0.8099377745241582
0.009717786218778652,0.8099377745241582
0.009717786218778652,0.8102122986822841
0.00972786168401326,0.8102122986822841
0.00972786168401326,0.8103038067349927
0.009763125812334385,0.8103038067349927
0.009763125812334385,0.81048682284041
0.009768163544951688,0.81048682284041
0.009768163544951688,0.8106698389458272
0.009773201277568993,0.8106698389458272
0.009773201277568993,0.8107613469985359
0.009778239010186296,0.8107613469985359
0.009778239010186296,0.8108528550512445
0.00981350313850742,0.8108528550512445
0.00981350313850742,0.8110358711566618
0.009823578603742028,0.8110358711566618
0.009823578603742028,0.8111273792093704
0.009828616336359331,0.8111273792093704
0.009828616336359331,0.811218887262079
0.00986891819729776,0.811218887262079
0.00986891819729776,0.8113103953147877
0.009894106860384277,0.8113103953147877
0.009894106860384277,0.8114934114202049
0.009899144593001582,0.8114934114202049
0.009899144593001582,0.8118594436310396
0.009904182325618885,0.8118594436310396
0.009904182325618885,0.8119509516837482
0.009909220058236188,0.8119509516837482
0.009909220058236188,0.8120424597364568
0.009919295523470796,0.8120424597364568
0.009919295523470796,0.8121339677891655
0.009924333256088099,0.8121339677891655
0.009924333256088099,0.8124084919472914
0.009949521919174618,0.8124084919472914
0.009949521919174618,0.8125
0.00995455965179192,0.8125
0.00995455965179192,0.8126830161054173
0.009999899245347653,0.8126830161054173
0.009999899245347653,0.8127745241581259
0.010009974710582261,0.8127745241581259
0.010009974710582261,0.8128660322108345
0.010015012443199564,0.8128660322108345
0.010015012443199564,0.8129575402635432
0.010040201106286083,0.8129575402635432
0.010040201106286083,0.8131405563689604
0.010060352036755297,0.8131405563689604
0.010060352036755297,0.8133235724743777
0.010085540699841815,0.8133235724743777
0.010085540699841815,0.8135980966325037
0.010110729362928334,0.8135980966325037
0.010110729362928334,0.8136896046852123
0.010125842560780245,0.8136896046852123
0.010125842560780245,0.8138726207906296
0.01013591802601485,0.8138726207906296
0.01013591802601485,0.8140556368960469
0.010166144421718672,0.8140556368960469
0.010166144421718672,0.8143301610541728
0.010171182154335977,0.8143301610541728
0.010171182154335977,0.8144216691068814
0.010186295352187888,0.8144216691068814
0.010186295352187888,0.81451317715959
0.010196370817422494,0.81451317715959
0.010196370817422494,0.8147877013177159
0.010211484015274405,0.8147877013177159
0.010211484015274405,0.8148792093704246
0.01021652174789171,0.8148792093704246
0.01021652174789171,0.8149707174231332
0.010241710410978227,0.8149707174231332
0.010241710410978227,0.8150622254758418
0.010256823608830137,0.8150622254758418
0.010256823608830137,0.8151537335285505
0.010271936806682048,0.8151537335285505
0.010271936806682048,0.8152452415812591
0.010276974539299353,0.8152452415812591
0.010276974539299353,0.8153367496339677
0.010322314132855085,0.8153367496339677
0.010322314132855085,0.8155197657393851
0.010382766924262727,0.8155197657393851
0.010382766924262727,0.8156112737920937
0.010397880122114638,0.8156112737920937
0.010397880122114638,0.8157027818448024
0.010438181983053067,0.8157027818448024
0.010438181983053067,0.8158857979502196
0.010458332913522281,0.8158857979502196
0.010458332913522281,0.8160688140556369
0.010463370646139586,0.8160688140556369
0.010463370646139586,0.8161603221083455
0.010468408378756889,0.8161603221083455
0.010468408378756889,0.8162518301610542
0.010478483843991497,0.8162518301610542
0.010478483843991497,0.8163433382137628
0.0104835215766088,0.8163433382137628
0.0104835215766088,0.8164348462664714
0.010488559309226103,0.8165263543191801
0.010508710239695318,0.8165263543191801
0.010508710239695318,0.816800878477306
0.010518785704929924,0.816800878477306
0.010518785704929924,0.8168923865300146
0.010528861170164532,0.8168923865300146
0.010528861170164532,0.8169838945827232
0.010533898902781835,0.8169838945827232
0.010533898902781835,0.8170754026354319
0.010549012100633746,0.8170754026354319
0.010549012100633746,0.8171669106881405
0.010569163031102962,0.8171669106881405
0.010569163031102962,0.8172584187408491
0.010579238496337568,0.8172584187408491
0.010579238496337568,0.8173499267935578
0.010594351694189479,0.8173499267935578
0.010594351694189479,0.8175329428989752
0.010614502624658694,0.8175329428989752
0.010614502624658694,0.8176244509516838
0.010639691287745211,0.8176244509516838
0.010639691287745211,0.8177159590043924
0.010710219544387462,0.8177159590043924
0.010710219544387462,0.8179904831625183
0.010725332742239373,0.8179904831625183
0.010725332742239373,0.818081991215227
0.010745483672708587,0.818081991215227
0.010745483672708587,0.8181734992679356
0.010760596870560498,0.8181734992679356
0.010760596870560498,0.8183565153733529
0.010765634603177802,0.8183565153733529
0.010765634603177802,0.8184480234260615
0.010785785533647016,0.8184480234260615
0.010785785533647016,0.8185395314787701
0.010795860998881624,0.8185395314787701
0.010795860998881624,0.8186310395314788
0.010810974196733535,0.8186310395314788
0.010810974196733535,0.8189055636896047
0.010816011929350838,0.8189055636896047
0.010816011929350838,0.8189970717423133
0.010826087394585446,0.8189970717423133
0.010826087394585446,0.8191800878477306
0.010841200592437357,0.8191800878477306
0.010841200592437357,0.8193631039531479
0.010851276057671963,0.8193631039531479
0.010851276057671963,0.8194546120058566
0.010891577918610392,0.8194546120058566
0.010891577918610392,0.8196376281112738
0.010901653383844998,0.8196376281112738
0.010901653383844998,0.8197291361639825
0.010906691116462303,0.8197291361639825
0.010906691116462303,0.8198206442166911
0.010911728849079606,0.8198206442166911
0.010911728849079606,0.8199121522693997
0.01093187977954882,0.8199121522693997
0.01093187977954882,0.8201866764275256
0.010952030710018035,0.8201866764275256
0.010952030710018035,0.8204612005856515
0.010957068442635338,0.8204612005856515
0.010957068442635338,0.8206442166910688
0.010962106175252641,0.8206442166910688
0.010962106175252641,0.8209187408491947
0.011002408036191071,0.8209187408491947
0.011002408036191071,0.8210102489019033
0.01102759669927759,0.8210102489019033
0.01102759669927759,0.821101756954612
0.011047747629746803,0.821101756954612
0.011047747629746803,0.8211932650073206
0.011057823094981411,0.8211932650073206
0.011057823094981411,0.8212847730600292
0.011067898560216017,0.8212847730600292
0.011067898560216017,0.8214677891654466
0.011093087223302536,0.8214677891654466
0.011093087223302536,0.8215592972181552
0.01111323815377175,0.8215592972181552
0.01111323815377175,0.8216508052708639
0.011133389084240965,0.8216508052708639
0.011133389084240965,0.8217423133235725
0.011143464549475571,0.8217423133235725
0.011143464549475571,0.8218338213762811
0.011148502282092876,0.8218338213762811
0.011148502282092876,0.8219253294289898
0.01115354001471018,0.8219253294289898
0.01115354001471018,0.822108345534407
0.011158577747327482,0.822108345534407
0.011158577747327482,0.8223828696925329
0.011178728677796698,0.8223828696925329
0.011178728677796698,0.8224743777452416
0.011188804143031304,0.8224743777452416
0.011188804143031304,0.8226573938506588
0.011193841875648609,0.8226573938506588
0.011193841875648609,0.8228404099560761
0.011198879608265912,0.8228404099560761
0.011198879608265912,0.8229319180087847
0.011213992806117823,0.8229319180087847
0.011213992806117823,0.8230234260614934
0.011219030538735126,0.8230234260614934
0.011219030538735126,0.8232064421669106
0.011229106003969733,0.8232064421669106
0.011229106003969733,0.823389458272328
0.011254294667056252,0.823389458272328
0.011254294667056252,0.8235724743777453
0.011269407864908163,0.8235724743777453
0.011269407864908163,0.8237554904831625
0.011279483330142769,0.8237554904831625
0.011279483330142769,0.8239385065885798
0.011289558795377377,0.8239385065885798
0.011289558795377377,0.8240300146412884
0.011299634260611984,0.8240300146412884
0.011299634260611984,0.8242130307467057
0.011314747458463895,0.8242130307467057
0.011314747458463895,0.8243045387994143
0.011319785191081198,0.8243045387994143
0.011319785191081198,0.824396046852123
0.011329860656315806,0.824396046852123
0.011329860656315806,0.8244875549048316
0.011344973854167717,0.8244875549048316
0.011344973854167717,0.8245790629575402
0.01135001158678502,0.8245790629575402
0.01135001158678502,0.8246705710102489
0.011360087052019628,0.8246705710102489
0.011360087052019628,0.8248535871156661
0.011380237982488842,0.8248535871156661
0.011380237982488842,0.8249450951683748
0.011385275715106145,0.8249450951683748
0.011385275715106145,0.825128111273792
0.01139031344772345,0.825128111273792
0.01139031344772345,0.8252196193265008
0.011400388912958056,0.8252196193265008
0.011400388912958056,0.8253111273792094
0.01140542664557536,0.8253111273792094
0.01140542664557536,0.825402635431918
0.011450766239131091,0.825402635431918
0.011450766239131091,0.8254941434846267
0.011455803971748396,0.8254941434846267
0.011455803971748396,0.8255856515373353
0.011470917169600307,0.8255856515373353
0.011470917169600307,0.825677159590044
0.011486030367452217,0.825677159590044
0.011486030367452217,0.8257686676427526
0.01149106810006952,0.8257686676427526
0.01149106810006952,0.8258601756954612
0.011501143565304128,0.8258601756954612
0.011501143565304128,0.8260431918008785
0.011516256763156039,0.8260431918008785
0.011516256763156039,0.8261346998535871
0.01153136996100795,0.8261346998535871
0.01153136996100795,0.8262262079062958
0.011536407693625253,0.8262262079062958
0.011536407693625253,0.826409224011713
0.01154648315885986,0.826409224011713
0.01154648315885986,0.8266837481698389
0.011581747287180985,0.8266837481698389
0.011581747287180985,0.8267752562225475
0.0116018982176502,0.8267752562225475
0.0116018982176502,0.8268667642752562
0.011606935950267504,0.8268667642752562
0.011606935950267504,0.8271412884333821
0.011652275543823237,0.8271412884333821
0.011652275543823237,0.8272327964860908
0.011667388741675147,0.8272327964860908
0.011667388741675147,0.8273243045387995
0.011677464206909753,0.8273243045387995
0.011677464206909753,0.8274158125915081
0.011692577404761664,0.8274158125915081
0.011692577404761664,0.827690336749634
0.011702652869996272,0.827690336749634
0.011702652869996272,0.8277818448023426
0.011717766067848183,0.8277818448023426
0.011717766067848183,0.8278733528550513
0.011732879265700094,0.8278733528550513
0.011732879265700094,0.8280563689604685
0.011758067928786612,0.8280563689604685
0.011758067928786612,0.8283308931185944
0.011763105661403915,0.8283308931185944
0.011763105661403915,0.8284224011713031
0.011773181126638523,0.8284224011713031
0.011773181126638523,0.8285139092240117
0.011803407522342345,0.8285139092240117
0.011803407522342345,0.8286054172767203
0.011808445254959648,0.8286054172767203
0.011808445254959648,0.828696925329429
0.011818520720194256,0.828696925329429
0.011818520720194256,0.8287884333821376
0.011823558452811559,0.8287884333821376
0.011823558452811559,0.8288799414348462
0.01185378484851538,0.8288799414348462
0.01185378484851538,0.8289714494875549
0.011858822581132683,0.8289714494875549
0.011858822581132683,0.8291544655929722
0.011899124442071113,0.8291544655929722
0.011899124442071113,0.8292459736456809
0.01190919990730572,0.8292459736456809
0.01190919990730572,0.8294289897510981
0.011919275372540327,0.8294289897510981
0.011919275372540327,0.8295204978038068
0.011939426303009542,0.8295204978038068
0.011939426303009542,0.8296120058565154
0.011969652698713362,0.8296120058565154
0.011969652698713362,0.829703513909224
0.011999879094417184,0.829703513909224
0.011999879094417184,0.8297950219619327
0.012009954559651792,0.8297950219619327
0.012009954559651792,0.8299780380673499
0.012014992292269095,0.8299780380673499
0.012014992292269095,0.8300695461200586
0.01203514322273831,0.8300695461200586
0.01203514322273831,0.8301610541727672
0.012060331885824827,0.8301610541727672
0.012060331885824827,0.8303440702781845
0.012070407351059435,0.8303440702781845
0.012070407351059435,0.8304355783308931
0.012080482816294043,0.8304355783308931
0.012080482816294043,0.8305270863836017
0.012085520548911346,0.8305270863836017
0.012085520548911346,0.8306185944363104
0.012100633746763257,0.8306185944363104
0.012100633746763257,0.830710102489019
0.012130860142467078,0.830710102489019
0.012130860142467078,0.8308016105417276
0.012135897875084381,0.8308016105417276
0.012135897875084381,0.8308931185944363
0.012151011072936292,0.8308931185944363
0.012151011072936292,0.8309846266471449
0.012166124270788203,0.8309846266471449
0.012166124270788203,0.8310761346998536
0.012196350666492025,0.8310761346998536
0.012196350666492025,0.8311676427525623
0.012206426131726632,0.8311676427525623
0.012206426131726632,0.8312591508052709
0.01221650159696124,0.8312591508052709
0.01221650159696124,0.8313506588579795
0.012221539329578543,0.8313506588579795
0.012221539329578543,0.8314421669106882
0.012236652527430454,0.8314421669106882
0.012236652527430454,0.8317166910688141
0.012271916655751579,0.8317166910688141
0.012271916655751579,0.8318081991215227
0.01228702985360349,0.8318081991215227
0.01228702985360349,0.83199121522694
0.012312218516690008,0.83199121522694
0.012312218516690008,0.8320827232796486
0.012347482645011133,0.8320827232796486
0.012347482645011133,0.8321742313323572
0.012352520377628438,0.8321742313323572
0.012352520377628438,0.8322657393850659
0.012362595842863044,0.8322657393850659
0.012362595842863044,0.8323572474377745
0.012377709040714955,0.8323572474377745
0.012377709040714955,0.8326317715959004
0.012453275029974509,0.8326317715959004
0.012453275029974509,0.8329062957540263
0.012473425960443724,0.8329062957540263
0.012473425960443724,0.8329978038067349
0.012493576890912938,0.8329978038067349
0.012493576890912938,0.8330893118594437
0.012498614623530241,0.8330893118594437
0.012498614623530241,0.8336383601756955
0.012503652356147544,0.8336383601756955
0.012503652356147544,0.8338213762811127
0.012513727821382152,0.8338213762811127
0.012513727821382152,0.8339128843338214
0.012518765553999455,0.8339128843338214
0.012518765553999455,0.8340959004392386
0.012543954217085974,0.8340959004392386
0.012543954217085974,0.8341874084919473
0.012548991949703277,0.8341874084919473
0.012548991949703277,0.8346449487554904
0.012554029682320582,0.8346449487554904
0.012554029682320582,0.8348279648609077
0.012569142880172492,0.8348279648609077
0.012569142880172492,0.8350109809663251
0.012589293810641706,0.8350109809663251
0.012589293810641706,0.8351024890190337
0.012599369275876314,0.8351024890190337
0.012599369275876314,0.8351939970717424
0.01260944474111092,0.8351939970717424
0.01260944474111092,0.8353770131771596
0.012614482473728225,0.8353770131771596
0.012614482473728225,0.8354685212298683
0.012634633404197439,0.8354685212298683
0.012634633404197439,0.8355600292825769
0.012639671136814742,0.8355600292825769
0.012639671136814742,0.8357430453879942
0.01266485979990126,0.8357430453879942
0.01266485979990126,0.8359260614934114
0.01270516166083969,0.8359260614934114
0.01270516166083969,0.83601756954612
0.012745463521778118,0.83601756954612
0.012745463521778118,0.8361090775988287
0.012770652184864636,0.8361090775988287
0.012770652184864636,0.836292093704246
0.01277568991748194,0.836292093704246
0.01277568991748194,0.8364751098096632
0.012800878580568458,0.8364751098096632
0.012800878580568458,0.8365666178623719
0.01283110497627228,0.8365666178623719
0.01283110497627228,0.8367496339677891
0.012851255906741493,0.8367496339677891
0.012851255906741493,0.8369326500732065
0.012871406837210709,0.8369326500732065
0.012871406837210709,0.8370241581259151
0.012876444569828012,0.8370241581259151
0.012876444569828012,0.8371156661786238
0.012896595500297226,0.8371156661786238
0.012896595500297226,0.8372071742313324
0.01290163323291453,0.8372071742313324
0.01290163323291453,0.8373901903367497
0.012926821896001047,0.8373901903367497
0.012926821896001047,0.8374816983894583
0.012936897361235655,0.8374816983894583
0.012936897361235655,0.8376647144948756
0.012957048291704869,0.8376647144948756
0.012957048291704869,0.8377562225475842
0.012962086024322174,0.8377562225475842
0.012962086024322174,0.8378477306002928
0.01301246335049521,0.8378477306002928
0.01301246335049521,0.8379392386530015
0.013017501083112512,0.8379392386530015
0.013017501083112512,0.8380307467057101
0.013047727478816334,0.8380307467057101
0.013047727478816334,0.8381222547584187
0.01311321800284128,0.8381222547584187
0.01311321800284128,0.8382137628111274
0.013138406665927799,0.8382137628111274
0.013138406665927799,0.838305270863836
0.013163595329014318,0.838305270863836
0.013163595329014318,0.8383967789165446
0.013178708526866229,0.8383967789165446
0.013178708526866229,0.8384882869692533
0.013183746259483532,0.8384882869692533
0.013183746259483532,0.8386713030746705
0.013203897189952745,0.8386713030746705
0.013203897189952745,0.8387628111273792
0.013234123585656567,0.8387628111273792
0.013234123585656567,0.8388543191800878
0.013244199050891175,0.8388543191800878
0.013244199050891175,0.8389458272327965
0.013249236783508478,0.8389458272327965
0.013249236783508478,0.8390373352855052
0.013254274516125783,0.8390373352855052
0.013254274516125783,0.8392203513909224
0.013259312248743086,0.8392203513909224
0.013259312248743086,0.839586383601757
0.01329457637706421,0.839586383601757
0.01329457637706421,0.8396778916544656
0.013299614109681515,0.8396778916544656
0.013299614109681515,0.8398609077598829
0.013309689574916121,0.8398609077598829
0.013309689574916121,0.8399524158125915
0.013319765040150729,0.8399524158125915
0.013319765040150729,0.8400439238653001
0.013370142366323765,0.8400439238653001
0.013370142366323765,0.8401354319180088
0.01339029329679298,0.8401354319180088
0.01339029329679298,0.8402269399707174
0.013395331029410283,0.8402269399707174
0.013395331029410283,0.8404099560761347
0.013400368762027586,0.8404099560761347
0.013400368762027586,0.8405014641288433
0.01346082155343523,0.8405014641288433
0.01346082155343523,0.8406844802342606
0.01351623661222557,0.8406844802342606
0.01351623661222557,0.8407759882869692
0.013536387542694784,0.8407759882869692
0.013536387542694784,0.8410505124450952
0.013546463007929391,0.8410505124450952
0.013546463007929391,0.8411420204978038
0.013556538473163997,0.8411420204978038
0.013556538473163997,0.8412335285505125
0.013576689403633213,0.8412335285505125
0.013576689403633213,0.8413250366032211
0.013581727136250516,0.8413250366032211
0.013581727136250516,0.8414165446559297
0.013606915799337035,0.8414165446559297
0.013606915799337035,0.8415080527086384
0.013611953531954338,0.8415080527086384
0.013611953531954338,0.841599560761347
0.013622028997188946,0.841599560761347
0.013622028997188946,0.8417825768667643
0.013652255392892767,0.8417825768667643
0.013652255392892767,0.8420571010248902
0.013672406323361981,0.8420571010248902
0.013672406323361981,0.8421486090775988
0.013732859114769624,0.8421486090775988
0.013732859114769624,0.8422401171303074
0.013747972312621535,0.8422401171303074
0.013747972312621535,0.8423316251830161
0.013758047777856143,0.8423316251830161
0.013758047777856143,0.8425146412884333
0.01378323644094266,0.8425146412884333
0.01378323644094266,0.842606149341142
0.013793311906177268,0.842606149341142
0.013793311906177268,0.8426976573938506
0.013853764697584911,0.8426976573938506
0.013853764697584911,0.8427891654465594
0.013858802430202214,0.8427891654465594
0.013858802430202214,0.842880673499268
0.013889028825906036,0.842880673499268
0.013889028825906036,0.8429721815519766
0.01389406655852334,0.8429721815519766
0.01389406655852334,0.8430636896046853
0.013934368419461768,0.8430636896046853
0.013934368419461768,0.8431551976573939
0.013949481617313679,0.8431551976573939
0.013949481617313679,0.8433382137628112
0.013959557082548287,0.8433382137628112
0.013959557082548287,0.8435212298682284
0.01396459481516559,0.8435212298682284
0.01396459481516559,0.843612737920937
0.013969632547782895,0.843612737920937
0.013969632547782895,0.8437042459736457
0.013974670280400198,0.8437042459736457
0.013974670280400198,0.843887262079063
0.0139797080130175,0.843887262079063
0.0139797080130175,0.8441617862371888
0.013989783478252108,0.8441617862371888
0.013989783478252108,0.8442532942898975
0.013994821210869412,0.8442532942898975
0.013994821210869412,0.8444363103953147
0.01402000987395593,0.8444363103953147
0.01402000987395593,0.8445278184480234
0.014040160804425144,0.8445278184480234
0.014040160804425144,0.8447108345534406
0.014050236269659752,0.8447108345534406
0.014050236269659752,0.8448023426061494
0.014055274002277055,0.8448023426061494
0.014055274002277055,0.844893850658858
0.014070387200128966,0.844893850658858
0.014070387200128966,0.8449853587115667
0.014085500397980876,0.8449853587115667
0.014085500397980876,0.8451683748169839
0.014110689061067395,0.8451683748169839
0.014110689061067395,0.8452598828696926
0.014140915456771217,0.8452598828696926
0.014140915456771217,0.8453513909224012
0.01414595318938852,0.8453513909224012
0.01414595318938852,0.8454428989751098
0.01416106638724043,0.8454428989751098
0.01416106638724043,0.8455344070278185
0.01418625505032695,0.8455344070278185
0.01418625505032695,0.8458089311859444
0.014196330515561555,0.8458089311859444
0.014196330515561555,0.845900439238653
0.014206405980796163,0.845900439238653
0.014206405980796163,0.8459919472913616
0.014226556911265377,0.8459919472913616
0.014226556911265377,0.8461749633967789
0.014231594643882682,0.8461749633967789
0.014231594643882682,0.8463579795021962
0.01427189650482111,0.8463579795021962
0.01427189650482111,0.8464494875549048
0.014276934237438414,0.8464494875549048
0.014276934237438414,0.8465409956076134
0.014302122900524931,0.8465409956076134
0.014302122900524931,0.8466325036603221
0.014307160633142236,0.8466325036603221
0.014307160633142236,0.8467240117130308
0.014317236098376842,0.8467240117130308
0.014317236098376842,0.8468155197657394
0.014392802087636396,0.8468155197657394
0.014392802087636396,0.8469070278184481
0.0143978398202537,0.8469070278184481
0.0143978398202537,0.8470900439238653
0.014402877552871004,0.8470900439238653
0.014402877552871004,0.847181551976574
0.014407915285488307,0.847181551976574
0.014407915285488307,0.8472730600292826
0.014438141681192129,0.8472730600292826
0.014438141681192129,0.8473645680819912
0.014463330344278647,0.8473645680819912
0.014463330344278647,0.8475475841874085
0.01446836807689595,0.8475475841874085
0.01446836807689595,0.8476390922401171
0.014503632205217077,0.8476390922401171
0.014503632205217077,0.8477306002928258
0.014513707670451683,0.8477306002928258
0.014513707670451683,0.8478221083455344
0.01454897179877281,0.8478221083455344
0.01454897179877281,0.8480051244509517
0.014554009531390112,0.8480051244509517
0.014554009531390112,0.8480966325036603
0.01456408499662472,0.8480966325036603
0.01456408499662472,0.8481881405563689
0.014569122729242023,0.8481881405563689
0.014569122729242023,0.8483711566617862
0.01457919819447663,0.8483711566617862
0.01457919819447663,0.8484626647144948
0.014604386857563148,0.8484626647144948
0.014604386857563148,0.8486456808199122
0.01463461325326697,0.8486456808199122
0.01463461325326697,0.8489202049780381
0.014674915114205399,0.8489202049780381
0.014674915114205399,0.8490117130307467
0.014679952846822702,0.8490117130307467
0.014679952846822702,0.8491032210834554
0.01469002831205731,0.8491032210834554
0.01469002831205731,0.849194729136164
0.014710179242526523,0.849194729136164
0.014710179242526523,0.8493777452415813
0.014715216975143827,0.8493777452415813
0.014715216975143827,0.8494692532942899
0.014735367905613042,0.8494692532942899
0.014735367905613042,0.8496522693997072
0.014740405638230345,0.8496522693997072
0.014740405638230345,0.8498352855051244
0.014785745231786078,0.8498352855051244
0.014785745231786078,0.8499267935578331
0.01479078296440338,0.8499267935578331
0.01479078296440338,0.8500183016105417
0.014800858429637988,0.8500183016105417
0.014800858429637988,0.8501098096632503
0.014805896162255291,0.8501098096632503
0.014805896162255291,0.850201317715959
0.014810933894872596,0.850201317715959
0.014810933894872596,0.8502928257686676
0.0148159716274899,0.8502928257686676
0.0148159716274899,0.8505673499267935
0.014856273488428329,0.8505673499267935
0.014856273488428329,0.8506588579795022
0.014866348953662935,0.8506588579795022
0.014866348953662935,0.8509333821376281
0.014896575349366756,0.8509333821376281
0.014896575349366756,0.8510248901903368
0.014906650814601364,0.8510248901903368
0.014906650814601364,0.8511163982430454
0.014926801745070578,0.8511163982430454
0.014926801745070578,0.851207906295754
0.0149570281407744,0.851207906295754
0.0149570281407744,0.85148243045388
0.014982216803860918,0.85148243045388
0.014982216803860918,0.8516654465592972
0.014987254536478221,0.8516654465592972
0.014987254536478221,0.8517569546120058
0.01499733000171283,0.8517569546120058
0.01499733000171283,0.8518484626647145
0.01501244319956474,0.8518484626647145
0.01501244319956474,0.8519399707174231
0.015057782793120473,0.8519399707174231
0.015057782793120473,0.8520314787701317
0.015062820525737776,0.8520314787701317
0.015062820525737776,0.8523060029282576
0.015082971456206991,0.8523060029282576
0.015082971456206991,0.8524890190336749
0.015118235584528116,0.8524890190336749
0.015118235584528116,0.8525805270863837
0.015128311049762724,0.8525805270863837
0.015128311049762724,0.8526720351390923
0.015183726108553062,0.8526720351390923
0.015183726108553062,0.8527635431918009
0.015188763841170365,0.8527635431918009
0.015188763841170365,0.8528550512445096
0.015218990236874187,0.8528550512445096
0.015218990236874187,0.8530380673499268
0.015224027969491492,0.8530380673499268
