fpr,tpr
0.0,0.0
0.0,0.0006944444444444445
3.303600925008259e-05,0.0006944444444444445
3.303600925008259e-05,0.0020833333333333333
4.955401387512388e-05,0.0020833333333333333
4.955401387512388e-05,0.004861111111111111
6.607201850016519e-05,0.004861111111111111
6.607201850016519e-05,0.009027777777777777
8.259002312520647e-05,0.009027777777777777
8.259002312520647e-05,0.013888888888888888
9.910802775024777e-05,0.013888888888888888
9.910802775024777e-05,0.016666666666666666
0.00013214403700033037,0.016666666666666666
0.00013214403700033037,0.035416666666666666
0.00014866204162537167,0.035416666666666666
0.00014866204162537167,0.03611111111111111
0.00016518004625041294,0.03611111111111111
0.00016518004625041294,0.0375
0.00018169805087545423,0.0375
0.00018169805087545423,0.04097222222222222
0.00018169805087545423,0.04236111111111111
0.00018169805087545423,0.05625
0.00021473406012553683,0.05625
0.00021473406012553683,0.06597222222222222
0.00023125206475057812,0.06597222222222222
0.00023125206475057812,0.07569444444444444
0.0002477700693756194,0.07569444444444444
0.0002477700693756194,0.07916666666666666
0.0002477700693756194,0.08055555555555556
0.0002477700693756194,0.08680555555555555
0.00026428807400066074,0.08680555555555555
0.00026428807400066074,0.10069444444444445
0.000280806078625702,0.10069444444444445
0.000280806078625702,0.1111111111111111
0.0003303600925008259,0.1111111111111111
0.0003303600925008259,0.12152777777777778
0.0003468780971258672,0.12152777777777778
0.0003468780971258672,0.12777777777777777
0.00036339610175090847,0.12777777777777777
0.00036339610175090847,0.1451388888888889
0.0003799141063759498,0.1451388888888889
0.0003799141063759498,0.14930555555555555
0.00039643211100099106,0.14930555555555555
0.00039643211100099106,0.15
0.0004129501156260324,0.15
0.0004129501156260324,0.15208333333333332
0.0004129501156260324,0.15347222222222223
0.0004129501156260324,0.15833333333333333
0.00042946812025107365,0.15833333333333333
0.00042946812025107365,0.15902777777777777
0.000445986124876115,0.15902777777777777
0.000445986124876115,0.16041666666666668
0.00046250412950115625,0.16041666666666668
0.00046250412950115625,0.16180555555555556
0.00047902213412619757,0.16180555555555556
0.00047902213412619757,0.16527777777777777
0.0004955401387512388,0.16527777777777777
0.0004955401387512388,0.17430555555555555
0.0005120581433762802,0.17430555555555555
0.0005120581433762802,0.18333333333333332
0.0005285761480013215,0.18333333333333332
0.0005285761480013215,0.1840277777777778
0.0005450941526263627,0.1840277777777778
0.0005450941526263627,0.19027777777777777
0.0005781301618764453,0.19027777777777777
0.0005781301618764453,0.19791666666666666
0.0005946481665014867,0.19791666666666666
0.0005946481665014867,0.19930555555555557
0.0006111661711265279,0.19930555555555557
0.0006111661711265279,0.20902777777777778
0.0006607201850016518,0.20902777777777778
0.0006607201850016518,0.21944444444444444
0.0006772381896266931,0.21944444444444444
0.0006772381896266931,0.22361111111111112
0.0006937561942517344,0.22361111111111112
0.0006937561942517344,0.22777777777777777
0.0007102741988767757,0.22777777777777777
0.0007102741988767757,0.23958333333333334
0.0007102741988767757,0.2423611111111111
0.0007102741988767757,0.24444444444444444
0.0007267922035018169,0.24444444444444444
0.0007267922035018169,0.24583333333333332
0.0007433102081268583,0.24583333333333332
0.0007433102081268583,0.2465277777777778
0.0007433102081268583,0.24791666666666667
0.0007433102081268583,0.2548611111111111
0.0007598282127518996,0.2548611111111111
0.0007598282127518996,0.25763888888888886
0.0007763462173769409,0.25763888888888886
0.0007763462173769409,0.25833333333333336
0.0007928642220019821,0.25833333333333336
0.0007928642220019821,0.2590277777777778
0.0008259002312520648,0.2590277777777778
0.0008259002312520648,0.25972222222222224
0.0008424182358771061,0.25972222222222224
0.0008424182358771061,0.2625
0.0008589362405021473,0.2625
0.0008589362405021473,0.26458333333333334
0.0008754542451271886,0.26458333333333334
0.0008754542451271886,0.2659722222222222
0.00089197224975223,0.2659722222222222
0.00089197224975223,0.2673611111111111
0.0009084902543772713,0.2673611111111111
0.0009084902543772713,0.26805555555555555
0.0009084902543772713,0.26944444444444443
0.0009084902543772713,0.2722222222222222
0.0009250082590023125,0.2722222222222222
0.0009250082590023125,0.27569444444444446
0.0009415262636273538,0.27569444444444446
0.0009415262636273538,0.28194444444444444
0.0009745622728774364,0.28194444444444444
0.0009745622728774364,0.28680555555555554
0.0009910802775024777,0.28680555555555554
0.0009910802775024777,0.28958333333333336
0.001007598282127519,0.28958333333333336
0.001007598282127519,0.2951388888888889
0.0010241162867525603,0.2951388888888889
0.0010241162867525603,0.2965277777777778
0.0010406342913776017,0.2965277777777778
0.0010406342913776017,0.2972222222222222
0.001057152296002643,0.2972222222222222
0.001057152296002643,0.3034722222222222
0.001073670300627684,0.3034722222222222
0.001073670300627684,0.30833333333333335
0.001073670300627684,0.30972222222222223
0.001073670300627684,0.3111111111111111
0.0010901883052527254,0.3111111111111111
0.0010901883052527254,0.325
0.0011067063098777667,0.325
0.0011067063098777667,0.3263888888888889
0.0011397423191278494,0.3263888888888889
0.0011397423191278494,0.32916666666666666
0.0011562603237528907,0.32916666666666666
0.0011562603237528907,0.3326388888888889
0.001172778328377932,0.3326388888888889
0.001172778328377932,0.3347222222222222
0.0011892963330029733,0.3347222222222222
0.0011892963330029733,0.3416666666666667
0.0012058143376280145,0.3416666666666667
0.0012058143376280145,0.34791666666666665
0.0012223323422530558,0.34791666666666665
0.0012223323422530558,0.3611111111111111
0.0012553683515031384,0.3611111111111111
0.0012553683515031384,0.36180555555555555
0.001288404360753221,0.36180555555555555
0.001288404360753221,0.3638888888888889
0.0013049223653782624,0.3638888888888889
0.0013049223653782624,0.36736111111111114
0.0013214403700033035,0.36736111111111114
0.0013214403700033035,0.36875
0.0013379583746283448,0.36875
0.0013379583746283448,0.3763888888888889
0.0013544763792533861,0.3763888888888889
0.0013544763792533861,0.3798611111111111
0.0013709943838784275,0.3798611111111111
0.0013709943838784275,0.3819444444444444
0.0014040303931285101,0.3819444444444444
0.0014040303931285101,0.38263888888888886
0.0014205483977535514,0.38263888888888886
0.0014205483977535514,0.38472222222222224
0.0014535844070036339,0.38472222222222224
0.0014535844070036339,0.3854166666666667
0.0014701024116286752,0.3854166666666667
0.0014701024116286752,0.38680555555555557
0.0015361744301288405,0.38680555555555557
0.0015361744301288405,0.3909722222222222
0.0015526924347538818,0.3909722222222222
0.0015526924347538818,0.4
0.001569210439378923,0.4
0.001569210439378923,0.40069444444444446
0.0015857284440039642,0.4013888888888889
0.0016022464486290056,0.4013888888888889
0.0016022464486290056,0.4083333333333333
0.0016352824578790882,0.4083333333333333
0.0016352824578790882,0.41041666666666665
0.0016518004625041295,0.41041666666666665
0.0016518004625041295,0.41180555555555554
0.0016683184671291709,0.41180555555555554
0.0016683184671291709,0.41597222222222224
0.0016848364717542122,0.41597222222222224
0.0016848364717542122,0.41805555555555557
0.0017178724810042946,0.41805555555555557
0.0017178724810042946,0.41875
0.001734390485629336,0.41875
0.001734390485629336,0.4201388888888889
0.0017509084902543773,0.4201388888888889
0.0017509084902543773,0.42430555555555555
0.00178394449950446,0.42430555555555555
0.00178394449950446,0.42569444444444443
0.0018004625041295012,0.42569444444444443
0.0018004625041295012,0.42916666666666664
0.0018169805087545426,0.42916666666666664
0.0018169805087545426,0.43194444444444446
0.0018334985133795837,0.43194444444444446
0.0018334985133795837,0.4326388888888889
0.0018665345226296663,0.4326388888888889
0.0018665345226296663,0.43472222222222223
0.0018830525272547076,0.43472222222222223
0.0018830525272547076,0.43680555555555556
0.001899570531879749,0.43680555555555556
0.001899570531879749,0.4395833333333333
0.0019491245457548727,0.4395833333333333
0.0019491245457548727,0.44027777777777777
0.0019986785596299967,0.44027777777777777
0.0019986785596299967,0.44305555555555554
0.0020317145688800793,0.44305555555555554
0.0020317145688800793,0.4479166666666667
0.002064750578130162,0.4479166666666667
0.002064750578130162,0.4486111111111111
0.0020977865873802446,0.4486111111111111
0.0020977865873802446,0.45069444444444445
0.002147340601255368,0.45069444444444445
0.002147340601255368,0.45625
0.0021638586058804095,0.45625
0.0021638586058804095,0.4666666666666667
0.002180376610505451,0.4666666666666667
0.002180376610505451,0.4673611111111111
0.002196894615130492,0.4673611111111111
0.002196894615130492,0.46875
0.0022134126197555335,0.46875
0.0022134126197555335,0.4722222222222222
0.002246448629005616,0.4722222222222222
0.002246448629005616,0.4777777777777778
0.0022629666336306574,0.4777777777777778
0.0022629666336306574,0.48125
0.00229600264288074,0.48125
0.00229600264288074,0.4826388888888889
0.0023125206475057814,0.4826388888888889
0.0023125206475057814,0.48333333333333334
0.0023290386521308227,0.48333333333333334
0.0023290386521308227,0.4875
0.002345556656755864,0.4875
0.002345556656755864,0.4888888888888889
0.0023620746613809054,0.4888888888888889
0.0023620746613809054,0.4895833333333333
0.0023785926660059467,0.4895833333333333
0.0023785926660059467,0.49444444444444446
0.002411628675256029,0.49444444444444446
0.002411628675256029,0.4951388888888889
0.0024281466798810702,0.4951388888888889
0.0024281466798810702,0.4965277777777778
0.0024446646845061116,0.4965277777777778
0.0024446646845061116,0.49722222222222223
0.002461182689131153,0.49722222222222223
0.002461182689131153,0.4979166666666667
0.002477700693756194,0.4979166666666667
0.002477700693756194,0.4986111111111111
0.002510736703006277,0.4986111111111111
0.002510736703006277,0.5013888888888889
0.0025437727122563595,0.5013888888888889
0.0025437727122563595,0.5027777777777778
0.002609844730756525,0.5027777777777778
0.002609844730756525,0.5055555555555555
0.002626362735381566,0.5055555555555555
0.002626362735381566,0.5076388888888889
0.0026759167492566896,0.5076388888888889
0.0026759167492566896,0.5118055555555555
0.002692434753881731,0.5118055555555555
0.002692434753881731,0.51875
0.0027089527585067723,0.51875
0.0027089527585067723,0.5201388888888889
0.0027254707631318136,0.5201388888888889
0.0027254707631318136,0.5215277777777778
0.002741988767756855,0.5215277777777778
0.002741988767756855,0.5222222222222223
0.0027585067723818963,0.5222222222222223
0.0027585067723818963,0.525
0.0027750247770069376,0.525
0.0027750247770069376,0.5263888888888889
0.002791542781631979,0.5263888888888889
0.002791542781631979,0.5361111111111111
0.0028245787908820616,0.5361111111111111
0.0028245787908820616,0.5368055555555555
0.002841096795507103,0.5368055555555555
0.002841096795507103,0.5375
0.0028741328047571855,0.5375
0.0028741328047571855,0.5381944444444444
0.0029071688140072677,0.5381944444444444
0.0029071688140072677,0.5416666666666666
0.002923686818632309,0.5416666666666666
0.002923686818632309,0.5423611111111111
0.0029402048232573504,0.5423611111111111
0.0029402048232573504,0.5451388888888888
0.0029567228278823917,0.5451388888888888
0.0029567228278823917,0.5479166666666667
0.002973240832507433,0.5479166666666667
0.002973240832507433,0.5493055555555556
0.0029897588371324744,0.5493055555555556
0.0029897588371324744,0.5513888888888889
0.003022794846382557,0.5513888888888889
0.003022794846382557,0.5527777777777778
0.0030393128510075983,0.5527777777777778
0.0030393128510075983,0.55625
0.0030558308556326397,0.55625
0.0030558308556326397,0.5569444444444445
0.0031053848695077636,0.5569444444444445
0.0031053848695077636,0.5576388888888889
0.003121902874132805,0.5576388888888889
0.003121902874132805,0.5583333333333333
0.003138420878757846,0.5583333333333333
0.003138420878757846,0.5590277777777778
0.0031714568880079285,0.5590277777777778
0.0031714568880079285,0.5604166666666667
0.00318797489263297,0.5604166666666667
0.00318797489263297,0.5611111111111111
0.003204492897258011,0.5611111111111111
0.003204492897258011,0.5625
0.003303600925008259,0.5625
0.003303600925008259,0.5638888888888889
0.0033201189296333004,0.5638888888888889
0.0033201189296333004,0.5659722222222222
0.003353154938883383,0.5659722222222222
0.003353154938883383,0.5722222222222222
0.0033861909481334653,0.5722222222222222
0.0033861909481334653,0.5777777777777777
0.0034357449620085892,0.5777777777777777
0.0034357449620085892,0.5784722222222223
0.0034522629666336306,0.5784722222222223
0.0034522629666336306,0.5791666666666667
0.003468780971258672,0.5791666666666667
0.003485298975883713,0.5798611111111112
0.0035018169805087545,0.5798611111111112
0.0035018169805087545,0.58125
0.003518334985133796,0.58125
0.003518334985133796,0.5826388888888889
0.0035513709943838785,0.5826388888888889
0.0035513709943838785,0.5840277777777778
0.0035513709943838785,0.5847222222222223
0.00356788899900892,0.5847222222222223
0.00356788899900892,0.5854166666666667
0.003584407003633961,0.5854166666666667
0.003584407003633961,0.5861111111111111
0.0036009250082590025,0.5861111111111111
0.0036009250082590025,0.5875
0.003617443012884044,0.5875
0.003617443012884044,0.5881944444444445
0.003633961017509085,0.5881944444444445
0.003633961017509085,0.5895833333333333
0.003650479022134126,0.5895833333333333
0.003650479022134126,0.59375
0.0036835150313842087,0.59375
0.0036835150313842087,0.5944444444444444
0.0037165510406342913,0.5944444444444444
0.003749587049884374,0.5944444444444444
0.0037826230591344566,0.5944444444444444
0.0037826230591344566,0.5958333333333333
0.0038817310868847045,0.5958333333333333
0.0038817310868847045,0.5965277777777778
0.0038982490915097454,0.5965277777777778
0.0038982490915097454,0.5979166666666667
0.003914767096134787,0.5979166666666667
0.003914767096134787,0.5993055555555555
0.003931285100759828,0.5993055555555555
0.003931285100759828,0.6
0.00394780310538487,0.6
0.00394780310538487,0.6013888888888889
0.003964321110009911,0.6013888888888889
0.003964321110009911,0.6041666666666666
0.003997357119259993,0.6041666666666666
0.003997357119259993,0.6048611111111111
0.004013875123885034,0.6048611111111111
0.004013875123885034,0.60625
0.004046911133135117,0.60625
0.004046911133135117,0.6069444444444444
0.0040799471423851996,0.6069444444444444
0.0040799471423851996,0.6090277777777777
0.004112983151635282,0.6090277777777777
0.004112983151635282,0.6118055555555556
0.004129501156260324,0.6118055555555556
0.004129501156260324,0.6131944444444445
0.004162537165510407,0.6131944444444445
0.004162537165510407,0.6173611111111111
0.00421209117938553,0.6173611111111111
0.00421209117938553,0.6180555555555556
0.004228609184010572,0.6180555555555556
0.004228609184010572,0.6201388888888889
0.004245127188635613,0.6201388888888889
0.004245127188635613,0.6215277777777778
0.0042616451932606545,0.6215277777777778
0.0042616451932606545,0.6222222222222222
0.0042781631978856954,0.6222222222222222
0.0042781631978856954,0.6229166666666667
0.004294681202510736,0.6229166666666667
0.004294681202510736,0.6236111111111111
0.004311199207135778,0.6236111111111111
0.004311199207135778,0.6243055555555556
0.004327717211760819,0.6243055555555556
0.004327717211760819,0.6305555555555555
0.004344235216385861,0.6305555555555555
0.004344235216385861,0.63125
0.004410307234886026,0.63125
0.004410307234886026,0.6319444444444444
0.004443343244136109,0.6319444444444444
0.004443343244136109,0.6354166666666666
0.004476379253386191,0.6354166666666666
0.004476379253386191,0.6361111111111111
0.004509415262636274,0.6361111111111111
0.004509415262636274,0.6375
0.004525933267261315,0.6375
0.004525933267261315,0.6388888888888888
0.004542451271886356,0.6388888888888888
0.004542451271886356,0.6395833333333333
0.0045589692765113975,0.6395833333333333
0.0045589692765113975,0.6416666666666667
0.00459200528576148,0.6416666666666667
0.00459200528576148,0.6444444444444445
0.004608523290386521,0.6444444444444445
0.004608523290386521,0.6458333333333334
0.0046580773042616454,0.6458333333333334
0.0046580773042616454,0.6465277777777778
0.004707631318136769,0.6465277777777778
0.004707631318136769,0.6472222222222223
0.004806739345887017,0.6472222222222223
0.004806739345887017,0.65
0.0048397753551371,0.65
0.0048397753551371,0.6506944444444445
0.004905847373637265,0.6506944444444445
0.004905847373637265,0.6520833333333333
0.004922365378262306,0.6520833333333333
0.004922365378262306,0.6541666666666667
0.00497191939213743,0.6541666666666667
0.00497191939213743,0.6555555555555556
0.004988437396762471,0.6555555555555556
0.004988437396762471,0.6569444444444444
0.005004955401387513,0.6569444444444444
0.005004955401387513,0.6576388888888889
0.005071027419887677,0.6576388888888889
0.005071027419887677,0.6583333333333333
0.005087545424512719,0.6583333333333333
0.005087545424512719,0.6590277777777778
0.005120581433762802,0.6590277777777778
0.005120581433762802,0.6611111111111111
0.0051370994383878425,0.6611111111111111
0.0051370994383878425,0.6618055555555555
0.005252725470763132,0.6618055555555555
0.005252725470763132,0.6625
0.005269243475388173,0.6625
0.005269243475388173,0.6631944444444444
0.005335315493888338,0.6631944444444444
0.005368351503138421,0.6631944444444444
0.005368351503138421,0.6645833333333333
0.0055170135447637925,0.6645833333333333
0.0055170135447637925,0.6666666666666666
0.005599603567888999,0.6666666666666666
0.005599603567888999,0.6673611111111111
0.005649157581764123,0.6673611111111111
0.005649157581764123,0.6680555555555555
0.005682193591014206,0.6680555555555555
0.005682193591014206,0.66875
0.005715229600264288,0.66875
0.005715229600264288,0.6694444444444444
0.005731747604889329,0.6694444444444444
0.005731747604889329,0.6722222222222223
0.005797819623389495,0.6722222222222223
0.005797819623389495,0.6736111111111112
0.005830855632639577,0.6736111111111112
0.005830855632639577,0.675
0.005880409646514701,0.675
0.005880409646514701,0.6763888888888889
0.005946481665014866,0.6763888888888889
0.005946481665014866,0.6784722222222223
0.005979517674264949,0.6784722222222223
0.0059960356788899905,0.6791666666666667
0.0059960356788899905,0.6798611111111111
0.006078625702015197,0.6798611111111111
0.006078625702015197,0.6805555555555556
0.006111661711265279,0.6805555555555556
0.006111661711265279,0.6819444444444445
0.006161215725140403,0.6819444444444445
0.006161215725140403,0.6826388888888889
0.006177733729765445,0.6826388888888889
0.006177733729765445,0.6833333333333333
0.006227287743640568,0.6833333333333333
0.006227287743640568,0.6847222222222222
0.006227287743640568,0.6854166666666667
0.00624380574826561,0.6854166666666667
0.00624380574826561,0.6861111111111111
0.006276841757515692,0.6861111111111111
0.006276841757515692,0.6868055555555556
0.006309877766765774,0.6868055555555556
0.006309877766765774,0.6875
0.006326395771390816,0.6875
0.006326395771390816,0.6881944444444444
0.006342913776015857,0.6881944444444444
0.006342913776015857,0.6895833333333333
0.006408985794516022,0.6895833333333333
0.006408985794516022,0.6902777777777778
0.006425503799141064,0.6902777777777778
0.006425503799141064,0.6923611111111111
0.006458539808391147,0.6923611111111111
0.006458539808391147,0.6944444444444444
0.006475057813016188,0.6944444444444444
0.006475057813016188,0.6951388888888889
0.00650809382226627,0.6951388888888889
0.00650809382226627,0.6958333333333333
0.006557647836141394,0.6958333333333333
0.006557647836141394,0.6965277777777777
0.0066732738685166835,0.6965277777777777
0.0066732738685166835,0.6972222222222222
0.00675586389164189,0.6972222222222222
0.00675586389164189,0.6986111111111111
0.006970597951767426,0.6986111111111111
0.006970597951767426,0.7006944444444444
0.007053187974892633,0.7006944444444444
0.007053187974892633,0.7020833333333333
0.007185332011892963,0.7020833333333333
0.007185332011892963,0.7027777777777777
0.0072514040303931285,0.7027777777777777
0.0072514040303931285,0.7041666666666667
0.00726792203501817,0.7041666666666667
0.00726792203501817,0.7048611111111112
0.007284440039643211,0.7048611111111112
0.007284440039643211,0.7055555555555556
0.007317476048893294,0.7055555555555556
0.007317476048893294,0.70625
0.007466138090518665,0.70625
0.007466138090518665,0.7069444444444445
0.007482656095143707,0.7069444444444445
0.007482656095143707,0.7076388888888889
0.0075322101090188305,0.7076388888888889
0.0075322101090188305,0.7083333333333334
0.007548728113643871,0.7083333333333334
0.007548728113643871,0.7090277777777778
0.007598282127518996,0.7090277777777778
0.007598282127518996,0.7097222222222223
0.007614800132144037,0.7097222222222223
0.007614800132144037,0.7104166666666667
0.007796498183019491,0.7104166666666667
0.007796498183019491,0.7111111111111111
0.007846052196894614,0.7111111111111111
0.007846052196894614,0.7118055555555556
0.00791212421539478,0.7118055555555556
0.00791212421539478,0.7125
0.007945160224644863,0.7125
0.007945160224644863,0.7131944444444445
0.00804426825239511,0.7131944444444445
0.00804426825239511,0.7145833333333333
0.008093822266270234,0.7145833333333333
0.008093822266270234,0.7152777777777778
0.008126858275520317,0.7152777777777778
0.008126858275520317,0.7159722222222222
0.008143376280145359,0.7159722222222222
0.00817641228939544,0.7159722222222222
0.008209448298645524,0.7159722222222222
0.008209448298645524,0.7180555555555556
0.008259002312520648,0.7180555555555556
0.008259002312520648,0.71875
0.008572844400396433,0.71875
0.008572844400396433,0.7201388888888889
0.008605880409646514,0.7201388888888889
0.008605880409646514,0.7215277777777778
0.00867195242814668,0.7215277777777778
0.00867195242814668,0.7222222222222222
0.008704988437396763,0.7222222222222222
0.008704988437396763,0.7229166666666667
0.008721506442021803,0.7229166666666667
0.008721506442021803,0.7236111111111111
0.008771060455896929,0.7236111111111111
0.008771060455896929,0.725
0.008820614469772052,0.725
0.008820614469772052,0.7263888888888889
0.008853650479022134,0.7263888888888889
0.008853650479022134,0.7270833333333333
0.009084902543772711,0.7270833333333333
0.009084902543772711,0.7277777777777777
0.009101420548397753,0.7277777777777777
0.009101420548397753,0.7284722222222222
0.009117938553022795,0.7284722222222222
0.009117938553022795,0.7291666666666666
0.009332672613148331,0.7291666666666666
0.009332672613148331,0.7305555555555555
0.009596960687148992,0.7305555555555555
0.009596960687148992,0.73125
0.009629996696399076,0.73125
0.009629996696399076,0.7319444444444444
0.009663032705649157,0.7319444444444444
0.009663032705649157,0.7326388888888888
0.0096795507102742,0.7333333333333333
0.009729104724149323,0.7333333333333333
0.009729104724149323,0.7340277777777777
0.00981169474727453,0.7340277777777777
0.00981169474727453,0.7347222222222223
0.009844730756524612,0.7347222222222223
0.009844730756524612,0.7354166666666667
0.009877766765774695,0.7354166666666667
0.009877766765774695,0.7368055555555556
0.009927320779649819,0.7368055555555556
0.009927320779649819,0.7388888888888889
0.009993392798149984,0.7388888888888889
0.009993392798149984,0.7395833333333334
0.010274198876775685,0.7395833333333334
0.010274198876775685,0.7402777777777778
0.010323752890650809,0.7402777777777778
0.010323752890650809,0.7409722222222223
0.010389824909150974,0.7409722222222223
0.010389824909150974,0.7416666666666667
0.01045589692765114,0.7416666666666667
0.01045589692765114,0.7430555555555556
0.010472414932276181,0.7430555555555556
0.010472414932276181,0.74375
0.010488932936901223,0.74375
0.010488932936901223,0.7458333333333333
0.01058804096465147,0.7458333333333333
0.01058804096465147,0.7465277777777778
0.010604558969276512,0.7465277777777778
0.010604558969276512,0.7472222222222222
0.010703666997026759,0.7472222222222222
0.010703666997026759,0.7479166666666667
0.010868847043277173,0.7479166666666667
0.010901883052527254,0.7479166666666667
0.010934919061777338,0.7479166666666667
0.010934919061777338,0.7493055555555556
0.01121572514040304,0.7493055555555556
0.01121572514040304,0.75
0.011298315163528246,0.75
0.011298315163528246,0.7506944444444444
0.011331351172778328,0.7506944444444444
0.011331351172778328,0.7513888888888889
0.011529567228278824,0.7513888888888889
0.011529567228278824,0.7520833333333333
0.011694747274529236,0.7520833333333333
0.011694747274529236,0.7527777777777778
0.011892963330029732,0.7527777777777778
0.011892963330029732,0.7534722222222222
0.01197555335315494,0.7534722222222222
0.01197555335315494,0.7548611111111111
0.012173769408655435,0.7548611111111111
0.012173769408655435,0.75625
0.0122398414271556,0.75625
0.0122398414271556,0.7569444444444444
0.01237198546415593,0.7569444444444444
0.01237198546415593,0.7583333333333333
0.012454575487281136,0.7583333333333333
0.012454575487281136,0.7597222222222222
0.012768417575156921,0.7597222222222222
0.012801453584407003,0.7597222222222222
0.012801453584407003,0.7604166666666666
0.012851007598282128,0.7604166666666666
0.012851007598282128,0.7611111111111111
0.01301618764453254,0.7611111111111111
0.01301618764453254,0.7618055555555555
0.013594317806408986,0.7618055555555555
0.013594317806408986,0.7625
0.013627353815659068,0.7625
0.013627353815659068,0.7631944444444444
0.014139411959035349,0.7631944444444444
0.014139411959035349,0.7638888888888888
0.01415592996366039,0.7638888888888888
0.01415592996366039,0.7645833333333333
0.014288074000660721,0.7645833333333333
0.014288074000660721,0.7652777777777777
0.01442021803766105,0.7652777777777777
0.01442021803766105,0.7659722222222223
0.01455236207466138,0.7659722222222223
0.01455236207466138,0.7680555555555556
0.014701024116286753,0.7680555555555556
0.014701024116286753,0.7694444444444445
0.015064420218037661,0.7694444444444445
0.015064420218037661,0.7701388888888889
0.015163528245787908,0.7701388888888889
0.015163528245787908,0.7715277777777778
0.015295672282788239,0.7715277777777778
0.015295672282788239,0.7729166666666667
0.015526924347538818,0.7729166666666667
0.015526924347538818,0.7736111111111111
0.015543442352163858,0.7736111111111111
0.015543442352163858,0.7743055555555556
0.01567558638916419,0.7743055555555556
0.01567558638916419,0.775
0.015774694416914436,0.775
0.015774694416914436,0.7756944444444445
0.01580773042616452,0.7756944444444445
0.01580773042616452,0.7763888888888889
0.015857284440039643,0.7763888888888889
0.015890320449289726,0.7763888888888889
0.01620416253716551,0.7763888888888889
0.01620416253716551,0.7770833333333333
0.016270234555665675,0.7770833333333333
0.016270234555665675,0.7791666666666667
0.016468450611166172,0.7791666666666667
0.016501486620416252,0.7791666666666667
0.016666666666666666,0.7791666666666667
0.016666666666666666,0.7798611111111111
0.016683184671291706,0.7798611111111111
0.016683184671291706,0.7805555555555556
0.017030062768417575,0.7805555555555556
0.017030062768417575,0.78125
0.017393458870168483,0.78125
0.017393458870168483,0.7819444444444444
0.017855962999669638,0.7819444444444444
0.017888999008919722,0.7819444444444444
0.017938553022794845,0.7819444444444444
0.017938553022794845,0.7826388888888889
0.018549719193921375,0.7826388888888889
0.018549719193921375,0.7847222222222222
0.018764453254046912,0.7847222222222222
0.018764453254046912,0.7854166666666667
0.018913115295672283,0.7854166666666667
0.018913115295672283,0.7861111111111111
0.01899570531879749,0.7861111111111111
0.01899570531879749,0.7868055555555555
0.019028741328047574,0.7868055555555555
0.019028741328047574,0.7875
0.019045259332672614,0.7875
0.019045259332672614,0.7888888888888889
0.019061777337297654,0.7888888888888889
0.019061777337297654,0.7895833333333333
0.019177403369672944,0.7895833333333333
0.019177403369672944,0.7902777777777777
0.01929302940204823,0.7902777777777777
0.019326065411298315,0.7902777777777777
0.01937561942517344,0.7902777777777777
0.01937561942517344,0.7909722222222222
0.019705979517674267,0.7909722222222222
0.019705979517674267,0.7916666666666666
0.01975553353154939,0.7916666666666666
0.01975553353154939,0.7930555555555555
0.019970267591674924,0.7930555555555555
0.019970267591674924,0.79375
0.02003633961017509,0.79375
0.02003633961017509,0.7944444444444444
0.020102411628675255,0.7944444444444444
0.020102411628675255,0.7958333333333333
0.0201189296333003,0.7958333333333333
0.0201189296333003,0.7972222222222223
0.02038321770730096,0.7972222222222223
0.02041625371655104,0.7972222222222223
0.020465807730426163,0.7972222222222223
0.020465807730426163,0.7979166666666667
0.020730095804426824,0.7979166666666667
0.020730095804426824,0.7986111111111112
0.020746613809051868,0.7986111111111112
0.020746613809051868,0.7993055555555556
0.020994383878427485,0.7993055555555556
0.02102741988767757,0.7993055555555556
0.02145688800792864,0.7993055555555556
0.02145688800792864,0.8
0.021622068054179055,0.8
0.021622068054179055,0.8006944444444445
0.0219193921374298,0.8006944444444445
0.0219193921374298,0.8013888888888889
0.022134126197555334,0.8013888888888889
0.022134126197555334,0.8020833333333334
0.022299306243805748,0.8020833333333334
0.022299306243805748,0.8027777777777778
0.022381896266930955,0.8027777777777778
0.022381896266930955,0.8034722222222223
0.022613148331681533,0.8034722222222223
0.022646184340931616,0.8034722222222223
0.022728774364056823,0.8034722222222223
0.022728774364056823,0.8041666666666667
0.02297654443343244,0.8041666666666667
0.02297654443343244,0.8048611111111111
0.023075652461182688,0.8048611111111111
0.023075652461182688,0.8055555555555556
0.02319127849355798,0.8055555555555556
0.02319127849355798,0.80625
0.02358771060455897,0.80625
0.02358771060455897,0.8069444444444445
0.02362074661380905,0.8069444444444445
0.02362074661380905,0.8076388888888889
0.023686818632309217,0.8076388888888889
0.023686818632309217,0.8083333333333333
0.024066732738685166,0.8083333333333333
0.024066732738685166,0.8090277777777778
0.02421539478031054,0.8090277777777778
0.02421539478031054,0.8097222222222222
0.02438057482656095,0.8097222222222222
0.02438057482656095,0.8104166666666667
0.024463164849686157,0.8104166666666667
0.024463164849686157,0.8111111111111111
0.02474397092831186,0.8111111111111111
0.024777006937561942,0.8111111111111111
0.02485959696068715,0.8111111111111111
0.02485959696068715,0.8118055555555556
0.024892632969937233,0.8118055555555556
0.024892632969937233,0.8125
0.025239511067063097,0.8125
0.025239511067063097,0.8131944444444444
0.025652461182689133,0.8131944444444444
0.025652461182689133,0.8138888888888889
0.025735051205814336,0.8138888888888889
0.025735051205814336,0.8145833333333333
0.025784605219689463,0.8145833333333333
0.025784605219689463,0.8152777777777778
0.025801123224314503,0.8152777777777778
0.025801123224314503,0.8159722222222222
0.02637925338619095,0.8159722222222222
0.02637925338619095,0.8166666666666667
0.026693095474066734,0.8166666666666667
0.026693095474066734,0.8173611111111111
0.026825239511067064,0.8173611111111111
0.026825239511067064,0.8180555555555555
0.026841757515692104,0.8180555555555555
0.026841757515692104,0.81875
0.027106045589692766,0.81875
0.027106045589692766,0.8194444444444444
0.027254707631318136,0.8194444444444444
0.027254707631318136,0.8201388888888889
0.027452923686818634,0.8201388888888889
0.027452923686818634,0.8215277777777777
0.027601585728444004,0.8215277777777777
0.027601585728444004,0.8229166666666666
0.02768417575156921,0.8229166666666666
0.02768417575156921,0.8236111111111111
0.027816319788569542,0.8236111111111111
0.027816319788569542,0.8243055555555555
0.028245787908820614,0.8243055555555555
0.028245787908820614,0.825
0.028295341922695737,0.825
0.028295341922695737,0.8256944444444444
0.02869177403369673,0.8256944444444444
0.02869177403369673,0.8263888888888888
0.029369012223323422,0.8263888888888888
0.029369012223323422,0.8270833333333333
0.02945160224644863,0.8270833333333333
0.02945160224644863,0.8277777777777777
0.029914106375949785,0.8277777777777777
0.029914106375949785,0.8284722222222223
0.030029732408325075,0.8284722222222223
0.030029732408325075,0.8291666666666667
0.03006276841757516,0.8291666666666667
0.03006276841757516,0.8298611111111112
0.030657416584076645,0.8298611111111112
0.030657416584076645,0.8305555555555556
0.03074000660720185,0.8305555555555556
0.03074000660720185,0.83125
0.03075652461182689,0.83125
0.03075652461182689,0.8319444444444445
0.03085563263957714,0.8319444444444445
0.03085563263957714,0.8326388888888889
0.031301618764453254,0.8326388888888889
0.031301618764453254,0.8333333333333334
0.03146679881070367,0.8333333333333334
0.03146679881070367,0.8340277777777778
0.032375289065080935,0.8340277777777778
0.032375289065080935,0.8347222222222223
0.03239180706970598,0.8347222222222223
0.03239180706970598,0.8354166666666667
0.0324413610835811,0.8354166666666667
0.0324413610835811,0.8361111111111111
0.03277172117608193,0.8361111111111111
0.03277172117608193,0.8368055555555556
0.03287082920383218,0.8368055555555556
0.03287082920383218,0.8375
0.032969937231582425,0.8375
0.032969937231582425,0.8381944444444445
0.03303600925008259,0.8381944444444445
0.03306904525933267,0.8381944444444445
0.03325074331020813,0.8381944444444445
0.03325074331020813,0.8388888888888889
0.03343244136108358,0.8388888888888889
0.03343244136108358,0.8395833333333333
0.03377931945820945,0.8395833333333333
0.03377931945820945,0.8402777777777778
0.033894945490584735,0.8402777777777778
0.033894945490584735,0.8409722222222222
0.03392798149983482,0.8409722222222222
0.03392798149983482,0.8416666666666667
0.034093161546085236,0.8416666666666667
0.034093161546085236,0.8423611111111111
0.034225305583085563,0.8423611111111111
0.034225305583085563,0.8430555555555556
0.034869507763462176,0.8430555555555556
0.034869507763462176,0.84375
0.03488602576808721,0.84375
0.03488602576808721,0.8444444444444444
0.035084241823587714,0.8444444444444444
0.035084241823587714,0.8451388888888889
0.03518334985133796,0.8451388888888889
0.03518334985133796,0.8458333333333333
0.03528245787908821,0.8458333333333333
0.03528245787908821,0.8465277777777778
0.035530227948463826,0.8465277777777778
0.035530227948463826,0.8472222222222222
0.035563263957713906,0.8472222222222222
0.035563263957713906,0.8479166666666667
0.0362405021473406,0.8479166666666667
0.0362405021473406,0.8486111111111111
0.036818632309217045,0.8486111111111111
0.036818632309217045,0.8493055555555555
0.036901222332342255,0.8493055555555555
0.036901222332342255,0.85
0.036934258341592335,0.85
0.036934258341592335,0.8506944444444444
0.037264618434093164,0.8506944444444444
0.037264618434093164,0.8513888888888889
0.0372811364387182,0.8513888888888889
0.03731417244796829,0.8513888888888889
0.037446316484968614,0.8513888888888889
0.037446316484968614,0.8520833333333333
0.03751238850346878,0.8520833333333333
0.03754542451271886,0.8520833333333333
0.037561942517343905,0.8520833333333333
0.037561942517343905,0.8527777777777777
0.03764453254046911,0.8527777777777777
0.03764453254046911,0.8534722222222222
0.03766105054509415,0.8534722222222222
0.03766105054509415,0.8541666666666666
0.03870168483647175,0.8541666666666666
0.03870168483647175,0.8548611111111111
0.0387182028410968,0.8548611111111111
0.03875123885034688,0.8548611111111111
0.039114634952097785,0.8548611111111111
0.039114634952097785,0.8555555555555555
0.03929633300297324,0.8555555555555555
0.03929633300297324,0.85625
0.03954410307234886,0.85625
0.03954410307234886,0.8569444444444444
0.039560621076973904,0.8569444444444444
0.039560621076973904,0.8583333333333333
0.039709283118599274,0.8583333333333333
0.039742319127849354,0.8583333333333333
0.0398414271555996,0.8583333333333333
0.0398414271555996,0.8590277777777777
0.039890981169474725,0.8590277777777777
0.039890981169474725,0.8597222222222223
0.03994053518334985,0.8597222222222223
0.03994053518334985,0.8611111111111112
0.040089197224975226,0.8611111111111112
0.040089197224975226,0.8618055555555556
0.040452593326726134,0.8618055555555556
0.040452593326726134,0.8625
0.04112983151635283,0.8625
0.04112983151635283,0.8631944444444445
0.0413610835811034,0.8631944444444445
0.0413610835811034,0.8638888888888889
0.04235216385860588,0.8638888888888889
0.04235216385860588,0.8645833333333334
0.04246778989098117,0.8645833333333334
0.04246778989098117,0.8652777777777778
0.04321110009910803,0.8652777777777778
0.04324413610835811,0.8652777777777778
0.044714238519986786,0.8652777777777778
0.044714238519986786,0.8659722222222223
0.04478031053848695,0.8659722222222223
0.04478031053848695,0.8666666666666667
0.045044598612487614,0.8666666666666667
0.045044598612487614,0.8673611111111111
0.045259332672613145,0.8673611111111111
0.045259332672613145,0.8680555555555556
0.04540799471423852,0.8680555555555556
0.0454410307234886,0.8680555555555556
0.045490584737363726,0.8680555555555556
0.045490584737363726,0.8694444444444445
0.04562272877436406,0.8694444444444445
0.04565576478361414,0.8694444444444445
0.045887016848364715,0.8694444444444445
0.045887016848364715,0.8701388888888889
0.046085232903865216,0.8701388888888889
0.046085232903865216,0.8708333333333333
0.046151304922365376,0.8708333333333333
0.046151304922365376,0.8715277777777778
0.046448629005616124,0.8715277777777778
0.046448629005616124,0.8722222222222222
0.046778989098116945,0.8722222222222222
0.046778989098116945,0.8729166666666667
0.04714238519986785,0.8729166666666667
0.04717542120911794,0.8729166666666667
0.04732408325074331,0.8729166666666667
0.04732408325074331,0.8736111111111111
0.04791873141724479,0.8736111111111111
0.04791873141724479,0.8743055555555556
0.04816650148662042,0.8743055555555556
0.04816650148662042,0.875
0.048183019491245455,0.875
0.048183019491245455,0.8756944444444444
0.05036339610175091,0.8756944444444444
0.05042946812025107,0.8756944444444444
0.05128840436075322,0.8756944444444444
0.05128840436075322,0.8763888888888889
0.05201519656425504,0.8763888888888889
0.05204823257350512,0.8763888888888889
0.05218037661050545,0.8763888888888889
0.05218037661050545,0.8770833333333333
0.052262966633630656,0.8770833333333333
0.052262966633630656,0.8777777777777778
0.05244466468450611,0.8777777777777778
0.05244466468450611,0.8784722222222222
0.05292368681863231,0.8784722222222222
0.05294020482325735,0.8791666666666667
0.053865213082259666,0.8791666666666667
0.053865213082259666,0.8798611111111111
0.05475718533201189,0.8798611111111111
0.05475718533201189,0.8805555555555555
0.055814337628014535,0.8805555555555555
0.055814337628014535,0.88125
0.05614469772051536,0.88125
0.05614469772051536,0.8819444444444444
0.056673273868516685,0.8819444444444444
0.056673273868516685,0.8826388888888889
0.05690452593326726,0.8826388888888889
0.05693756194251735,0.8826388888888889
0.05720185001651801,0.8826388888888889
0.05723488602576809,0.8826388888888889
0.057333994053518335,0.8826388888888889
0.057333994053518335,0.8833333333333333
0.0576808721506442,0.8833333333333333
0.0576808721506442,0.8840277777777777
0.05769739015526924,0.8840277777777777
0.05773042616451932,0.8840277777777777
0.05789560621076974,0.8840277777777777
0.05789560621076974,0.8847222222222222
0.05817641228939544,0.8847222222222222
0.05820944829864552,0.8847222222222222
0.05827552031714569,0.8847222222222222
0.05827552031714569,0.8854166666666666
0.05860588040964652,0.8854166666666666
0.05860588040964652,0.8868055555555555
0.05880409646514701,0.8868055555555555
0.05880409646514701,0.8875
0.05883713247439709,0.8875
0.05883713247439709,0.8881944444444444
0.05916749256689792,0.8881944444444444
0.05916749256689792,0.8888888888888888
0.059200528576148,0.8888888888888888
0.059200528576148,0.8895833333333333
0.06017509084902544,0.8895833333333333
0.06020812685827552,0.8895833333333333
0.06045589692765114,0.8895833333333333
0.060488932936901225,0.8895833333333333
0.06060455896927651,0.8895833333333333
0.06060455896927651,0.8902777777777777
0.06161215725140403,0.8902777777777777
0.06161215725140403,0.8909722222222223
0.06197555335315494,0.8909722222222223
0.06197555335315494,0.8916666666666667
0.06283448959365709,0.8916666666666667
0.06283448959365709,0.8923611111111112
0.0628840436075322,0.8923611111111112
0.0628840436075322,0.8930555555555556
0.0634786917740337,0.8930555555555556
0.0634786917740337,0.89375
0.06366038982490915,0.89375
0.06366038982490915,0.8944444444444445
0.06438718202841097,0.8944444444444445
0.06438718202841097,0.8951388888888889
0.06587380244466469,0.8951388888888889
0.06590683845391476,0.8951388888888889
0.0667162206805418,0.8951388888888889
0.0667162206805418,0.8958333333333334
0.06683184671291707,0.8958333333333334
0.06683184671291707,0.8965277777777778
0.06724479682854312,0.8965277777777778
0.06724479682854312,0.8972222222222223
0.06826891311529568,0.8972222222222223
0.06826891311529568,0.8979166666666667
0.068401057152296,0.8979166666666667
0.068401057152296,0.8986111111111111
0.06861579121242153,0.8986111111111111
0.06861579121242153,0.8993055555555556
0.06937561942517344,0.8993055555555556
0.06937561942517344,0.9
0.06942517343904857,0.9
0.06942517343904857,0.9006944444444445
0.07025107367030063,0.9006944444444445
0.07025107367030063,0.9013888888888889
0.07059795176742649,0.9013888888888889
0.07059795176742649,0.9020833333333333
0.07097786587380245,0.9020833333333333
0.07097786587380245,0.9027777777777778
0.0714403700033036,0.9027777777777778
0.0714403700033036,0.9034722222222222
0.07163858605880409,0.9034722222222222
0.07163858605880409,0.9041666666666667
0.0733234225305583,0.9041666666666667
0.0733234225305583,0.9048611111111111
0.07481004294681202,0.9048611111111111
0.07481004294681202,0.9055555555555556
0.07509084902543772,0.9055555555555556
0.07509084902543772,0.90625
0.07555335315493888,0.90625
0.07555335315493888,0.9069444444444444
0.07573505120581434,0.9069444444444444
0.07576808721506442,0.9069444444444444
0.0761149653121903,0.9069444444444444
0.07614800132144037,0.9069444444444444
0.07634621737694086,0.9069444444444444
0.07634621737694086,0.9076388888888889
0.07670961347869178,0.9076388888888889
0.07670961347869178,0.9083333333333333
0.07874132804757185,0.9083333333333333
0.07877436405682194,0.9083333333333333
0.07898909811694747,0.9083333333333333
0.07898909811694747,0.9090277777777778
0.07915427816319788,0.9090277777777778
0.07915427816319788,0.9097222222222222
0.0796828543111992,0.9097222222222222
0.07971589032044929,0.9097222222222222
0.08045920052857615,0.9097222222222222
0.08045920052857615,0.9104166666666667
0.08085563263957714,0.9104166666666667
0.08085563263957714,0.9111111111111111
0.08095474066732739,0.9111111111111111
0.08095474066732739,0.9118055555555555
0.08105384869507763,0.9118055555555555
0.08105384869507763,0.9125
0.0818797489263297,0.9125
0.08191278493557978,0.9125
0.08353154938883382,0.9125
0.08356458539808391,0.9125
0.08425834159233564,0.9125
0.08425834159233564,0.9131944444444444
0.0846382556987116,0.9131944444444444
0.0846382556987116,0.9138888888888889
0.0847208457218368,0.9138888888888889
0.0847208457218368,0.9145833333333333
0.08553022794846382,0.9145833333333333
0.08553022794846382,0.9152777777777777
0.08635612817971589,0.9152777777777777
0.08635612817971589,0.9159722222222222
0.08655434423521638,0.9159722222222222
0.08655434423521638,0.9166666666666666
0.08794185662371985,0.9166666666666666
0.08794185662371985,0.9173611111111111
0.08838784274859597,0.9173611111111111
0.08838784274859597,0.9180555555555555
0.08845391476709613,0.9180555555555555
0.08848695077634622,0.9180555555555555
0.08858605880409647,0.9180555555555555
0.08858605880409647,0.91875
0.08957713908159894,0.91875
0.08957713908159894,0.9194444444444444
0.08961017509084902,0.9194444444444444
0.08961017509084902,0.9201388888888888
0.08985794516022465,0.9201388888888888
0.08985794516022465,0.9208333333333333
0.09051866534522629,0.9208333333333333
0.09051866534522629,0.9215277777777777
0.0909976874793525,0.9215277777777777
0.09103072348860258,0.9215277777777777
0.09193921374297985,0.9215277777777777
0.09193921374297985,0.9222222222222223
0.09236868186323093,0.9222222222222223
0.092401717872481,0.9222222222222223
0.09258341592335646,0.9222222222222223
0.09261645193260654,0.9222222222222223
0.09261645193260654,0.9229166666666667
0.09393789230260985,0.9229166666666667
0.09393789230260985,0.9236111111111112
0.09425173439048563,0.9236111111111112
0.0942847703997357,0.9236111111111112
0.09446646845061117,0.9236111111111112
0.09446646845061117,0.9243055555555556
0.09479682854311199,0.9243055555555556
0.09482986455236207,0.9243055555555556
0.0961182689131153,0.9243055555555556
0.09615130492236537,0.9243055555555556
0.0971589032044929,0.9243055555555556
0.0971589032044929,0.925
0.09748926329699373,0.925
0.0975222993062438,0.925
0.09780310538486951,0.925
0.09783614139411959,0.925
0.09844730756524611,0.925
0.0984803435744962,0.925
0.09978526593987447,0.925
0.09981830194912454,0.925
0.10112322431450281,0.925
0.10112322431450281,0.9256944444444445
0.10138751238850346,0.9256944444444445
0.10138751238850346,0.9263888888888889
0.10183349851337958,0.9263888888888889
0.10183349851337958,0.9270833333333334
0.10189957053187974,0.9270833333333334
0.10189957053187974,0.9277777777777778
0.1027585067723819,0.9277777777777778
0.10279154278163198,0.9277777777777778
0.10312190287413281,0.9277777777777778
0.10315493888338288,0.9277777777777778
0.10384869507763463,0.9277777777777778
0.10384869507763463,0.9284722222222223
0.10523620746613808,0.9284722222222223
0.10526924347538817,0.9284722222222223
0.10556656755863891,0.9284722222222223
0.105599603567889,0.9284722222222223
0.10612817971589032,0.9284722222222223
0.10612817971589032,0.9291666666666667
0.10626032375289066,0.9291666666666667
0.10626032375289066,0.9298611111111111
0.10715229600264288,0.9298611111111111
0.10718533201189297,0.9298611111111111
0.10721836802114304,0.9298611111111111
0.10721836802114304,0.9305555555555556
0.10890320449289725,0.9305555555555556
0.10890320449289725,0.93125
0.10969606871489924,0.93125
0.10972910472414932,0.93125
0.11070366699702676,0.93125
0.11070366699702676,0.9319444444444445
0.11124876114965312,0.9319444444444445
0.11124876114965312,0.9326388888888889
0.11131483316815328,0.9326388888888889
0.11131483316815328,0.9333333333333333
0.11397423191278494,0.9333333333333333
0.11400726792203501,0.9333333333333333
0.11592335645853981,0.9333333333333333
0.1159563924677899,0.9333333333333333
0.11665014866204163,0.9333333333333333
0.11665014866204163,0.9340277777777778
0.11683184671291708,0.9340277777777778
0.11686488272216716,0.9340277777777778
0.11785596299966963,0.9340277777777778
0.11785596299966963,0.9347222222222222
0.1184836471754212,0.9347222222222222
0.1184836471754212,0.9354166666666667
0.11863230921704658,0.9354166666666667
0.11864882722167162,0.9361111111111111
0.1194416914436736,0.9361111111111111
0.1194416914436736,0.9368055555555556
0.11950776346217377,0.9368055555555556
0.11954079947142385,0.9368055555555556
0.12082920383217707,0.9368055555555556
0.12082920383217707,0.9375
0.12125867195242815,0.9375
0.12129170796167824,0.9375
0.12142385199867856,0.9375
0.12145688800792864,0.9375
0.12243145028080608,0.9375
0.12243145028080608,0.9381944444444444
0.12413280475718533,0.9381944444444444
0.12416584076643541,0.9381944444444444
0.1252395110670631,0.9381944444444444
0.1252725470763132,0.9381944444444444
0.12535513709943838,0.9381944444444444
0.12538817310868847,0.9381944444444444
0.12538817310868847,0.9388888888888889
0.125999339279815,0.9388888888888889
0.12603237528906508,0.9388888888888889
0.12694086554344236,0.9388888888888889
0.12697390155269245,0.9388888888888889
0.1273207796498183,0.9388888888888889
0.1273538156590684,0.9388888888888889
0.12832837793194582,0.9388888888888889
0.1283614139411959,0.9388888888888889
0.12913776015857284,0.9388888888888889
0.12917079616782293,0.9388888888888889
0.129600264288074,0.9388888888888889
0.129600264288074,0.9395833333333333
0.13060786257020152,0.9395833333333333
0.1306408985794516,0.9395833333333333
0.13087215064420218,0.9395833333333333
0.13087215064420218,0.9402777777777778
0.13290386521308226,0.9402777777777778
0.13290386521308226,0.9416666666666667
0.13315163528245788,0.9416666666666667
0.13315163528245788,0.9423611111111111
0.1332837793194582,0.9423611111111111
0.1332837793194582,0.9430555555555555
0.13346547737033365,0.9430555555555555
0.13349851337958374,0.9430555555555555
0.13665345226296663,0.9430555555555555
0.13665345226296663,0.94375
0.13676907829534193,0.94375
0.136802114304592,0.94375
0.13734720845721837,0.94375
0.13738024446646846,0.94375
0.137594978526594,0.94375
0.13762801453584406,0.94375
0.13921374297984804,0.94375
0.13921374297984804,0.9444444444444444
0.13924677898909812,0.9444444444444444
0.13924677898909812,0.9451388888888889
0.13937892302609844,0.9451388888888889
0.13937892302609844,0.9465277777777777
0.1399240171787248,0.9465277777777777
0.1399240171787248,0.9472222222222222
0.14000660720185001,0.9472222222222222
0.1400396432111001,0.9472222222222222
0.14099768747935248,0.9472222222222222
0.14099768747935248,0.9479166666666666
0.14236868186323093,0.9479166666666666
0.14236868186323093,0.9486111111111111
0.14326065411298314,0.9486111111111111
0.14329369012223322,0.9486111111111111
0.14398744631648497,0.9486111111111111
0.14402048232573506,0.9486111111111111
0.1448794185662372,0.9486111111111111
0.1448794185662372,0.9493055555555555
0.14567228278823918,0.9493055555555555
0.14570531879748927,0.9493055555555555
0.14608523290386521,0.9493055555555555
0.1461182689131153,0.9493055555555555
0.14697720515361745,0.9493055555555555
0.14701024116286754,0.9493055555555555
0.14734060125536835,0.9493055555555555
0.14734060125536835,0.95
0.14770399735711925,0.95
0.14773703336636934,0.95
0.15018169805087545,0.95
0.15018169805087545,0.9506944444444444
0.15082590023125206,0.9506944444444444
0.15085893624050215,0.9506944444444444
0.15109018830525273,0.9506944444444444
0.1511232243145028,0.9506944444444444
0.15133795837462835,0.9506944444444444
0.15137099438387844,0.9506944444444444
0.15193260654112983,0.9506944444444444
0.15193260654112983,0.9513888888888888
0.15199867855963,0.9513888888888888
0.15203171456888007,0.9513888888888888
0.15280806078625703,0.9513888888888888
0.15280806078625703,0.9520833333333333
0.15490584737363727,0.9520833333333333
0.15490584737363727,0.9527777777777777
0.15688800792864221,0.9527777777777777
0.15688800792864221,0.9534722222222223
0.15738354806739346,0.9534722222222223
0.15741658407664355,0.9534722222222223
0.15837462834489593,0.9534722222222223
0.15840766435414602,0.9534722222222223
0.15905186653452263,0.9534722222222223
0.15908490254377272,0.9534722222222223
0.15918401057152295,0.9534722222222223
0.15921704658077304,0.9534722222222223
0.1597621407333994,0.9534722222222223
0.15979517674264948,0.9534722222222223
0.16032375289065082,0.9534722222222223
0.16032375289065082,0.9541666666666667
0.16138090518665346,0.9541666666666667
0.16138090518665346,0.9548611111111112
0.1621242153947803,0.9548611111111112
0.1621242153947803,0.9555555555555556
0.1630327056491576,0.9555555555555556
0.16306574165840768,0.9555555555555556
0.163197885695408,0.9555555555555556
0.163197885695408,0.95625
0.16399074991740997,0.95625
0.16399074991740997,0.9569444444444445
0.16438718202841096,0.9569444444444445
0.16442021803766105,0.9569444444444445
0.16448629005616122,0.9569444444444445
0.16448629005616122,0.9576388888888889
0.16516352824578792,0.9576388888888889
0.16516352824578792,0.9583333333333334
0.16802114304592006,0.9583333333333334
0.16805417905517014,0.9583333333333334
0.17044928972580112,0.9583333333333334
0.1704823257350512,0.9583333333333334
0.1748430789560621,0.9583333333333334
0.1748430789560621,0.9590277777777778
0.17684175751569212,0.9590277777777778
0.17687479352494218,0.9590277777777778
0.17720515361744302,0.9590277777777778
0.17720515361744302,0.9597222222222223
0.1778328377931946,0.9597222222222223
0.17786587380244467,0.9597222222222223
0.17793194582094482,0.9597222222222223
0.1779649818301949,0.9597222222222223
0.1792368681863231,0.9597222222222223
0.1792368681863231,0.9604166666666667
0.18178064089857945,0.9604166666666667
0.18181367690782954,0.9604166666666667
0.18229269904195572,0.9604166666666667
0.1823257350512058,0.9604166666666667
0.18420878757846051,0.9604166666666667
0.1842418235877106,0.9604166666666667
0.18637264618434093,0.9604166666666667
0.18640568219359102,0.9604166666666667
0.1870003303600925,0.9604166666666667
0.1870333663693426,0.9604166666666667
0.1893128510075983,0.9604166666666667
0.18934588701684837,0.9604166666666667
0.19093161546085233,0.9604166666666667
0.19094813346547737,0.9611111111111111
0.1910802775024777,0.9611111111111111
0.19111331351172778,0.9611111111111111
0.19274859596960686,0.9611111111111111
0.19278163197885695,0.9611111111111111
0.19306243805748266,0.9611111111111111
0.19309547406673275,0.9611111111111111
0.1936405682193591,0.9611111111111111
0.1936405682193591,0.9618055555555556
0.19542451271886357,0.9618055555555556
0.19545754872811363,0.9618055555555556
0.19565576478361413,0.9618055555555556
0.19568880079286421,0.9618055555555556
0.19686157912124216,0.9618055555555556
0.19686157912124216,0.9625
0.19709283118599275,0.9625
0.19709283118599275,0.9631944444444445
0.19725801123224315,0.9631944444444445
0.19729104724149324,0.9631944444444445
0.19753881731086884,0.9631944444444445
0.19753881731086884,0.9638888888888889
0.19793524942186982,0.9638888888888889
0.1979682854311199,0.9638888888888889
0.20199867855963,0.9638888888888889
0.20203171456888008,0.9638888888888889
0.20226296663363066,0.9638888888888889
0.20229600264288075,0.9638888888888889
0.20376610505450943,0.9638888888888889
0.2037991410637595,0.9638888888888889
0.20431119920713578,0.9638888888888889
0.20431119920713578,0.9645833333333333
0.204393789230261,0.9645833333333333
0.20442682523951106,0.9645833333333333
0.20517013544763793,0.9645833333333333
0.20517013544763793,0.9652777777777778
0.20545094152626361,0.9652777777777778
0.20545094152626361,0.9659722222222222
0.2062768417575157,0.9659722222222222
0.20630987776676576,0.9659722222222222
0.20741658407664354,0.9659722222222222
0.20744962008589363,0.9659722222222222
0.20820944829864552,0.9659722222222222
0.2082424843078956,0.9659722222222222
0.20825900231252065,0.9659722222222222
0.20829203832177073,0.9659722222222222
0.20878757846052196,0.9659722222222222
0.20882061446977204,0.9659722222222222
0.2094482986455236,0.9659722222222222
0.2094813346547737,0.9659722222222222
0.20961347869177405,0.9659722222222222
0.2096465147010241,0.9659722222222222
0.21169474727452925,0.9659722222222222
0.2117277832837793,0.9659722222222222
0.21232243145028082,0.9659722222222222
0.21235546745953088,0.9659722222222222
0.2127188635612818,0.9659722222222222
0.21275189957053187,0.9659722222222222
0.21313181367690784,0.9659722222222222
0.21313181367690784,0.9666666666666667
0.2158738024446647,0.9666666666666667
0.21590683845391476,0.9666666666666667
0.2169144367360423,0.9666666666666667
0.21694747274529236,0.9666666666666667
0.2177568549719194,0.9666666666666667
0.2177568549719194,0.9673611111111111
0.21937561942517345,0.9673611111111111
0.21940865543442353,0.9673611111111111
0.21968946151304922,0.9673611111111111
0.21968946151304922,0.9680555555555556
0.21977205153617443,0.9680555555555556
0.21980508754542452,0.9680555555555556
0.2213577799801784,0.9680555555555556
0.22139081598942847,0.9680555555555556
0.2242814667988107,0.9680555555555556
0.2242814667988107,0.96875
0.22474397092831186,0.96875
0.22477700693756195,0.96875
0.22565246118268914,0.96875
0.22568549719193923,0.96875
0.22581764122893955,0.96875
0.22585067723818963,0.96875
0.22750247770069376,0.96875
0.22753551370994385,0.96875
0.2278823918070697,0.96875
0.2279154278163198,0.96875
0.22806408985794516,0.96875
0.22809712586719524,0.96875
0.22961678229269905,0.96875
0.22964981830194914,0.96875
0.22976544433432441,0.96875
0.2297984803435745,0.96875
0.22981499834819955,0.96875
0.22984803435744963,0.96875
0.2321605550049554,0.96875
0.2321605550049554,0.9694444444444444
0.23353154938883383,0.9694444444444444
0.23356458539808392,0.9694444444444444
0.2344400396432111,0.9694444444444444
0.23447307565246117,0.9694444444444444
0.23571192599933927,0.9694444444444444
0.23574496200858935,0.9694444444444444
0.23810703666997027,0.9694444444444444
0.23814007267922035,0.9694444444444444
0.24086554344235217,0.9694444444444444
0.24089857945160226,0.9694444444444444
0.24179055170135447,0.9694444444444444
0.24179055170135447,0.9701388888888889
0.24365708622398413,0.9701388888888889
0.24365708622398413,0.9708333333333333
0.24377271225635944,0.9708333333333333
0.24377271225635944,0.9715277777777778
0.24593657086223983,0.9715277777777778
0.24593657086223983,0.9722222222222222
0.2518004625041295,0.9722222222222222
0.2518334985133796,0.9722222222222222
0.2519326065411298,0.9722222222222222
0.2519656425503799,0.9722222222222222
0.25429468120251075,0.9722222222222222
0.25432771721176084,0.9722222222222222
0.2550710274198877,0.9722222222222222
0.2551040634291378,0.9722222222222222
0.25786257020151965,0.9722222222222222
0.25789560621076973,0.9722222222222222
0.2596465147010241,0.9722222222222222
0.2596795507102742,0.9722222222222222
0.2602411628675256,0.9722222222222222
0.26027419887677566,0.9722222222222222
0.26106706309877764,0.9722222222222222
0.26110009910802773,0.9722222222222222
0.2621902874132805,0.9722222222222222
0.2622233234225306,0.9722222222222222
0.2626362735381566,0.9722222222222222
0.2626362735381566,0.9729166666666667
0.26313181367690786,0.9729166666666667
0.2631648496861579,0.9729166666666667
0.2634456557647836,0.9729166666666667
0.2634786917740337,0.9729166666666667
0.26570862239841425,0.9729166666666667
0.26574165840766434,0.9729166666666667
0.26605550049554016,0.9729166666666667
0.2660885365047902,0.9729166666666667
0.2666501486620416,0.9729166666666667
0.2666501486620416,0.9736111111111111
0.2672613148331682,0.9736111111111111
0.26729435084241826,0.9736111111111111
0.26793855302279485,0.9736111111111111
0.26797158903204493,0.9736111111111111
0.2685497191939214,0.9736111111111111
0.2685497191939214,0.9743055555555555
0.269210439378923,0.9743055555555555
0.2692434753881731,0.9743055555555555
0.270003303600925,0.9743055555555555
0.2700363396101751,0.9743055555555555
0.27249752229930624,0.9743055555555555
0.2725305583085563,0.9743055555555555
0.2741658407664354,0.9743055555555555
0.2741988767756855,0.9743055555555555
0.27502477700693756,0.9743055555555555
0.27505781301618765,0.9743055555555555
0.2757185332011893,0.9743055555555555
0.2757185332011893,0.975
0.2776676577469442,0.975
0.2776676577469442,0.9756944444444444
0.27778328377931943,0.9756944444444444
0.2778163197885695,0.9756944444444444
0.28194582094482984,0.9756944444444444
0.2819788569540799,0.9756944444444444
0.2829203832177073,0.9756944444444444
0.2829534192269574,0.9756944444444444
0.2856954079947142,0.9756944444444444
0.2856954079947142,0.9763888888888889
0.28709943838784274,0.9763888888888889
0.28713247439709283,0.9763888888888889
0.2883217707300958,0.9763888888888889
0.2883548067393459,0.9763888888888889
0.2904856293359762,0.9763888888888889
0.2905186653452263,0.9763888888888889
0.29159233564585396,0.9763888888888889
0.29162537165510405,0.9763888888888889
0.29357449620085896,0.9763888888888889
0.29357449620085896,0.9770833333333333
0.2947142385199868,0.9770833333333333
0.2947472745292369,0.9770833333333333
0.294796828543112,0.9770833333333333
0.2948298645523621,0.9770833333333333
0.29491245457548726,0.9770833333333333
0.29494549058473735,0.9770833333333333
0.29509415262636274,0.9770833333333333
0.2951271886356128,0.9770833333333333
0.2956392467789891,0.9770833333333333
0.2956722827882392,0.9770833333333333
0.2964651470102412,0.9770833333333333
0.2964651470102412,0.9777777777777777
0.2965972910472415,0.9777777777777777
0.29663032705649156,0.9777777777777777
0.2968285431119921,0.9777777777777777
0.29686157912124217,0.9777777777777777
0.30028080607862573,0.9777777777777777
0.30031384208787576,0.9777777777777777
0.30074331020812684,0.9777777777777777
0.3007763462173769,0.9777777777777777
0.30112322431450284,0.9777777777777777
0.30115626032375287,0.9777777777777777
0.3016518004625041,0.9777777777777777
0.3016518004625041,0.9784722222222222
0.3017178724810043,0.9784722222222222
0.3017178724810043,0.9791666666666666
0.30265939874463166,0.9791666666666666
0.30269243475388175,0.9791666666666666
0.30282457879088204,0.9791666666666666
0.3028410967955071,0.9798611111111111
0.3049223653782623,0.9798611111111111
0.30495540138751237,0.9798611111111111
0.3076808721506442,0.9798611111111111
0.3077139081598943,0.9798611111111111
0.30994383878427484,0.9798611111111111
0.3099768747935249,0.9798611111111111
0.31237198546415595,0.9798611111111111
0.312405021473406,0.9798611111111111
0.3156260323752891,0.9798611111111111
0.31565906838453917,0.9798611111111111
0.3159233564585398,0.9798611111111111
0.31598942847704,0.9798611111111111
0.3161711265279154,0.9798611111111111
0.3162041625371655,0.9798611111111111
0.3167327386851668,0.9798611111111111
0.3167657746944169,0.9798611111111111
0.3177568549719194,0.9798611111111111
0.3177568549719194,0.9805555555555555
0.3199372315824248,0.9805555555555555
0.3199372315824248,0.9819444444444444
0.3222827882391807,0.9819444444444444
0.3223158242484308,0.9819444444444444
0.322381896266931,0.9819444444444444
0.322414932276181,0.9819444444444444
0.32481004294681204,0.9819444444444444
0.3248430789560621,0.9819444444444444
0.3251569210439379,0.9819444444444444
0.325189957053188,0.9819444444444444
0.32846052196894615,0.9819444444444444
0.32849355797819624,0.9819444444444444
0.3295341922695738,0.9819444444444444
0.3295672282788239,0.9819444444444444
0.3311529567228279,0.9819444444444444
0.33118599273207794,0.9819444444444444
0.33123554674595307,0.9819444444444444
0.33126858275520316,0.9819444444444444
0.3313181367690783,0.9819444444444444
0.33138420878757846,0.9819444444444444
0.3325569871159564,0.9819444444444444
0.33259002312520647,0.9819444444444444
0.3328543111992071,0.9819444444444444
0.3328873472084572,0.9819444444444444
0.33448959365708625,0.9819444444444444
0.33455566567558637,0.9819444444444444
0.33533201189296336,0.9819444444444444
0.3353650479022134,0.9819444444444444
0.3358440700363396,0.9819444444444444
0.3358771060455897,0.9819444444444444
0.3362074661380905,0.9819444444444444
0.3362405021473406,0.9819444444444444
0.3389659729104724,0.9819444444444444
0.3389659729104724,0.9826388888888888
0.3389990089197225,0.9826388888888888
0.3390320449289726,0.9826388888888888
0.34050214734060125,0.9826388888888888
0.34053518334985133,0.9826388888888888
0.3420218037661051,0.9826388888888888
0.3420548397753551,0.9826388888888888
0.3441691443673604,0.9826388888888888
0.3442021803766105,0.9826388888888888
0.34532540469111334,0.9826388888888888
0.3453584407003634,0.9826388888888888
0.34545754872811363,0.9826388888888888
0.3454905847373637,0.9826388888888888
0.3475718533201189,0.9826388888888888
0.347604889329369,0.9826388888888888
0.3480343574496201,0.9826388888888888
0.3480343574496201,0.9833333333333333
0.34861248761149655,0.9833333333333333
0.34864552362074663,0.9833333333333333
0.3496366038982491,0.9833333333333333
0.34966963990749916,0.9833333333333333
0.350792864222002,0.9833333333333333
0.35082590023125204,0.9833333333333333
0.3511562603237529,0.9833333333333333
0.351189296333003,0.9833333333333333
0.35222993062438057,0.9833333333333333
0.35226296663363066,0.9833333333333333
0.35232903865213083,0.9833333333333333
0.3523620746613809,0.9833333333333333
0.35462504129501154,0.9833333333333333
0.35465807730426163,0.9833333333333333
0.3582259663032706,0.9833333333333333
0.35825900231252067,0.9833333333333333
0.35901883052527256,0.9833333333333333
0.35905186653452265,0.9833333333333333
0.36022464486290057,0.9833333333333333
0.36025768087215065,0.9833333333333333
0.36237198546415594,0.9833333333333333
0.36240502147340603,0.9833333333333333
0.3624380574826561,0.9833333333333333
0.3624710934919062,0.9833333333333333
0.36298315163528244,0.9833333333333333
0.36301618764453253,0.9833333333333333
0.3666005946481665,0.9833333333333333
0.3666336306574166,0.9833333333333333
0.36762471093491905,0.9833333333333333
0.36765774694416914,0.9833333333333333
0.36878097125867193,0.9833333333333333
0.368814007267922,0.9833333333333333
0.3706475057813016,0.9833333333333333
0.3706805417905517,0.9833333333333333
0.37193591014205485,0.9833333333333333
0.37196894615130494,0.9833333333333333
0.37289395441030726,0.9833333333333333
0.3729269904195573,0.9833333333333333
0.37409976874793527,0.9833333333333333
0.37413280475718536,0.9833333333333333
0.375206475057813,0.9833333333333333
0.3752395110670631,0.9833333333333333
0.37537165510406345,0.9833333333333333
0.37540469111331354,0.9833333333333333
0.3757515692104394,0.9833333333333333
0.3757846052196895,0.9833333333333333
0.3765609514370664,0.9833333333333333
0.3765939874463165,0.9833333333333333
0.3767261314833168,0.9833333333333333
0.3767261314833168,0.9840277777777777
0.37755203171456886,0.9840277777777777
0.37758506772381895,0.9840277777777777
0.37930294020482325,0.9840277777777777
0.37933597621407333,0.9840277777777777
0.3800958044268252,0.9840277777777777
0.3801288404360753,0.9840277777777777
0.3814833168153287,0.9840277777777777
0.3815163528245788,0.9840277777777777
0.38178064089857944,0.9840277777777777
0.3818136769078295,0.9840277777777777
0.3824248430789561,0.9840277777777777
0.38245787908820617,0.9840277777777777
0.382804757185332,0.9840277777777777
0.3828377931945821,0.9840277777777777
0.3834489593657086,0.9840277777777777
0.3834819953749587,0.9840277777777777
0.38437396762471093,0.9840277777777777
0.38437396762471093,0.9847222222222223
0.38485298975883714,0.9847222222222223
0.38485298975883714,0.9854166666666667
0.38711595639246776,0.9854166666666667
0.38714899240171785,0.9854166666666667
0.38889990089197224,0.9854166666666667
0.3889329369012223,0.9854166666666667
0.38923026098447305,0.9854166666666667
0.38926329699372314,0.9854166666666667
0.3902048232573505,0.9854166666666667
0.3902378592666006,0.9854166666666667
0.3904525933267261,0.9854166666666667
0.3904856293359762,0.9854166666666667
0.3915097456227288,0.9854166666666667
0.39154278163197886,0.9854166666666667
0.39306243805748264,0.9854166666666667
0.39309547406673273,0.9854166666666667
0.3942847703997357,0.9854166666666667
0.3943178064089858,0.9854166666666667
0.39547406673273866,0.9854166666666667
0.39550710274198875,0.9854166666666667
0.3961182689131153,0.9854166666666667
0.3961513049223654,0.9854166666666667
0.39922365378262303,0.9854166666666667
0.3992566897918731,0.9854166666666667
0.400792864222002,0.9854166666666667
0.4008259002312521,0.9854166666666667
0.4010406342913776,0.9854166666666667
0.4010736703006277,0.9854166666666667
0.40193260654112983,0.9854166666666667
0.4019656425503799,0.9854166666666667
0.40328708292038323,0.9854166666666667
0.4033201189296333,0.9854166666666667
0.40401387512388504,0.9854166666666667
0.4040469111331351,0.9854166666666667
0.40437727122563594,0.9854166666666667
0.404410307234886,0.9854166666666667
0.4075652461182689,0.9854166666666667
0.407598282127519,0.9854166666666667
0.4092831185992732,0.9854166666666667
0.4093161546085233,0.9854166666666667
0.40966303270564913,0.9854166666666667
0.4096960687148992,0.9854166666666667
0.41007598282127516,0.9854166666666667
0.41010901883052525,0.9854166666666667
0.4104724149322762,0.9854166666666667
0.41050545094152624,0.9854166666666667
0.41106706309877766,0.9854166666666667
0.41110009910802775,0.9854166666666667
0.41245457548728115,0.9854166666666667
0.41248761149653124,0.9854166666666667
0.41281797158903205,0.9854166666666667
0.41285100759828214,0.9854166666666667
0.4137925338619095,0.9854166666666667
0.41382556987115954,0.9854166666666667
0.41408985794516023,0.9854166666666667
0.4141228939544103,0.9854166666666667
0.41574165840766436,0.9854166666666667
0.41574165840766436,0.9861111111111112
0.4174264948794186,0.9861111111111112
0.41745953088866866,0.9861111111111112
0.41854971919392137,0.9861111111111112
0.41858275520317145,0.9861111111111112
0.4187148992401718,0.9861111111111112
0.4187479352494219,0.9861111111111112
0.418780971258672,0.9861111111111112
0.41881400726792206,0.9861111111111112
0.41894615130492235,0.9861111111111112
0.41894615130492235,0.9868055555555556
0.41909481334654775,0.9868055555555556
0.41912784935579783,0.9868055555555556
0.41945820944829865,0.9868055555555556
0.41949124545754873,0.9868055555555556
0.42132474397092834,0.9868055555555556
0.42135777998017837,0.9868055555555556
0.4230095804426825,0.9868055555555556
0.4230426164519326,0.9868055555555556
0.42340601255368354,0.9868055555555556
0.4234390485629336,0.9868055555555556
0.42358771060455896,0.9868055555555556
0.42362074661380905,0.9868055555555556
0.42446316484968616,0.9868055555555556
0.42449620085893625,0.9868055555555556
0.4250908490254377,0.9868055555555556
0.4251238850346878,0.9868055555555556
0.4277172117608193,0.9868055555555556
0.42775024777006937,0.9868055555555556
0.4290056161215725,0.9868055555555556
0.4290386521308226,0.9868055555555556
0.43225966303270563,0.9868055555555556
0.43225966303270563,0.9875
0.4322926990419557,0.9875
0.4323257350512058,0.9875
0.43496861579121243,0.9875
0.4350016518004625,0.9875
0.43549719193921377,0.9875
0.4355302279484638,0.9875
0.43771060455896926,0.9875
0.43774364056821935,0.9875
0.43858605880409646,0.9875
0.43861909481334654,0.9875
0.44018830525272545,0.9875
0.44022134126197554,0.9875
0.4422035018169805,0.9875
0.44223653782623057,0.9875
0.4439213742979848,0.9875
0.44395441030723487,0.9875
0.44565576478361413,0.9875
0.4456888007928642,0.9875
0.44785265939874463,0.9875
0.4478856954079947,0.9875
0.4489758837132474,0.9875
0.4490089197224975,0.9875
0.4493392798149983,0.9875
0.4493723158242484,0.9875
0.4494879418566237,0.9875
0.4495209778658738,0.9875
0.44998348199537497,0.9875
0.45001651800462505,0.9875
0.451205814337628,0.9875
0.4512388503468781,0.9875
0.455616121572514,0.9875
0.4556491575817641,0.9875
0.45753221010901884,0.9875
0.45756524611826893,0.9875
0.45792864222001983,0.9875
0.4579616782292699,0.9875
0.4584902543772712,0.9875
0.4585232903865213,0.9875
0.46242153947803105,0.9875
0.46245457548728114,0.9875
0.4630987776676577,0.9875
0.4631318136769078,0.9875
0.4641228939544103,0.9875
0.4641559299636604,0.9875
0.46541129831516354,0.9875
0.4654443343244136,0.9875
0.46709613478691775,0.9875
0.46712917079616784,0.9875
0.4710109018830525,0.9875
0.4710439378923026,0.9875
0.4758011232243145,0.9875
0.4758341592335646,0.9875
0.47606541129831514,0.9875
0.47606541129831514,0.9881944444444445
0.4806574165840766,0.9881944444444445
0.4806574165840766,0.9888888888888889
0.4844895936570862,0.9888888888888889
0.4845226296663363,0.9888888888888889
0.4859596960687149,0.9888888888888889
0.485992732077965,0.9888888888888889
0.4863230921704658,0.9888888888888889
0.4863561281797159,0.9888888888888889
0.4865213082259663,0.9888888888888889
0.4865543442352164,0.9888888888888889
0.48724810042946815,0.9888888888888889
0.4872811364387182,0.9888888888888889
0.49293029402048233,0.9888888888888889
0.4929633300297324,0.9888888888888889
0.4936736042286092,0.9888888888888889
0.49370664023785926,0.9888888888888889
0.4970102411628675,0.9888888888888889
0.4970432771721176,0.9888888888888889
0.4995705318797489,0.9888888888888889
0.499603567888999,0.9888888888888889
0.4999174099768748,0.9888888888888889
0.49995044598612487,0.9888888888888889
0.5038156590683845,0.9888888888888889
0.5038156590683845,0.9895833333333334
0.5061446977205154,0.9895833333333334
0.5061777337297655,0.9895833333333334
0.5066567558638917,0.9895833333333334
0.5066897918731417,0.9895833333333334
0.5067228278823918,0.9895833333333334
0.5067228278823918,0.9902777777777778
0.5094978526593987,0.9902777777777778
0.5095308886686488,0.9902777777777778
0.5102081268582755,0.9902777777777778
0.5102411628675256,0.9902777777777778
0.5143211100099108,0.9902777777777778
0.5143541460191609,0.9902777777777778
0.5145853980839115,0.9902777777777778
0.5146184340931615,0.9902777777777778
0.5148331681532871,0.9902777777777778
0.5148662041625371,0.9902777777777778
0.5178064089857946,0.9902777777777778
0.5178394449950446,0.9902777777777778
0.5179055170135448,0.9902777777777778
0.5179385530227949,0.9902777777777778
0.5208952758506772,0.9902777777777778
0.5209283118599273,0.9902777777777778
0.5227287743640568,0.9902777777777778
0.5227618103733069,0.9902777777777778
0.5229930624380574,0.9902777777777778
0.5230260984473075,0.9902777777777778
0.524380574826561,0.9902777777777778
0.5244136108358111,0.9902777777777778
0.5282623059134457,0.9902777777777778
0.5282953419226958,0.9902777777777778
0.5311034027089527,0.9902777777777778
0.5311364387182028,0.9902777777777778
0.5324909150974563,0.9902777777777778
0.5325239511067064,0.9902777777777778
0.5328377931945821,0.9902777777777778
0.5328708292038322,0.9902777777777778
0.5345061116617112,0.9902777777777778
0.5345391476709613,0.9902777777777778
0.5353815659068385,0.9902777777777778
0.5354146019160886,0.9902777777777778
0.5358605880409647,0.9902777777777778
0.5358936240502147,0.9902777777777778
0.5377106045589692,0.9902777777777778
0.5377436405682193,0.9902777777777778
0.5382061446977205,0.9902777777777778
0.5382061446977205,0.9909722222222223
0.5384869507763462,0.9909722222222223
0.5385199867855963,0.9909722222222223
0.5396762471093491,0.9909722222222223
0.5397092831185992,0.9909722222222223
0.5402543772712256,0.9909722222222223
0.5402543772712256,0.9916666666666667
0.5408820614469773,0.9916666666666667
0.5409150974562272,0.9916666666666667
0.5411463495209778,0.9916666666666667
0.5411793855302279,0.9916666666666667
0.5443343244136108,0.9916666666666667
0.5443673604228609,0.9916666666666667
0.5448629005616121,0.9916666666666667
0.5448959365708622,0.9916666666666667
0.5479022134126198,0.9916666666666667
0.5479352494218699,0.9916666666666667
0.5488272216716221,0.9916666666666667
0.5488602576808721,0.9916666666666667
0.5494714238519987,0.9916666666666667
0.5494714238519987,0.9923611111111111
0.5509084902543773,0.9923611111111111
0.5509415262636274,0.9923611111111111
0.5509745622728774,0.9923611111111111
0.5510075982821275,0.9923611111111111
0.5514370664023786,0.9923611111111111
0.5514701024116286,0.9923611111111111
0.5519821605550049,0.9923611111111111
0.552015196564255,0.9923611111111111
0.5522299306243805,0.9923611111111111
0.5522299306243805,0.9930555555555556
0.5531879748926329,0.9930555555555556
0.5531879748926329,0.99375
0.5543111992071358,0.99375
0.5543442352163859,0.99375
0.5552857614800132,0.99375
0.5553187974892633,0.99375
0.5566732738685167,0.99375
0.5567063098777668,0.99375
0.5580442682523951,0.99375
0.5580773042616451,0.99375
0.5598116947472745,0.99375
0.5598447307565246,0.99375
0.561182689131153,0.99375
0.5612157251404031,0.99375
0.5612983151635282,0.99375
0.5613313511727783,0.99375
0.5622398414271556,0.99375
0.5622728774364056,0.99375
0.5636273538156591,0.99375
0.5636603898249092,0.99375
0.5640733399405352,0.99375
0.5641063759497853,0.99375
0.5641724479682855,0.99375
0.5642054839775356,0.99375
0.5655104063429138,0.99375
0.5655434423521638,0.99375
0.5674264948794185,0.99375
0.5674595308886686,0.99375
0.5682028410967955,0.99375
0.5682358771060456,0.99375
0.5701519656425503,0.99375
0.5702180376610505,0.99375
0.5720680541790552,0.99375
0.5721010901883052,0.99375
0.5721341261975553,0.99375
0.5721671622068054,0.99375
0.57801453584407,0.99375
0.5780475718533201,0.99375
0.578377931945821,0.99375
0.5784109679550711,0.99375
0.581582424843079,0.99375
0.5816484968615792,0.99375
0.5822761810373307,0.99375
0.5823092170465808,0.99375
0.585629335976214,0.99375
0.5856623719854641,0.99375
0.587561942517344,0.99375
0.587594978526594,0.99375
0.5884208787578461,0.99375
0.5884208787578461,0.9944444444444445
0.5918896597291047,0.9944444444444445
0.5919226957383548,0.9944444444444445
0.5957383548067393,0.9944444444444445
0.5957713908159894,0.9944444444444445
0.5966963990749917,0.9944444444444445
0.5967294350842418,0.9944444444444445
0.5970267591674926,0.9944444444444445
0.5970597951767427,0.9944444444444445
0.6010901883052527,0.9944444444444445
0.6011232243145028,0.9944444444444445
0.6030227948463825,0.9944444444444445
0.6030558308556326,0.9944444444444445
0.6037000330360093,0.9944444444444445
0.6037330690452594,0.9944444444444445
0.6052857614800132,0.9944444444444445
0.6053187974892633,0.9944444444444445
0.6060621076973901,0.9944444444444445
0.6060951437066402,0.9944444444444445
0.6070862239841427,0.9944444444444445
0.6071192599933928,0.9944444444444445
0.6092500825900231,0.9944444444444445
0.6092831185992732,0.9944444444444445
0.6093822266270235,0.9944444444444445
0.6094152626362735,0.9944444444444445
0.6105715229600265,0.9944444444444445
0.6106045589692765,0.9944444444444445
0.6114634952097786,0.9944444444444445
0.6114965312190287,0.9944444444444445
0.615972910472415,0.9944444444444445
0.6160059464816651,0.9944444444444445
0.6174264948794186,0.9944444444444445
0.6174595308886687,0.9944444444444445
0.6188965972910473,0.9944444444444445
0.6189296333002974,0.9944444444444445
0.6222662702345557,0.9944444444444445
0.6222993062438057,0.9944444444444445
0.625189957053188,0.9944444444444445
0.625222993062438,0.9944444444444445
0.625999339279815,0.9944444444444445
0.6260323752890651,0.9944444444444445
0.6266930954740667,0.9944444444444445
0.6267261314833168,0.9944444444444445
0.6298645523620746,0.9944444444444445
0.6298975883713247,0.9944444444444445
0.6304757185332012,0.9944444444444445
0.6305087545424513,0.9944444444444445
0.631995374958705,0.9944444444444445
0.632028410967955,0.9944444444444445
0.6333663693425834,0.9944444444444445
0.6333994053518335,0.9944444444444445
0.6362735381565907,0.9944444444444445
0.6363065741658408,0.9944444444444445
0.6388503468780972,0.9944444444444445
0.6388833828873473,0.9944444444444445
0.6394945490584737,0.9944444444444445
0.6395275850677238,0.9944444444444445
0.6446646845061117,0.9944444444444445
0.6446977205153618,0.9944444444444445
0.6468780971258672,0.9944444444444445
0.6469111331351173,0.9944444444444445
0.6502642880740006,0.9944444444444445
0.6502973240832507,0.9944444444444445
0.6509910802775025,0.9944444444444445
0.6510241162867526,0.9944444444444445
0.6545424512718864,0.9944444444444445
0.6545754872811365,0.9944444444444445
0.6565080938222663,0.9944444444444445
0.6565411298315164,0.9944444444444445
0.6574331020812686,0.9944444444444445
0.6574661380905187,0.9944444444444445
0.6594317806408986,0.9944444444444445
0.6594648166501487,0.9944444444444445
0.6597456227287744,0.9944444444444445
0.6597786587380244,0.9944444444444445
0.6618268913115296,0.9944444444444445
0.6618599273207797,0.9944444444444445
0.6642220019821605,0.9944444444444445
0.6642550379914106,0.9944444444444445
0.6673934588701684,0.9944444444444445
0.6674264948794185,0.9944444444444445
0.6689626693095474,0.9944444444444445
0.6689957053187975,0.9944444444444445
0.6713908159894285,0.9944444444444445
0.6714238519986786,0.9944444444444445
0.6719689461513049,0.9944444444444445
0.672001982160555,0.9944444444444445
0.6761975553353154,0.9944444444444445
0.6762305913445655,0.9944444444444445
0.6764288074000661,0.9944444444444445
0.6764618434093161,0.9944444444444445
0.6813511727783284,0.9944444444444445
0.6813842087875784,0.9944444444444445
0.6820284109679551,0.9944444444444445
0.6820614469772052,0.9944444444444445
0.6831185992732078,0.9944444444444445
0.6831516352824579,0.9944444444444445
0.6832177073009581,0.9944444444444445
0.6832507433102081,0.9944444444444445
0.6836967294350842,0.9944444444444445
0.6837297654443343,0.9944444444444445
0.6857449620085894,0.9944444444444445
0.6857779980178395,0.9944444444444445
0.6898414271555996,0.9944444444444445
0.6898744631648497,0.9944444444444445
0.692021803766105,0.9944444444444445
0.6920548397753551,0.9944444444444445
0.6946977205153617,0.9944444444444445
0.6947307565246118,0.9944444444444445
0.6966303270564915,0.9944444444444445
0.6966633630657416,0.9944444444444445
0.6974397092831186,0.9944444444444445
0.6974727452923687,0.9944444444444445
0.7004625041295012,0.9944444444444445
0.7004955401387513,0.9944444444444445
0.7005616121572514,0.9944444444444445
0.7005946481665015,0.9944444444444445
0.7026924347538818,0.9944444444444445
0.7027254707631319,0.9944444444444445
0.7040469111331351,0.9944444444444445
0.7040799471423852,0.9944444444444445
0.7043607532210109,0.9944444444444445
0.704393789230261,0.9944444444444445
0.7074496200858936,0.9944444444444445
0.7074826560951437,0.9944444444444445
0.7080607862570202,0.9944444444444445
0.7080938222662703,0.9944444444444445
0.7083250743310208,0.9944444444444445
0.7083581103402709,0.9944444444444445
0.7097456227287744,0.9944444444444445
0.7097456227287744,0.9951388888888889
0.7161546085232904,0.9951388888888889
0.7161876445325405,0.9951388888888889
0.7172778328377932,0.9951388888888889
0.7173108688470433,0.9951388888888889
0.7196233894945491,0.9951388888888889
0.7196564255037992,0.9951388888888889
0.7202675916749257,0.9951388888888889
0.7203006276841758,0.9951388888888889
0.7204988437396762,0.9951388888888889
0.7205318797489263,0.9951388888888889
0.7238024446646845,0.9951388888888889
0.7238354806739346,0.9951388888888889
0.7251238850346878,0.9951388888888889
0.7251569210439379,0.9951388888888889
0.7259332672613148,0.9951388888888889
0.7259663032705649,0.9951388888888889
0.7262471093491906,0.9951388888888889
0.7262801453584407,0.9951388888888889
0.7265113974231913,0.9951388888888889
0.7265444334324414,0.9951388888888889
0.7265939874463165,0.9951388888888889
0.7266270234555666,0.9951388888888889
0.7312851007598282,0.9951388888888889
0.7313181367690783,0.9951388888888889
0.7315163528245788,0.9951388888888889
0.7315493888338289,0.9951388888888889
0.7345556656755864,0.9951388888888889
0.7345887016848365,0.9951388888888889
0.7354806739345887,0.9951388888888889
0.7355137099438388,0.9951388888888889
0.739197224975223,0.9951388888888889
0.7392302609844731,0.9951388888888889
0.7398579451602246,0.9951388888888889
0.7398909811694747,0.9951388888888889
0.7406508093822266,0.9951388888888889
0.7406838453914767,0.9951388888888889
0.7413941195903535,0.9951388888888889
0.7414271555996036,0.9951388888888889
0.74197224975223,0.9951388888888889
0.7420052857614801,0.9951388888888889
0.7461182689131153,0.9951388888888889
0.7461513049223654,0.9951388888888889
0.7466468450611167,0.9951388888888889
0.7466798810703666,0.9951388888888889
0.7474231912784935,0.9951388888888889
0.7474562272877436,0.9951388888888889
0.7476709613478691,0.9951388888888889
0.7477039973571192,0.9951388888888889
0.7479682854311199,0.9951388888888889
0.74800132144037,0.9951388888888889
0.749570531879749,0.9951388888888889
0.749603567888999,0.9951388888888889
0.7509580442682524,0.9951388888888889
0.7509910802775025,0.9951388888888889
0.753204492897258,0.9951388888888889
0.7532375289065081,0.9951388888888889
0.7551701354476379,0.9951388888888889
0.755203171456888,0.9951388888888889
0.7555830855632639,0.9951388888888889
0.7555830855632639,0.9958333333333333
0.7584737363726461,0.9958333333333333
0.7585067723818962,0.9958333333333333
0.7586884704327718,0.9958333333333333
0.7587545424512719,0.9958333333333333
0.7618268913115296,0.9958333333333333
0.7618599273207797,0.9958333333333333
0.7633961017509084,0.9958333333333333
0.7634291377601585,0.9958333333333333
0.7639081598942847,0.9958333333333333
0.7639411959035348,0.9958333333333333
0.7710604558969276,0.9958333333333333
0.7710934919061777,0.9958333333333333
0.7720845721836802,0.9958333333333333
0.7721176081929303,0.9958333333333333
0.7732573505120581,0.9958333333333333
0.7732903865213082,0.9958333333333333
0.7739015526924348,0.9958333333333333
0.7739345887016849,0.9958333333333333
0.7740667327386852,0.9958333333333333
0.7740997687479353,0.9958333333333333
0.7754542451271886,0.9958333333333333
0.7754872811364387,0.9958333333333333
0.7777998017839445,0.9958333333333333
0.7778328377931946,0.9958333333333333
0.7781136438718202,0.9958333333333333
0.7781466798810703,0.9958333333333333
0.7794516022464486,0.9958333333333333
0.7794846382556987,0.9958333333333333
0.7795507102741989,0.9958333333333333
0.779583746283449,0.9958333333333333
0.7805252725470763,0.9958333333333333
0.7805583085563264,0.9958333333333333
0.7820779649818302,0.9958333333333333
0.7821110009910803,0.9958333333333333
0.787231582424843,0.9958333333333333
0.7872646184340931,0.9958333333333333
0.7876775685497192,0.9958333333333333
0.7876775685497192,0.9965277777777778
0.7915592996366039,0.9965277777777778
0.791592335645854,0.9965277777777778
0.7919392137429798,0.9965277777777778
0.7919722497522299,0.9965277777777778
0.7930128840436075,0.9965277777777778
0.7930128840436075,0.9972222222222222
0.7953088866864882,0.9972222222222222
0.7953419226957383,0.9972222222222222
0.7959530888668649,0.9972222222222222
0.795986124876115,0.9972222222222222
0.7978196233894945,0.9972222222222222
0.7978526593987446,0.9972222222222222
0.7996696399074992,0.9972222222222222
0.7997026759167493,0.9972222222222222
0.8013875123885035,0.9972222222222222
0.8014205483977536,0.9972222222222222
0.8042286091840106,0.9972222222222222
0.8042616451932606,0.9972222222222222
0.804806739345887,0.9972222222222222
0.8048397753551371,0.9972222222222222
0.8059464816650148,0.9972222222222222
0.8059795176742649,0.9972222222222222
0.8080938222662702,0.9972222222222222
0.8081268582755203,0.9972222222222222
0.8094152626362735,0.9972222222222222
0.8094482986455236,0.9972222222222222
0.8128510075982821,0.9972222222222222
0.8128840436075322,0.9972222222222222
0.8137429798480343,0.9972222222222222
0.8137760158572844,0.9972222222222222
0.8158077304261645,0.9972222222222222
0.8158077304261645,0.9979166666666667
0.8161711265279155,0.9979166666666667
0.8162041625371655,0.9979166666666667
0.818417575156921,0.9979166666666667
0.818417575156921,0.9986111111111111
0.8194912454575487,0.9986111111111111
0.8195242814667988,0.9986111111111111
0.8223158242484307,0.9986111111111111
0.8223488602576808,0.9986111111111111
0.8235216385860588,0.9986111111111111
0.8235546745953088,0.9986111111111111
0.8237033366369343,0.9986111111111111
0.8237363726461844,0.9986111111111111
0.8239015526924347,0.9986111111111111
0.8239345887016848,0.9986111111111111
0.8241823587710605,0.9986111111111111
0.8242153947803106,0.9986111111111111
0.8253221010901883,0.9986111111111111
0.8253551370994384,0.9986111111111111
0.8261645193260654,0.9986111111111111
0.8261975553353155,0.9986111111111111
0.8282953419226957,0.9986111111111111
0.8283283779319458,0.9986111111111111
0.8327056491575817,0.9986111111111111
0.8327386851668318,0.9986111111111111
0.8351833498513379,0.9986111111111111
0.835216385860588,0.9986111111111111
0.8362405021473406,0.9986111111111111
0.8362735381565907,0.9986111111111111
0.8372646184340932,0.9986111111111111
0.8372976544433433,0.9986111111111111
0.8447307565246118,0.9986111111111111
0.8447637925338619,0.9986111111111111
0.8471258671952429,0.9986111111111111
0.8471258671952429,0.9993055555555556
0.8480839114634952,0.9993055555555556
0.8481169474727452,0.9993055555555556
0.8502973240832508,0.9993055555555556
0.8503303600925008,0.9993055555555556
0.850825900231252,0.9993055555555556
0.8508589362405021,0.9993055555555556
0.8527089527585068,0.9993055555555556
0.8527419887677569,0.9993055555555556
0.8538321770730096,0.9993055555555556
0.8538652130822597,0.9993055555555556
0.8545920052857615,0.9993055555555556
0.8546250412950116,0.9993055555555556
0.8555335315493888,0.9993055555555556
0.8555665675586389,0.9993055555555556
0.8572348860257681,0.9993055555555556
0.8572679220350181,0.9993055555555556
0.8581764122893955,0.9993055555555556
0.8582094482986455,0.9993055555555556
0.8634952097786588,0.9993055555555556
0.8635282457879088,0.9993055555555556
0.8672117608192931,0.9993055555555556
0.8672447968285432,0.9993055555555556
0.8682689131152956,0.9993055555555556
0.8683019491245457,0.9993055555555556
0.8683515031384209,0.9993055555555556
0.868384539147671,0.9993055555555556
0.8689296333002974,0.9993055555555556
0.8689957053187974,0.9993055555555556
0.8722332342253056,0.9993055555555556
0.8722662702345557,0.9993055555555556
0.8727783283779319,0.9993055555555556
0.872811364387182,0.9993055555555556
0.8735381565906839,0.9993055555555556
0.8735711925999339,0.9993055555555556
0.8742319127849356,0.9993055555555556
0.8742649487941857,0.9993055555555556
0.8743970928311859,0.9993055555555556
0.874430128840436,0.9993055555555556
0.875999339279815,0.9993055555555556
0.8760323752890651,0.9993055555555556
0.8769739015526924,0.9993055555555556
0.8770069375619425,0.9993055555555556
0.8797489263296994,0.9993055555555556
0.8797819623389495,0.9993055555555556
0.880029732408325,0.9993055555555556
0.8800627684175751,0.9993055555555556
0.8843409316154609,0.9993055555555556
0.884373967624711,0.9993055555555556
0.8849686157912124,0.9993055555555556
0.8850016518004625,0.9993055555555556
0.8865047902213412,0.9993055555555556
0.8865378262305913,0.9993055555555556
0.8881565906838453,0.9993055555555556
0.8881896266930954,0.9993055555555556
0.8907333994053518,0.9993055555555556
0.8907664354146019,0.9993055555555556
0.8913445655764783,0.9993055555555556
0.8913776015857284,0.9993055555555556
0.8974562272877437,0.9993055555555556
0.8974892632969937,0.9993055555555556
0.8979022134126198,0.9993055555555556
0.8979352494218699,0.9993055555555556
0.8996200858936241,0.9993055555555556
0.8996531219028742,0.9993055555555556
0.9017839444995045,0.9993055555555556
0.9018169805087546,0.9993055555555556
0.902411628675256,0.9993055555555556
0.9024446646845061,0.9993055555555556
0.9034852989758837,0.9993055555555556
0.9035183349851338,0.9993055555555556
0.9045589692765114,0.9993055555555556
0.9045920052857614,0.9993055555555556
0.9051205814337628,0.9993055555555556
0.9051536174430129,0.9993055555555556
0.9085067723818963,0.9993055555555556
0.9085398083911463,0.9993055555555556
0.9101750908490255,0.9993055555555556
0.9102081268582756,0.9993055555555556
0.9108523290386521,0.9993055555555556
0.9108853650479022,0.9993055555555556
0.9116782292699042,0.9993055555555556
0.9117112652791542,0.9993055555555556
0.9166336306574165,0.9993055555555556
0.9166666666666666,0.9993055555555556
0.9179220350181698,0.9993055555555556
0.9179550710274199,0.9993055555555556
0.9220680541790551,0.9993055555555556
0.9221010901883052,0.9993055555555556
0.9222993062438057,0.9993055555555556
0.9223653782623059,0.9993055555555556
0.923587710604559,0.9993055555555556
0.9236207466138091,0.9993055555555556
0.925999339279815,0.9993055555555556
0.9260323752890651,0.9993055555555556
0.9275355137099438,0.9993055555555556
0.9275685497191939,0.9993055555555556
0.9302609844730757,0.9993055555555556
0.9302940204823258,0.9993055555555556
0.9308556326395772,0.9993055555555556
0.9308886686488272,0.9993055555555556
0.9326395771390816,0.9993055555555556
0.9326726131483317,0.9993055555555556
0.9338949454905847,0.9993055555555556
0.9339279814998348,0.9993055555555556
0.9386190948133466,0.9993055555555556
0.9386521308225966,0.9993055555555556
0.9390815989428477,0.9993055555555556
0.9391146349520978,0.9993055555555556
0.9416584076643542,0.9993055555555556
0.9416914436736042,0.9993055555555556
0.947621407333994,0.9993055555555556
0.9476544433432441,0.9993055555555556
0.9489593657086224,0.9993055555555556
0.9489924017178725,0.9993055555555556
0.9514866204162538,0.9993055555555556
0.9515196564255038,0.9993055555555556
0.9558804096465147,0.9993055555555556
0.9559134456557647,0.9993055555555556
0.9561942517343904,0.9993055555555556
0.9562272877436405,0.9993055555555556
0.9566237198546416,0.9993055555555556
0.9566897918731417,0.9993055555555556
0.9585398083911464,0.9993055555555556
0.9585398083911464,1.0
0.9603898249091509,1.0
0.960422860918401,1.0
0.9614965312190288,1.0
0.9615295672282789,1.0
0.9646349520977866,1.0
0.9646679881070367,1.0
0.9666171126527915,1.0
0.9666501486620416,1.0
0.9675421209117938,1.0
0.9675751569210439,1.0
0.9679715890320449,1.0
0.968004625041295,1.0
0.9748926329699372,1.0
0.9749256689791873,1.0
0.9776841757515692,1.0
0.9777172117608193,1.0
0.9799141063759498,1.0
0.9799471423851999,1.0
0.9804757185332011,1.0
0.9805417905517013,1.0
0.9859596960687149,1.0
0.985992732077965,1.0
0.9905186653452263,1.0
0.9905517013544763,1.0
0.9924677898909812,1.0
0.9925008259002313,1.0
0.9974066732738686,1.0
0.9974397092831186,1.0
0.9976379253386191,1.0
0.9976709613478691,1.0
0.9988602576808722,1.0
0.9988932936901223,1.0
0.9990584737363727,1.0
0.9990915097456228,1.0
1.0,1.0
