fpr,tpr
0.0,0.0
0.0,0.0002745241581259151
0.0,0.0005490483162518302
0.0,0.0007320644216691069
0.0,0.0008235724743777453
0.0,0.001006588579795022
0.0,0.0029282576866764276
0.0,0.0031112737920937043
0.0,0.006954612005856516
5.037732617303604e-06,0.006954612005856516
5.037732617303604e-06,0.013817715959004393
5.037732617303604e-06,0.01400073206442167
5.037732617303604e-06,0.014092240117130308
5.037732617303604e-06,0.014275256222547585
5.037732617303604e-06,0.023151537335285504
5.037732617303604e-06,0.02333455344070278
5.037732617303604e-06,0.032210834553440704
5.037732617303604e-06,0.03239385065885798
5.037732617303604e-06,0.0522510980966325
5.037732617303604e-06,0.052434114202049784
5.037732617303604e-06,0.05481332357247438
1.0075465234607208e-05,0.05481332357247438
1.0075465234607208e-05,0.0636896046852123
1.5113197851910811e-05,0.0636896046852123
1.5113197851910811e-05,0.06817349926793558
2.0150930469214415e-05,0.06817349926793558
2.0150930469214415e-05,0.11228038067349927
2.0150930469214415e-05,0.11246339677891655
2.0150930469214415e-05,0.11685578330893119
2.0150930469214415e-05,0.11703879941434846
2.0150930469214415e-05,0.12188872620790629
2.518866308651802e-05,0.12188872620790629
2.518866308651802e-05,0.13122254758418742
2.518866308651802e-05,0.13140556368960468
2.518866308651802e-05,0.1383601756954612
2.518866308651802e-05,0.13854319180087848
2.518866308651802e-05,0.14101390922401172
2.518866308651802e-05,0.14119692532942898
2.518866308651802e-05,0.1481515373352855
3.0226395703821623e-05,0.1481515373352855
3.0226395703821623e-05,0.16334187408491949
3.0226395703821623e-05,0.16352489019033675
3.0226395703821623e-05,0.16846632503660322
3.526412832112523e-05,0.16846632503660322
3.526412832112523e-05,0.17139458272327965
4.030186093842883e-05,0.17139458272327965
4.030186093842883e-05,0.18649341142020498
4.533959355573244e-05,0.18649341142020498
4.533959355573244e-05,0.19125183016105418
5.037732617303604e-05,0.19125183016105418
5.037732617303604e-05,0.19436310395314788
5.5415058790339646e-05,0.19436310395314788
5.5415058790339646e-05,0.20763177159590043
6.0452791407643246e-05,0.20763177159590043
6.0452791407643246e-05,0.20790629575402636
6.549052402494685e-05,0.20790629575402636
6.549052402494685e-05,0.22053440702781846
6.549052402494685e-05,0.22071742313323572
6.549052402494685e-05,0.24176427525622254
7.052825664225046e-05,0.24176427525622254
7.052825664225046e-05,0.24579062957540262
7.052825664225046e-05,0.24597364568081992
7.052825664225046e-05,0.2638177159590044
7.556598925955406e-05,0.2638177159590044
7.556598925955406e-05,0.2663799414348463
8.060372187685766e-05,0.2663799414348463
8.060372187685766e-05,0.3127745241581259
8.564145449416126e-05,0.3127745241581259
8.564145449416126e-05,0.3141471449487555
9.067918711146488e-05,0.3141471449487555
9.067918711146488e-05,0.3154282576866764
9.571691972876848e-05,0.3154282576866764
9.571691972876848e-05,0.3163433382137628
0.00010075465234607208,0.3163433382137628
0.00010075465234607208,0.3166178623718887
0.00010579238496337569,0.3166178623718887
0.00010579238496337569,0.32073572474377743
0.00011083011758067929,0.32073572474377743
0.00011083011758067929,0.32403001464128844
0.00011586785019798289,0.32403001464128844
0.00011586785019798289,0.3317166910688141
0.00012090558281528649,0.3317166910688141
0.00012090558281528649,0.33528550512445093
0.0001259433154325901,0.33528550512445093
0.0001259433154325901,0.3406844802342606
0.0001309810480498937,0.3406844802342606
0.0001309810480498937,0.3418740849194729
0.00013601878066719732,0.3418740849194729
0.00013601878066719732,0.3579795021961933
0.00014105651328450092,0.3579795021961933
0.00014105651328450092,0.358803074670571
0.00014609424590180452,0.358803074670571
0.00014609424590180452,0.3702415812591508
0.00015113197851910812,0.3702415812591508
0.00015113197851910812,0.3717972181551977
0.00015616971113641172,0.3717972181551977
0.00015616971113641172,0.37481698389458273
0.00016120744375371532,0.37481698389458273
0.00016120744375371532,0.375
0.00016624517637101892,0.375
0.00016624517637101892,0.3782027818448023
0.00017128290898832252,0.3782027818448023
0.00017128290898832252,0.38753660322108346
0.00017632064160562615,0.38753660322108346
0.00017632064160562615,0.39705344070278187
0.00018135837422292975,0.39705344070278187
0.00018135837422292975,0.4037335285505124
0.00018639610684023335,0.4037335285505124
0.00018639610684023335,0.40739385065885797
0.00019143383945753695,0.40739385065885797
0.00019143383945753695,0.41114568081991215
0.00019647157207484055,0.41114568081991215
0.00019647157207484055,0.41279282576866766
0.00020150930469214415,0.41279282576866766
0.00020150930469214415,0.41544655929721813
0.00020654703730944775,0.41544655929721813
0.00020654703730944775,0.4155380673499268
0.00021158476992675138,0.4155380673499268
0.00021158476992675138,0.4158125915080527
0.00021662250254405498,0.4158125915080527
0.00021662250254405498,0.4162701317715959
0.00022669796777866218,0.4162701317715959
0.00022669796777866218,0.41928989751098095
0.00023173570039596578,0.41928989751098095
0.00023173570039596578,0.4203879941434846
0.00023677343301326938,0.4203879941434846
0.00023677343301326938,0.42121156661786235
0.00024181116563057298,0.42121156661786235
0.00024181116563057298,0.4232247437774524
0.0002468488982478766,0.4232247437774524
0.0002468488982478766,0.4248718887262079
0.0002518866308651802,0.4248718887262079
0.0002518866308651802,0.4283491947291362
0.0002569243634824838,0.4283491947291362
0.0002569243634824838,0.4302708638360176
0.0002619620960997874,0.4302708638360176
0.0002619620960997874,0.43292459736456806
0.000266999828717091,0.43292459736456806
0.000266999828717091,0.43502928257686674
0.00027203756133439464,0.43502928257686674
0.00027203756133439464,0.4355783308931186
0.0002770752939516982,0.4355783308931186
0.0002770752939516982,0.4367679355783309
0.00028211302656900184,0.4367679355783309
0.00028211302656900184,0.4498535871156662
0.0002871507591863054,0.4498535871156662
0.0002871507591863054,0.45195827232796487
0.00029218849180360904,0.45195827232796487
0.00029218849180360904,0.452690336749634
0.0002972262244209126,0.452690336749634
0.0002972262244209126,0.45525256222547583
0.00030226395703821624,0.45525256222547583
0.00030226395703821624,0.4592789165446559
0.0003073016896555198,0.4592789165446559
0.0003073016896555198,0.4639458272327965
0.00031233942227282344,0.4639458272327965
0.00031233942227282344,0.46513543191800877
0.00031737715489012707,0.46513543191800877
0.00031737715489012707,0.4662335285505124
0.00032241488750743065,0.4662335285505124
0.00032241488750743065,0.4665080527086384
0.00032745262012473427,0.4665080527086384
0.00032745262012473427,0.4704428989751098
0.00033249035274203785,0.4704428989751098
0.00033249035274203785,0.4715409956076135
0.0003375280853593415,0.4715409956076135
0.0003375280853593415,0.471907027818448
0.00034256581797664505,0.471907027818448
0.00034256581797664505,0.47273060029282576
0.0003476035505939487,0.47273060029282576
0.0003476035505939487,0.4741032210834553
0.0003526412832112523,0.4741032210834553
0.0003526412832112523,0.47739751098096633
0.0003576790158285559,0.47739751098096633
0.0003576790158285559,0.47748901903367497
0.0003627167484458595,0.47748901903367497
0.0003627167484458595,0.4788616398243045
0.0003677544810631631,0.4788616398243045
0.0003677544810631631,0.4801427525622255
0.0003727922136804667,0.4801427525622255
0.0003727922136804667,0.4823389458272328
0.0003778299462977703,0.4823389458272328
0.0003778299462977703,0.4836200585651537
0.0003828676789150739,0.4836200585651537
0.0003828676789150739,0.487097364568082
0.00038790541153237753,0.487097364568082
0.00038790541153237753,0.48773792093704244
0.0003929431441496811,0.48773792093704244
0.0003929431441496811,0.4889275256222548
0.00039798087676698473,0.4889275256222548
0.00039798087676698473,0.48975109809663253
0.0004030186093842883,0.48975109809663253
0.0004030186093842883,0.49066617862371886
0.0004130940746188955,0.49066617862371886
0.0004130940746188955,0.49231332357247437
0.00041813180723619913,0.49231332357247437
0.00041813180723619913,0.49478404099560763
0.00042316953985350276,0.49478404099560763
0.00042316953985350276,0.49533308931185943
0.00042820727247080634,0.49533308931185943
0.00042820727247080634,0.4958821376281113
0.00043324500508810996,0.4958821376281113
0.00043324500508810996,0.49798682284040996
0.00043828273770541354,0.49798682284040996
0.00043828273770541354,0.49826134699853586
0.00044332047032271716,0.49826134699853586
0.00044332047032271716,0.4984443631039531
0.00044835820294002074,0.4984443631039531
0.00044835820294002074,0.5008235724743777
0.00045339593555732436,0.5008235724743777
0.00045339593555732436,0.5011896046852123
0.00045843366817462794,0.5011896046852123
0.00045843366817462794,0.5015556368960469
0.00046347140079193157,0.5015556368960469
0.00046347140079193157,0.5038433382137628
0.0004685091334092352,0.5038433382137628
0.0004685091334092352,0.5069546120058566
0.00047354686602653877,0.5069546120058566
0.00047354686602653877,0.5079612005856515
0.0004785845986438424,0.5079612005856515
0.0004785845986438424,0.5080527086383602
0.00048362233126114597,0.5080527086383602
0.00048362233126114597,0.5090592972181552
0.0004886600638784495,0.5090592972181552
0.0004886600638784495,0.5096998535871157
0.0004936977964957532,0.5096998535871157
0.0004936977964957532,0.5097913616398243
0.0004987355291130568,0.5097913616398243
0.0004987355291130568,0.510614934114202
0.0005037732617303604,0.510614934114202
0.0005037732617303604,0.5107064421669106
0.0005138487269649676,0.5107064421669106
0.0005138487269649676,0.5119875549048316
0.0005188864595822712,0.5119875549048316
0.0005188864595822712,0.5125366032210834
0.0005239241921995748,0.5125366032210834
0.0005239241921995748,0.5127196193265008
0.000533999657434182,0.5127196193265008
0.000533999657434182,0.5130856515373353
0.0005390373900514856,0.5130856515373353
0.0005390373900514856,0.5134516837481699
0.0005440751226687893,0.5134516837481699
0.0005440751226687893,0.5135431918008785
0.0005491128552860929,0.5135431918008785
0.0005491128552860929,0.5140007320644217
0.0005541505879033964,0.5140007320644217
0.0005541505879033964,0.5146412884333821
0.0005591883205207,0.5146412884333821
0.0005591883205207,0.5167459736456809
0.0005642260531380037,0.5167459736456809
0.0005642260531380037,0.5178440702781845
0.0005692637857553073,0.5178440702781845
0.0005692637857553073,0.5185761346998536
0.0005743015183726108,0.5185761346998536
0.0005743015183726108,0.5191251830161054
0.0005793392509899145,0.5191251830161054
0.0005793392509899145,0.5195827232796486
0.0005843769836072181,0.5195827232796486
0.0005843769836072181,0.520223279648609
0.0005894147162245217,0.520223279648609
0.0005894147162245217,0.5203147877013177
0.0005944524488418252,0.5203147877013177
0.0005944524488418252,0.5220534407027818
0.0005994901814591289,0.5220534407027818
0.0005994901814591289,0.5226939970717424
0.0006146033793110396,0.5226939970717424
0.0006146033793110396,0.5237005856515373
0.0006196411119283433,0.5237005856515373
0.0006196411119283433,0.5250732064421669
0.0006297165771629505,0.5250732064421669
0.0006297165771629505,0.5267203513909224
0.0006347543097802541,0.5267203513909224
0.0006347543097802541,0.5268118594436311
0.0006397920423975577,0.5268118594436311
0.0006397920423975577,0.5272693997071742
0.0006448297750148613,0.5272693997071742
0.0006448297750148613,0.5279099560761347
0.0006498675076321649,0.5279099560761347
0.0006498675076321649,0.5295571010248902
0.0006549052402494685,0.5295571010248902
0.0006549052402494685,0.5305636896046853
0.0006649807054840757,0.5305636896046853
0.0006649807054840757,0.5312042459736457
0.0006700184381013794,0.5312042459736457
0.0006700184381013794,0.5312957540263543
0.000675056170718683,0.5312957540263543
0.000675056170718683,0.5314787701317716
0.0006800939033359865,0.5314787701317716
0.0006800939033359865,0.5328513909224012
0.0006851316359532901,0.5328513909224012
0.0006851316359532901,0.5332174231332357
0.0007002448338052009,0.5332174231332357
0.0007002448338052009,0.5334919472913616
0.0007052825664225046,0.5334919472913616
0.0007052825664225046,0.5335834553440703
0.0007103202990398082,0.5335834553440703
0.0007103202990398082,0.5337664714494875
0.0007153580316571118,0.5337664714494875
0.0007153580316571118,0.5345900439238653
0.000725433496891719,0.5345900439238653
0.000725433496891719,0.535413616398243
0.0007304712295090226,0.535413616398243
0.0007304712295090226,0.5371522693997072
0.0007355089621263262,0.5371522693997072
0.0007355089621263262,0.5372437774524158
0.0007405466947436298,0.5372437774524158
0.0007405466947436298,0.5379758418740849
0.0007455844273609334,0.5379758418740849
0.0007455844273609334,0.5405380673499268
0.000750622159978237,0.5405380673499268
0.000750622159978237,0.541727672035139
0.0007556598925955406,0.541727672035139
0.0007556598925955406,0.5426427525622255
0.0007606976252128442,0.5426427525622255
0.0007606976252128442,0.5427342606149341
0.0007657353578301478,0.5427342606149341
0.0007657353578301478,0.5428257686676428
0.0007707730904474514,0.5428257686676428
0.0007707730904474514,0.5440153733528551
0.0007758108230647551,0.5440153733528551
0.0007758108230647551,0.5441983894582724
0.0007808485556820586,0.5441983894582724
0.0007808485556820586,0.5450219619326501
0.0007858862882993622,0.5450219619326501
0.0007858862882993622,0.545296486090776
0.0007909240209166658,0.545296486090776
0.0007909240209166658,0.5464860907759883
0.0007959617535339695,0.5464860907759883
0.0007959617535339695,0.547309663250366
0.000800999486151273,0.547309663250366
0.000800999486151273,0.5478587115666179
0.0008060372187685766,0.5478587115666179
0.0008060372187685766,0.5481332357247438
0.0008110749513858803,0.5481332357247438
0.0008110749513858803,0.548590775988287
0.000826188149237791,0.548590775988287
0.000826188149237791,0.5491398243045388
0.0008312258818550947,0.5491398243045388
0.0008312258818550947,0.5501464128843339
0.0008362636144723983,0.5501464128843339
0.0008362636144723983,0.5510614934114202
0.0008463390797070055,0.5510614934114202
0.0008463390797070055,0.5511530014641288
0.0008513768123243091,0.5511530014641288
0.0008513768123243091,0.5515190336749634
0.0008564145449416127,0.5515190336749634
0.0008564145449416127,0.5531661786237189
0.0008614522775589162,0.5531661786237189
0.0008614522775589162,0.5555453879941434
0.0008664900101762199,0.5555453879941434
0.0008664900101762199,0.5556368960468521
0.0008715277427935235,0.5556368960468521
0.0008715277427935235,0.5558199121522694
0.0008765654754108271,0.5558199121522694
0.0008765654754108271,0.5559114202049781
0.0008816032080281306,0.5559114202049781
0.0008816032080281306,0.5565519765739385
0.0008866409406454343,0.5565519765739385
0.0008866409406454343,0.5578330893118595
0.0008916786732627379,0.5578330893118595
0.0008916786732627379,0.5588396778916545
0.0008967164058800415,0.5588396778916545
0.0008967164058800415,0.5591142020497804
0.0009017541384973452,0.5591142020497804
0.0009017541384973452,0.5599377745241582
0.0009118296037319523,0.5599377745241582
0.0009118296037319523,0.5615849194729137
0.0009168673363492559,0.5615849194729137
0.0009168673363492559,0.5618594436310396
0.0009219050689665596,0.5618594436310396
0.0009219050689665596,0.5619509516837482
0.0009269428015838631,0.5619509516837482
0.0009269428015838631,0.5620424597364568
0.0009319805342011667,0.5620424597364568
0.0009319805342011667,0.5634150805270863
0.0009370182668184704,0.5634150805270863
0.0009370182668184704,0.5651537335285505
0.000942055999435774,0.5651537335285505
0.000942055999435774,0.5656112737920937
0.0009470937320530775,0.5656112737920937
0.0009470937320530775,0.5658857979502196
0.0009521314646703811,0.5658857979502196
0.0009521314646703811,0.5661603221083455
0.0009571691972876848,0.5661603221083455
0.0009571691972876848,0.5662518301610542
0.0009622069299049884,0.5662518301610542
0.0009622069299049884,0.566800878477306
0.0009672446625222919,0.566800878477306
0.0009672446625222919,0.5673499267935578
0.0009722823951395956,0.5673499267935578
0.0009722823951395956,0.5678074670571011
0.000977320127756899,0.5678074670571011
0.000977320127756899,0.5678989751098097
0.0009823578603742028,0.5678989751098097
0.0009823578603742028,0.5687225475841874
0.0009873955929915064,0.5687225475841874
0.0009873955929915064,0.5690885797950219
0.00099243332560881,0.5690885797950219
0.00099243332560881,0.5693631039531479
0.0009974710582261136,0.5693631039531479
0.0009974710582261136,0.5694546120058566
0.0010025087908434173,0.5694546120058566
0.0010025087908434173,0.5696376281112738
0.0010075465234607207,0.5696376281112738
0.0010075465234607207,0.5698206442166911
0.0010125842560780244,0.5698206442166911
0.0010125842560780244,0.570095168374817
0.001017621988695328,0.570095168374817
0.001017621988695328,0.5703696925329429
0.0010226597213126316,0.5703696925329429
0.0010226597213126316,0.5705527086383602
0.0010276974539299352,0.5705527086383602
0.0010276974539299352,0.5711932650073206
0.0010327351865472387,0.5711932650073206
0.0010327351865472387,0.5718338213762811
0.0010377729191645424,0.5718338213762811
0.0010377729191645424,0.5724743777452416
0.001042810651781846,0.5724743777452416
0.001042810651781846,0.5729319180087847
0.0010528861170164532,0.5729319180087847
0.0010528861170164532,0.5730234260614934
0.001057923849633757,0.5730234260614934
0.001057923849633757,0.5732064421669106
0.0010629615822510604,0.5732064421669106
0.0010629615822510604,0.5740300146412884
0.001067999314868364,0.5740300146412884
0.001067999314868364,0.5746705710102489
0.0010730370474856677,0.5746705710102489
0.0010730370474856677,0.5748535871156661
0.0010780747801029712,0.5748535871156661
0.0010780747801029712,0.5749450951683748
0.0010831125127202749,0.5749450951683748
0.0010831125127202749,0.5750366032210834
0.0010881502453375786,0.5750366032210834
0.0010881502453375786,0.575128111273792
0.001093187977954882,0.575128111273792
0.001093187977954882,0.575402635431918
0.0010982257105721857,0.575402635431918
0.0010982257105721857,0.5754941434846267
0.0011032634431894892,0.5754941434846267
0.0011032634431894892,0.5755856515373353
0.0011083011758067929,0.5755856515373353
0.0011083011758067929,0.5763177159590044
0.0011234143736587037,0.5763177159590044
0.0011234143736587037,0.5771412884333821
0.0011334898388933108,0.5771412884333821
0.0011334898388933108,0.5783308931185944
0.0011385275715106145,0.5783308931185944
0.0011385275715106145,0.5784224011713031
0.001158678501979829,0.5784224011713031
0.001158678501979829,0.5786054172767203
0.0011737916998317396,0.5786054172767203
0.0011737916998317396,0.578696925329429
0.0011788294324490433,0.578696925329429
0.0011788294324490433,0.5789714494875549
0.0011889048976836505,0.5789714494875549
0.0011889048976836505,0.5792459736456809
0.0011989803629182578,0.5792459736456809
0.0011989803629182578,0.5794289897510981
0.001209055828152865,0.5794289897510981
0.001209055828152865,0.5795204978038068
0.0012140935607701687,0.5795204978038068
0.0012140935607701687,0.5798865300146413
0.0012191312933874721,0.5798865300146413
0.0012191312933874721,0.5818997071742313
0.0012241690260047758,0.5818997071742313
0.0012241690260047758,0.5836383601756955
0.0012292067586220793,0.5836383601756955
0.0012292067586220793,0.58400439238653
0.0012392822238566866,0.58400439238653
0.0012392822238566866,0.5841874084919473
0.00124431995647399,0.5841874084919473
0.00124431995647399,0.5842789165446559
0.0012493576890912938,0.5842789165446559
0.0012493576890912938,0.5846449487554904
0.0012543954217085975,0.5846449487554904
0.0012543954217085975,0.5851024890190337
0.0012644708869432046,0.5851024890190337
0.0012644708869432046,0.5854685212298683
0.0012695086195605083,0.5854685212298683
0.0012695086195605083,0.5856515373352855
0.0012745463521778118,0.5856515373352855
0.0012745463521778118,0.5857430453879942
0.0012795840847951154,0.5857430453879942
0.0012795840847951154,0.586292093704246
0.0012846218174124191,0.586292093704246
0.0012846218174124191,0.5865666178623719
0.0012946972826470263,0.5865666178623719
0.0012946972826470263,0.5872071742313324
0.0012997350152643297,0.5872071742313324
0.0012997350152643297,0.587298682284041
0.0013047727478816334,0.587298682284041
0.0013047727478816334,0.5873901903367497
0.001309810480498937,0.5873901903367497
0.001309810480498937,0.5875732064421669
0.0013148482131162406,0.5875732064421669
0.0013148482131162406,0.5881222547584187
0.0013198859457335442,0.5881222547584187
0.0013198859457335442,0.588305270863836
0.0013299614109681514,0.588305270863836
0.0013299614109681514,0.5889458272327965
0.001350112341437366,0.5889458272327965
0.001350112341437366,0.5894033674963397
0.0013551500740546696,0.5894033674963397
0.0013551500740546696,0.5896778916544656
0.0013652255392892767,0.5896778916544656
0.0013652255392892767,0.5905014641288433
0.0013753010045238839,0.5905014641288433
0.0013753010045238839,0.5905929721815519
0.0013904142023757947,0.5905929721815519
0.0013904142023757947,0.5912335285505125
0.0013954519349930984,0.5912335285505125
0.0013954519349930984,0.5914165446559297
0.0014055274002277055,0.5914165446559297
0.0014055274002277055,0.593887262079063
0.0014105651328450092,0.593887262079063
0.0014105651328450092,0.5940702781844802
0.0014307160633142235,0.5940702781844802
0.0014307160633142235,0.5941617862371888
0.0014357537959315272,0.5941617862371888
0.0014357537959315272,0.5951683748169839
0.0014407915285488306,0.5951683748169839
0.0014407915285488306,0.5952598828696926
0.001450866993783438,0.5952598828696926
0.001450866993783438,0.595900439238653
0.0014559047264007415,0.595900439238653
0.0014559047264007415,0.5959919472913616
0.0014609424590180452,0.5959919472913616
0.0014609424590180452,0.5961749633967789
0.0014710179242526523,0.5961749633967789
0.0014710179242526523,0.5972730600292826
0.0014810933894872597,0.5972730600292826
0.0014810933894872597,0.5975475841874085
0.0014861311221045631,0.5975475841874085
0.0014861311221045631,0.5980051244509517
0.0014911688547218668,0.5980051244509517
0.0014911688547218668,0.5981881405563689
0.0014962065873391703,0.5981881405563689
0.0014962065873391703,0.5985541727672035
0.001501244319956474,0.5985541727672035
0.001501244319956474,0.5989202049780381
0.0015062820525737776,0.5989202049780381
0.0015062820525737776,0.5990117130307467
0.0015163575178083848,0.5990117130307467
0.0015163575178083848,0.5997437774524158
0.0015213952504256885,0.5997437774524158
0.0015213952504256885,0.6009333821376281
0.001526432983042992,0.6009333821376281
0.001526432983042992,0.6015739385065886
0.0015314707156602956,0.6015739385065886
0.0015314707156602956,0.6023975109809663
0.0015365084482775993,0.6023975109809663
0.0015365084482775993,0.6026720351390923
0.0015465839135122064,0.6026720351390923
0.0015465839135122064,0.6032210834553441
0.0015566593787468136,0.6032210834553441
0.0015566593787468136,0.6044106881405563
0.0015616971113641173,0.6044106881405563
0.0015616971113641173,0.6045021961932651
0.001576810309216028,0.6045021961932651
0.001576810309216028,0.6045937042459737
0.001591923507067939,0.6045937042459737
0.001591923507067939,0.6046852122986823
0.0015969612396852424,0.6046852122986823
0.0015969612396852424,0.6049597364568082
0.001601998972302546,0.6049597364568082
0.001601998972302546,0.6050512445095169
0.0016070367049198498,0.6050512445095169
0.0016070367049198498,0.6053257686676428
0.0016120744375371532,0.6053257686676428
0.0016120744375371532,0.6054172767203514
0.0016221499027717606,0.6054172767203514
0.0016221499027717606,0.6060578330893118
0.001627187635389064,0.6060578330893118
0.001627187635389064,0.6061493411420205
0.0016322253680063677,0.6061493411420205
0.0016322253680063677,0.606789897510981
0.001652376298475582,0.606789897510981
0.001652376298475582,0.6068814055636896
0.0016624517637101894,0.6068814055636896
0.0016624517637101894,0.6072474377745242
0.0016775649615621002,0.6072474377745242
0.0016775649615621002,0.6073389458272328
0.0016826026941794037,0.6073389458272328
0.0016826026941794037,0.6075219619326501
0.001692678159414011,0.6075219619326501
0.001692678159414011,0.607796486090776
0.0017077913572659217,0.607796486090776
0.0017077913572659217,0.6083455344070278
0.0017128290898832253,0.6083455344070278
0.0017128290898832253,0.6092606149341142
0.001717866822500529,0.6092606149341142
0.001717866822500529,0.6096266471449487
0.0017229045551178325,0.6096266471449487
0.0017229045551178325,0.609809663250366
0.0017279422877351362,0.609809663250366
0.0017279422877351362,0.6099011713030746
0.0017329800203524399,0.6099011713030746
0.0017329800203524399,0.6102672035139092
0.0017480932182043507,0.6102672035139092
0.0017480932182043507,0.6104502196193266
0.0017531309508216541,0.6104502196193266
0.0017531309508216541,0.6108162518301611
0.0017581686834389578,0.6108162518301611
0.0017581686834389578,0.6114568081991215
0.0017632064160562613,0.6114568081991215
0.0017632064160562613,0.6120058565153733
0.0017833573465254758,0.6120058565153733
0.0017833573465254758,0.612097364568082
0.001793432811760083,0.612097364568082
0.001793432811760083,0.6126464128843339
0.0017984705443773866,0.6126464128843339
0.0017984705443773866,0.6127379209370425
0.0018085460096119938,0.6127379209370425
0.0018085460096119938,0.6130124450951684
0.0018135837422292975,0.6130124450951684
0.0018135837422292975,0.6131954612005857
0.0018236592074639046,0.6131954612005857
0.0018236592074639046,0.6132869692532943
0.0018286969400812083,0.6132869692532943
0.0018286969400812083,0.6135614934114202
0.0018337346726985118,0.6135614934114202
0.0018337346726985118,0.6155746705710102
0.0018387724053158154,0.6155746705710102
0.0018387724053158154,0.6160322108345534
0.0018488478705504226,0.6160322108345534
0.0018488478705504226,0.6165812591508053
0.0018538856031677263,0.6165812591508053
0.0018538856031677263,0.6166727672035139
0.00185892333578503,0.6166727672035139
0.00185892333578503,0.6168557833089312
0.0018639610684023334,0.6168557833089312
0.0018639610684023334,0.6170387994143485
0.0018790742662542442,0.6170387994143485
0.0018790742662542442,0.6171303074670571
0.001884111998871548,0.6171303074670571
0.001884111998871548,0.6175878477306003
0.0018891497314888516,0.6175878477306003
0.0018891497314888516,0.6176793557833089
0.001894187464106155,0.6176793557833089
0.001894187464106155,0.6181368960468521
0.0018992251967234587,0.6181368960468521
0.0018992251967234587,0.6185029282576867
0.0019042629293407622,0.6185029282576867
0.0019042629293407622,0.618685944363104
0.001909300661958066,0.618685944363104
0.001909300661958066,0.6190519765739385
0.001919376127192673,0.6190519765739385
0.001919376127192673,0.6193265007320644
0.0019244138598099767,0.6193265007320644
0.0019244138598099767,0.6195095168374817
0.0019344893250445839,0.6195095168374817
0.0019344893250445839,0.6196925329428989
0.0019395270576618876,0.6196925329428989
0.0019395270576618876,0.6199670571010248
0.0019445647902791912,0.6199670571010248
0.0019445647902791912,0.6202415812591509
0.0019496025228964947,0.6202415812591509
0.0019496025228964947,0.6203330893118595
0.001954640255513798,0.6203330893118595
0.001954640255513798,0.6209736456808199
0.001959677988131102,0.6209736456808199
0.001959677988131102,0.6210651537335286
0.0019647157207484055,0.6210651537335286
0.0019647157207484055,0.6216142020497804
0.001969753453365709,0.6216142020497804
0.001969753453365709,0.6220717423133236
0.001974791185983013,0.6220717423133236
0.001974791185983013,0.6221632503660323
0.0019798289186003164,0.6221632503660323
0.0019798289186003164,0.6224377745241582
0.0019899043838349237,0.6224377745241582
0.0019899043838349237,0.6225292825768668
0.001994942116452227,0.6225292825768668
0.001994942116452227,0.6231698389458272
0.0019999798490695306,0.6231698389458272
0.0019999798490695306,0.6238103953147877
0.002010055314304138,0.6238103953147877
0.002010055314304138,0.6240849194729137
0.0020201307795387454,0.6240849194729137
0.0020201307795387454,0.6244509516837482
0.002025168512156049,0.6244509516837482
0.002025168512156049,0.6246339677891655
0.0020302062447733523,0.6246339677891655
0.0020302062447733523,0.6247254758418741
0.0020402817100079597,0.6247254758418741
0.0020402817100079597,0.6248169838945827
0.002050357175242567,0.6248169838945827
0.002050357175242567,0.6249084919472914
0.002060432640477174,0.6249084919472914
0.002060432640477174,0.6254575402635432
0.0020654703730944774,0.6254575402635432
0.0020654703730944774,0.6255490483162518
0.0020705081057117813,0.6255490483162518
0.0020705081057117813,0.6258235724743777
0.002085621303563692,0.6258235724743777
0.002085621303563692,0.6261896046852123
0.0020906590361809956,0.6261896046852123
0.0020906590361809956,0.6269216691068814
0.002100734501415603,0.6269216691068814
0.002100734501415603,0.6277452415812591
0.0021057722340329064,0.6277452415812591
0.0021057722340329064,0.6278367496339677
0.002115847699267514,0.6278367496339677
0.002115847699267514,0.6281112737920937
0.0021208854318848173,0.6281112737920937
0.0021208854318848173,0.6285688140556369
0.0021309608971194246,0.6285688140556369
0.0021309608971194246,0.6286603221083455
0.002135998629736728,0.6286603221083455
0.002135998629736728,0.6290263543191801
0.0021410363623540316,0.6290263543191801
0.0021410363623540316,0.6292093704245973
0.0021460740949713355,0.6292093704245973
0.0021460740949713355,0.629300878477306
0.002151111827588639,0.629300878477306
0.002151111827588639,0.6296669106881405
0.0021561495602059424,0.6296669106881405
0.0021561495602059424,0.6298499267935578
0.0021662250254405498,0.6298499267935578
0.0021662250254405498,0.6303989751098097
0.0021712627580578532,0.6303989751098097
0.0021712627580578532,0.6314970717423133
0.002176300490675157,0.6314970717423133
0.002176300490675157,0.6317715959004392
0.0021813382232924606,0.6317715959004392
0.0021813382232924606,0.6318631039531479
0.002186375955909764,0.6318631039531479
0.002186375955909764,0.6322291361639825
0.002191413688527068,0.6322291361639825
0.002191413688527068,0.6323206442166911
0.0021964514211443714,0.6323206442166911
0.0021964514211443714,0.6326866764275256
0.002201489153761675,0.6326866764275256
0.002201489153761675,0.6332357247437774
0.0022065268863789783,0.6332357247437774
0.0022065268863789783,0.6336932650073206
0.0022115646189962822,0.6336932650073206
0.0022115646189962822,0.6337847730600292
0.0022166023516135857,0.6337847730600292
0.0022166023516135857,0.6339677891654466
0.002221640084230889,0.6339677891654466
0.002221640084230889,0.6340592972181552
0.002226677816848193,0.6340592972181552
0.002226677816848193,0.634608345534407
0.0022367532820828,0.634608345534407
0.0022367532820828,0.6365300146412884
0.0022468287473174074,0.6365300146412884
0.0022468287473174074,0.6366215226939971
0.002251866479934711,0.6366215226939971
0.002251866479934711,0.6367130307467057
0.0022569042125520147,0.6367130307467057
0.0022569042125520147,0.6368045387994143
0.0022720174104039256,0.6368045387994143
0.0022720174104039256,0.637628111273792
0.0022871306082558364,0.637628111273792
0.0022871306082558364,0.6379941434846267
0.0022972060734904433,0.6379941434846267
0.0022972060734904433,0.6382686676427526
0.0023022438061077472,0.6382686676427526
0.0023022438061077472,0.6384516837481699
0.002317357003959658,0.6384516837481699
0.002317357003959658,0.6385431918008785
0.0023324702018115684,0.6385431918008785
0.0023324702018115684,0.6391837481698389
0.0023375079344288723,0.6391837481698389
0.0023375079344288723,0.6392752562225475
0.002342545667046176,0.6392752562225475
0.002342545667046176,0.6394582723279648
0.002352621132280783,0.6394582723279648
0.002352621132280783,0.6396412884333821
0.0023576588648980866,0.6396412884333821
0.0023576588648980866,0.6400073206442167
0.00236269659751539,0.6400073206442167
0.00236269659751539,0.6404648609077599
0.002367734330132694,0.6404648609077599
0.002367734330132694,0.6406478770131772
0.002377809795367301,0.6406478770131772
0.002377809795367301,0.6407393850658858
0.002382847527984605,0.6407393850658858
0.002382847527984605,0.6410139092240117
0.0023979607258365157,0.6410139092240117
0.0023979607258365157,0.6411054172767203
0.002402998458453819,0.6411054172767203
0.002402998458453819,0.641196925329429
0.0024080361910711226,0.641196925329429
0.0024080361910711226,0.6417459736456809
0.0024130739236884265,0.6417459736456809
0.0024130739236884265,0.6418374816983895
0.00241811165630573,0.6418374816983895
0.00241811165630573,0.6419289897510981
0.0024231493889230334,0.6419289897510981
0.0024231493889230334,0.6424780380673499
0.0024281871215403373,0.6424780380673499
0.0024281871215403373,0.6429355783308931
0.0024332248541576408,0.6429355783308931
0.0024332248541576408,0.6431185944363104
0.0024483380520095516,0.6431185944363104
0.0024483380520095516,0.643210102489019
0.0024584135172441585,0.643210102489019
0.0024584135172441585,0.6433931185944363
0.0024634512498614624,0.6433931185944363
0.0024634512498614624,0.6438506588579795
0.002468488982478766,0.6438506588579795
0.002468488982478766,0.6440336749633968
0.0024735267150960694,0.6440336749633968
0.0024735267150960694,0.6443997071742313
0.00248863991294798,0.6443997071742313
0.00248863991294798,0.64449121522694
0.0024987153781825876,0.64449121522694
0.0024987153781825876,0.6446742313323572
0.0025138285760344984,0.6446742313323572
0.0025138285760344984,0.645223279648609
0.002518866308651802,0.645223279648609
0.002518866308651802,0.6454062957540263
0.0025239040412691057,0.6454062957540263
0.0025239040412691057,0.645772327964861
0.002528941773886409,0.645772327964861
0.002528941773886409,0.6458638360175696
0.0025339795065037127,0.6458638360175696
0.0025339795065037127,0.6459553440702782
0.0025390172391210166,0.6459553440702782
0.0025390172391210166,0.6460468521229868
0.0025490927043556235,0.6460468521229868
0.0025490927043556235,0.64650439238653
0.0025541304369729274,0.64650439238653
0.0025541304369729274,0.6473279648609077
0.0025692436348248382,0.6473279648609077
0.0025692436348248382,0.647785505124451
0.002584356832676749,0.647785505124451
0.002584356832676749,0.6483345534407028
0.0025893945652940525,0.6483345534407028
0.0025893945652940525,0.6489751098096632
0.0026045077631459634,0.6489751098096632
0.0026045077631459634,0.6495241581259151
0.002609545495763267,0.6495241581259151
0.002609545495763267,0.6504392386530015
0.0026145832283805703,0.6504392386530015
0.0026145832283805703,0.6508967789165446
0.002634734158849785,0.6508967789165446
0.002634734158849785,0.6514458272327965
0.0026397718914670885,0.6514458272327965
0.0026397718914670885,0.6519948755490483
0.002644809624084392,0.6519948755490483
0.002644809624084392,0.6522693997071742
0.0026548850893189993,0.6522693997071742
0.0026548850893189993,0.652818448023426
0.0026599228219363028,0.652818448023426
0.0026599228219363028,0.6529099560761347
0.00266999828717091,0.6529099560761347
0.00266999828717091,0.6533674963396779
0.0026800737524055175,0.6533674963396779
0.0026800737524055175,0.6534590043923866
0.002685111485022821,0.6534590043923866
0.002685111485022821,0.6537335285505125
0.0026901492176401244,0.6537335285505125
0.0026901492176401244,0.6545571010248902
0.0026951869502574283,0.6545571010248902
0.0026951869502574283,0.6547401171303074
0.002700224682874732,0.6547401171303074
0.002700224682874732,0.6548316251830161
0.0027153378807266426,0.6548316251830161
0.0027153378807266426,0.6550146412884333
0.002720375613343946,0.6550146412884333
0.002720375613343946,0.6551976573938506
0.0027254133459612495,0.6551976573938506
0.0027254133459612495,0.6556551976573939
0.0027304510785785534,0.6556551976573939
0.0027304510785785534,0.6562957540263543
0.0027455642764304643,0.6562957540263543
0.0027455642764304643,0.6565702781844802
0.002755639741665071,0.6565702781844802
0.002755639741665071,0.6568448023426061
0.0027657152068996786,0.6568448023426061
0.0027657152068996786,0.6572108345534406
0.002775790672134286,0.6572108345534406
0.002775790672134286,0.657393850658858
0.0027808284047515894,0.657393850658858
0.0027808284047515894,0.6580344070278185
0.002785866137368893,0.6580344070278185
0.002785866137368893,0.6583089311859444
0.0027909038699861968,0.6583089311859444
0.0027909038699861968,0.6585834553440703
0.0028009793352208037,0.6585834553440703
0.0028009793352208037,0.6590409956076134
0.0028060170678381076,0.6590409956076134
0.0028060170678381076,0.6592240117130308
0.0028211302656900184,0.6592240117130308
0.0028211302656900184,0.6594070278184481
0.002826167998307322,0.6594070278184481
0.002826167998307322,0.6594985358711567
0.0028312057309246253,0.6594985358711567
0.0028312057309246253,0.6595900439238653
0.0028362434635419292,0.6595900439238653
0.0028362434635419292,0.659681551976574
0.0028412811961592327,0.659681551976574
0.0028412811961592327,0.6600475841874085
0.002846318928776536,0.6600475841874085
0.002846318928776536,0.660413616398243
0.00285135666139384,0.660413616398243
0.00285135666139384,0.6605051244509517
0.0028563943940111435,0.6605051244509517
0.0028563943940111435,0.6609626647144948
0.002861432126628447,0.6609626647144948
0.002861432126628447,0.6616032210834554
0.0028664698592457505,0.6616032210834554
0.0028664698592457505,0.6624267935578331
0.0028715075918630544,0.6624267935578331
0.0028715075918630544,0.6625183016105417
0.0028815830570976613,0.6625183016105417
0.0028815830570976613,0.6626098096632503
0.002886620789714965,0.6626098096632503
0.002886620789714965,0.6628843338213762
0.002896696254949572,0.6628843338213762
0.002896696254949572,0.6630673499267935
0.002901733987566876,0.6630673499267935
0.002901733987566876,0.6635248901903368
0.0029067717201841795,0.6635248901903368
0.0029067717201841795,0.6641654465592972
0.002911809452801483,0.6641654465592972
0.002911809452801483,0.6642569546120058
0.0029218849180360903,0.6642569546120058
0.0029218849180360903,0.6645314787701317
0.002936998115888001,0.6645314787701317
0.002936998115888001,0.664714494875549
0.0029470735811226085,0.664714494875549
0.0029470735811226085,0.6648060029282576
0.002952111313739912,0.6648060029282576
0.002952111313739912,0.6652635431918009
0.0029571490463572154,0.6652635431918009
0.0029571490463572154,0.6659040995607614
0.0029621867789745193,0.6659040995607614
0.0029621867789745193,0.66599560761347
0.002967224511591823,0.66599560761347
0.002967224511591823,0.6662701317715959
0.0029722622442091263,0.6662701317715959
0.0029722622442091263,0.6665446559297218
0.00297729997682643,0.6665446559297218
0.00297729997682643,0.666727672035139
0.0029823377094437336,0.666727672035139
0.0029823377094437336,0.667276720351391
0.0029924131746783406,0.667276720351391
0.0029924131746783406,0.6676427525622255
0.0030125641051475553,0.6676427525622255
0.0030125641051475553,0.6679172767203514
0.0030176018377648588,0.6679172767203514
0.0030176018377648588,0.6681918008784773
0.003037752768234073,0.6681918008784773
0.003037752768234073,0.6684663250366032
0.0030478282334686804,0.6684663250366032
0.0030478282334686804,0.6688323572474377
0.003052865966085984,0.6688323572474377
0.003052865966085984,0.669289897510981
0.0030579036987032878,0.669289897510981
0.0030579036987032878,0.6693814055636896
0.0030629414313205912,0.6693814055636896
0.0030629414313205912,0.6697474377745242
0.0030730168965551986,0.6697474377745242
0.0030730168965551986,0.6701134699853587
0.0030881300944071094,0.6701134699853587
0.0030881300944071094,0.670296486090776
0.003093167827024413,0.670296486090776
0.003093167827024413,0.6703879941434846
0.0030982055596417164,0.6703879941434846
0.0030982055596417164,0.6705710102489019
0.0031032432922590203,0.6705710102489019
0.0031032432922590203,0.6706625183016105
0.0031082810248763237,0.6706625183016105
0.0031082810248763237,0.6707540263543191
0.003113318757493627,0.6707540263543191
0.003113318757493627,0.6712115666178624
0.003118356490110931,0.6712115666178624
0.003118356490110931,0.6716691068814056
0.003128431955345538,0.6716691068814056
0.003128431955345538,0.6717606149341142
0.003153620618432056,0.6717606149341142
0.003153620618432056,0.6718521229868228
0.003163696083666663,0.6718521229868228
0.003163696083666663,0.6724926793557833
0.003168733816283967,0.6724926793557833
0.003168733816283967,0.6725841874084919
0.0031737715489012705,0.6725841874084919
0.0031737715489012705,0.6728587115666179
0.003178809281518574,0.6728587115666179
0.003178809281518574,0.6729502196193266
0.0031888847467531813,0.6729502196193266
0.0031888847467531813,0.6730417276720352
0.003193922479370485,0.6730417276720352
0.003193922479370485,0.6731332357247438
0.0031989602119877887,0.6731332357247438
0.0031989602119877887,0.6733162518301611
0.003203997944605092,0.6733162518301611
0.003203997944605092,0.6734992679355783
0.0032140734098396995,0.6734992679355783
0.0032140734098396995,0.673590775988287
0.0032241488750743065,0.673590775988287
0.0032241488750743065,0.6736822840409956
0.0032291866076916103,0.6736822840409956
0.0032291866076916103,0.6739568081991215
0.0032392620729262173,0.6739568081991215
0.0032392620729262173,0.6740483162518301
0.0032493375381608246,0.6740483162518301
0.0032493375381608246,0.6741398243045388
0.003269488468630039,0.6741398243045388
0.003269488468630039,0.6745058565153733
0.0032745262012473424,0.6745058565153733
0.0032745262012473424,0.674871888726208
0.0032795639338646463,0.674871888726208
0.0032795639338646463,0.6749633967789166
0.0032896393990992532,0.6749633967789166
0.0032896393990992532,0.6752379209370425
0.0032997148643338606,0.6752379209370425
0.0032997148643338606,0.6753294289897511
0.003304752596951164,0.6753294289897511
0.003304752596951164,0.6757869692532943
0.003309790329568468,0.6757869692532943
0.003309790329568468,0.6761530014641288
0.0033148280621857714,0.6761530014641288
0.0033148280621857714,0.6765190336749634
0.003324903527420379,0.6765190336749634
0.003324903527420379,0.676610541727672
0.0033299412600376822,0.676610541727672
0.0033299412600376822,0.6767020497803806
0.0033400167252722896,0.6767020497803806
0.0033400167252722896,0.6771595900439239
0.003345054457889593,0.6771595900439239
0.003345054457889593,0.6772510980966325
0.0033500921905068965,0.6772510980966325
0.0033500921905068965,0.6773426061493412
0.003360167655741504,0.6773426061493412
0.0033652053883588074,0.6773426061493412
0.0033652053883588074,0.6775256222547584
0.0033752808535934147,0.6775256222547584
0.0033752808535934147,0.6777086383601757
0.003380318586210718,0.6777086383601757
0.003380318586210718,0.6780746705710102
0.003385356318828022,0.6780746705710102
0.003385356318828022,0.6782576866764275
0.0034004695166799325,0.6782576866764275
0.0034004695166799325,0.6784407027818448
0.0034055072492972364,0.6784407027818448
0.0034055072492972364,0.678623718887262
0.00341054498191454,0.678623718887262
0.00341054498191454,0.6787152269399708
0.0034206204471491472,0.6787152269399708
0.0034206204471491472,0.6788067349926794
0.0034256581797664507,0.6788067349926794
0.0034256581797664507,0.6793557833089312
0.0034407713776183615,0.6793557833089312
0.0034407713776183615,0.6794472913616398
0.003445809110235665,0.6794472913616398
0.003445809110235665,0.6795387994143485
0.003450846842852969,0.6795387994143485
0.003450846842852969,0.6800878477306003
0.0034558845754702723,0.6800878477306003
0.0034558845754702723,0.6801793557833089
0.003460922308087576,0.6801793557833089
0.003460922308087576,0.6807284040995608
0.003470997773322183,0.6807284040995608
0.003470997773322183,0.6808199121522694
0.0034760355059394866,0.6808199121522694
0.0034760355059394866,0.681185944363104
0.0034810732385567905,0.681185944363104
0.0034810732385567905,0.6812774524158126
0.0034961864364087014,0.6812774524158126
0.0034961864364087014,0.6813689604685212
0.003501224169026005,0.6813689604685212
0.003501224169026005,0.6818265007320644
0.0035163373668779157,0.6818265007320644
0.0035163373668779157,0.681918008784773
0.0035264128321125226,0.681918008784773
0.0035264128321125226,0.6820095168374817
0.0035314505647298265,0.6820095168374817
0.0035314505647298265,0.6821010248901903
0.0035415260299644334,0.6821010248901903
0.0035415260299644334,0.6821925329428989
0.0035516014951990408,0.6821925329428989
0.0035516014951990408,0.6822840409956076
0.003561676960433648,0.6822840409956076
0.003561676960433648,0.6823755490483162
0.003571752425668255,0.6823755490483162
0.003571752425668255,0.6824670571010248
0.003576790158285559,0.6824670571010248
0.003576790158285559,0.6827415812591509
0.0035818278909028624,0.6827415812591509
0.0035818278909028624,0.6829245973645681
0.003586865623520166,0.6829245973645681
0.003586865623520166,0.6830161054172768
0.00359190335613747,0.6830161054172768
0.00359190335613747,0.6832906295754027
0.0036019788213720767,0.6832906295754027
0.0036019788213720767,0.6833821376281113
0.0036170920192239876,0.6833821376281113
0.0036170920192239876,0.6837481698389458
0.0036221297518412915,0.6837481698389458
0.0036221297518412915,0.6838396778916545
0.003627167484458595,0.6838396778916545
0.003627167484458595,0.6840226939970717
0.0036322052170758984,0.6840226939970717
0.0036322052170758984,0.6841142020497804
0.0036372429496932023,0.6841142020497804
0.0036372429496932023,0.684205710102489
0.0036422806823105057,0.684205710102489
0.0036422806823105057,0.6843887262079063
0.003652356147545113,0.6843887262079063
0.003652356147545113,0.6844802342606149
0.0036573938801624166,0.6844802342606149
0.0036573938801624166,0.6845717423133236
0.0036674693453970235,0.6845717423133236
0.0036674693453970235,0.6851207906295754
0.0036725070780143274,0.6851207906295754
0.0036725070780143274,0.6852122986822841
0.003677544810631631,0.6852122986822841
0.003677544810631631,0.6855783308931186
0.0036825825432489343,0.6855783308931186
0.0036825825432489343,0.6858528550512445
0.0036876202758662382,0.6858528550512445
0.0036876202758662382,0.6860358711566618
0.0036926580084835417,0.6860358711566618
0.0036926580084835417,0.686218887262079
0.003697695741100845,0.686218887262079
0.003697695741100845,0.6863103953147877
0.00371784667157006,0.6863103953147877
0.00371784667157006,0.6864019033674963
0.0037228844041873634,0.6864019033674963
0.0037228844041873634,0.6865849194729137
0.003727922136804667,0.6865849194729137
0.003727922136804667,0.6866764275256223
0.0037329598694219707,0.6866764275256223
0.0037329598694219707,0.6868594436310396
0.0037480730672738815,0.6868594436310396
0.0037480730672738815,0.6869509516837482
0.003753110799891185,0.6869509516837482
0.003753110799891185,0.6870424597364568
0.0037631862651257924,0.6870424597364568
0.0037631862651257924,0.6871339677891655
0.0037732617303603993,0.6871339677891655
0.0037732617303603993,0.6874084919472914
0.0037833371955950067,0.6874084919472914
0.0037833371955950067,0.6876830161054173
0.003803488126064221,0.6876830161054173
0.003803488126064221,0.6879575402635432
0.0038085258586815244,0.6879575402635432
0.0038085258586815244,0.6881405563689604
0.0038135635912988283,0.6881405563689604
0.0038135635912988283,0.6883235724743777
0.003818601323916132,0.6883235724743777
0.003818601323916132,0.6886896046852123
0.0038236390565334353,0.6886896046852123
0.0038236390565334353,0.6888726207906296
0.003828676789150739,0.6888726207906296
0.003828676789150739,0.6890556368960469
0.00384378998700265,0.6890556368960469
0.00384378998700265,0.6891471449487555
0.0038488277196199534,0.6891471449487555
0.0038488277196199534,0.6898792093704246
0.003853865452237257,0.6898792093704246
0.003853865452237257,0.6901537335285505
0.003858903184854561,0.6901537335285505
0.003858903184854561,0.6902452415812591
0.0038740163827064716,0.6902452415812591
0.0038740163827064716,0.6905197657393851
0.003879054115323775,0.6905197657393851
0.003879054115323775,0.6909773060029283
0.0038840918479410786,0.6909773060029283
0.0038840918479410786,0.6911603221083455
0.003894167313175686,0.6911603221083455
0.003894167313175686,0.6912518301610542
0.0038992050457929894,0.6912518301610542
0.0038992050457929894,0.6913433382137628
0.003909280511027596,0.6913433382137628
0.003909280511027596,0.6919838945827232
0.0039143182436449,0.6919838945827232
0.0039143182436449,0.6928989751098097
0.003919355976262204,0.6928989751098097
0.003919355976262204,0.6929904831625183
0.003939506906731418,0.6929904831625183
0.003939506906731418,0.6931734992679356
0.003944544639348722,0.6931734992679356
0.003944544639348722,0.6933565153733529
0.003949582371966026,0.6933565153733529
0.003949582371966026,0.6937225475841874
0.003959657837200633,0.6937225475841874
0.003959657837200633,0.6939055636896047
0.00396973330243524,0.6939055636896047
0.00396973330243524,0.6941800878477306
0.0039747710350525435,0.6941800878477306
0.0039747710350525435,0.6944546120058566
0.0039848465002871505,0.6944546120058566
0.0039848465002871505,0.6945461200585652
0.003994921965521758,0.6945461200585652
0.003994921965521758,0.6948206442166911
0.003999959698139061,0.6948206442166911
0.003999959698139061,0.6949121522693997
0.004004997430756365,0.6949121522693997
0.004004997430756365,0.6951866764275256
0.004015072895990972,0.6951866764275256
0.004015072895990972,0.6952781844802343
0.004020110628608276,0.6952781844802343
0.004020110628608276,0.6953696925329429
0.00402514836122558,0.6953696925329429
0.00402514836122558,0.6956442166910688
0.004030186093842883,0.6956442166910688
0.004030186093842883,0.6960102489019033
0.004050337024312098,0.6960102489019033
0.004050337024312098,0.6961932650073206
0.0040654502221640085,0.6961932650073206
0.0040654502221640085,0.696376281112738
0.004070487954781312,0.696376281112738
0.004070487954781312,0.6964677891654466
0.0040755256873986154,0.6964677891654466
0.0040755256873986154,0.6965592972181552
0.00409567661786783,0.6965592972181552
0.00409567661786783,0.6967423133235725
0.004120865280954348,0.6967423133235725
0.004120865280954348,0.6968338213762811
0.004125903013571652,0.6968338213762811
0.004125903013571652,0.6969253294289898
0.004141016211423563,0.6969253294289898
0.004141016211423563,0.697108345534407
0.00415109167665817,0.697108345534407
0.00415109167665817,0.6974743777452416
0.0041561294092754735,0.6974743777452416
0.0041561294092754735,0.6975658857979502
0.0041611671418927765,0.6975658857979502
0.0041611671418927765,0.6977489019033675
0.004176280339744687,0.6977489019033675
0.004176280339744687,0.6978404099560761
0.004181318072361991,0.6978404099560761
0.004181318072361991,0.6979319180087847
0.004196431270213902,0.6979319180087847
0.004196431270213902,0.698114934114202
0.004211544468065813,0.698114934114202
0.004211544468065813,0.6984809663250366
0.004231695398535028,0.6984809663250366
0.004231695398535028,0.6989385065885798
0.0042417708637696346,0.6989385065885798
0.0042417708637696346,0.6991215226939971
0.0042518463290042415,0.6991215226939971
0.0042518463290042415,0.6996705710102489
0.004256884061621545,0.6996705710102489
0.004256884061621545,0.700128111273792
0.004261921794238849,0.700128111273792
0.004261921794238849,0.7005856515373353
0.004266959526856152,0.7005856515373353
0.004266959526856152,0.700677159590044
0.004271997259473456,0.700677159590044
0.004271997259473456,0.7011346998535871
0.00427703499209076,0.7011346998535871
0.00427703499209076,0.7012262079062958
0.004282072724708063,0.7012262079062958
0.004282072724708063,0.7021412884333821
0.004297185922559974,0.7021412884333821
0.004297185922559974,0.7022327964860908
0.004307261387794582,0.7022327964860908
0.004307261387794582,0.7023243045387995
0.004312299120411885,0.7023243045387995
0.004312299120411885,0.7028733528550513
0.004317336853029189,0.7028733528550513
0.004317336853029189,0.7035139092240117
0.004327412318263796,0.7035139092240117
0.004327412318263796,0.703696925329429
0.0043324500508810995,0.703696925329429
0.0043324500508810995,0.7047950219619327
0.0043425255161157065,0.7047950219619327
0.0043425255161157065,0.7048865300146413
0.00434756324873301,0.7048865300146413
0.00434756324873301,0.7049780380673499
0.004362676446584921,0.7049780380673499
0.004362676446584921,0.7054355783308931
0.004367714179202225,0.7054355783308931
0.004367714179202225,0.7055270863836017
0.004377789644436832,0.7055270863836017
0.004377789644436832,0.7056185944363104
0.004382827377054136,0.7056185944363104
0.004382827377054136,0.7058931185944363
0.004408016040140654,0.7058931185944363
0.004408016040140654,0.7060761346998536
0.004413053772757957,0.7060761346998536
0.004413053772757957,0.7061676427525623
0.004418091505375261,0.7061676427525623
0.004418091505375261,0.7075402635431918
0.0044281669706098675,0.7075402635431918
0.0044281669706098675,0.7076317715959004
0.004433204703227171,0.7076317715959004
0.004433204703227171,0.707723279648609
0.004438242435844475,0.707723279648609
0.004438242435844475,0.7079978038067349
0.004453355633696386,0.7079978038067349
0.004453355633696386,0.7080893118594437
0.004458393366313689,0.7080893118594437
0.004458393366313689,0.7081808199121523
0.004463431098930993,0.7081808199121523
0.004463431098930993,0.7083638360175696
0.004468468831548297,0.7083638360175696
0.004468468831548297,0.7084553440702782
0.0044735065641656,0.7084553440702782
0.0044735065641656,0.7090959004392386
0.004483582029400208,0.7090959004392386
0.004483582029400208,0.7094619326500732
0.004493657494634815,0.7094619326500732
0.004493657494634815,0.7097364568081991
0.004498695227252119,0.7097364568081991
0.004498695227252119,0.7101024890190337
0.004503732959869422,0.7101024890190337
0.004503732959869422,0.7103770131771596
0.0045087706924867256,0.7103770131771596
0.0045087706924867256,0.7106515373352855
0.0045138084251040295,0.7106515373352855
0.0045138084251040295,0.7109260614934114
0.00452892162295594,0.7109260614934114
0.00452892162295594,0.7112005856515373
0.004533959355573243,0.7112005856515373
0.004533959355573243,0.711292093704246
0.004549072553425154,0.711292093704246
0.004549072553425154,0.7114751098096632
0.004554110286042458,0.7114751098096632
0.004554110286042458,0.7115666178623719
0.004559148018659762,0.7115666178623719
0.004559148018659762,0.7116581259150805
0.004569223483894369,0.7116581259150805
0.004569223483894369,0.7117496339677891
0.004574261216511673,0.7117496339677891
0.004574261216511673,0.7118411420204978
0.004594412146980887,0.7118411420204978
0.004594412146980887,0.7121156661786238
0.0045994498795981905,0.7121156661786238
0.0045994498795981905,0.7124816983894583
0.0046044876122154944,0.7124816983894583
0.0046044876122154944,0.7128477306002928
0.0046095253448327975,0.7128477306002928
0.0046095253448327975,0.7131222547584187
0.004614563077450101,0.7131222547584187
0.004614563077450101,0.7132137628111274
0.004624638542684708,0.7132137628111274
0.004624638542684708,0.7133967789165446
0.004624638542684708,0.7134882869692533
0.004629676275302012,0.7134882869692533
0.004629676275302012,0.7137628111273792
0.004634714007919316,0.7137628111273792
0.004634714007919316,0.7139458272327965
0.004664940403623137,0.7139458272327965
0.004664940403623137,0.7140373352855052
0.0046901290667096555,0.7140373352855052
0.0046901290667096555,0.7141288433382138
0.0046951667993269585,0.7141288433382138
0.0046951667993269585,0.7142203513909224
0.0047002045319442624,0.7142203513909224
0.0047002045319442624,0.7143118594436311
0.004705242264561566,0.7143118594436311
0.004705242264561566,0.7144033674963397
0.004715317729796173,0.7144033674963397
0.004715317729796173,0.7147693997071742
0.004730430927648084,0.7147693997071742
0.004730430927648084,0.7150439238653001
0.004735468660265388,0.7150439238653001
0.004735468660265388,0.7151354319180088
0.004740506392882691,0.7151354319180088
0.004740506392882691,0.715318448023426
0.004745544125499995,0.715318448023426
0.004745544125499995,0.7155929721815519
0.004760657323351906,0.7155929721815519
0.004760657323351906,0.7156844802342606
0.00476569505596921,0.7156844802342606
0.00476569505596921,0.7157759882869692
0.004775770521203817,0.7157759882869692
0.004775770521203817,0.7158674963396779
0.0047858459864384235,0.7158674963396779
0.0047858459864384235,0.7160505124450952
0.004790883719055727,0.7160505124450952
0.004790883719055727,0.7165080527086384
0.004795921451673031,0.7165080527086384
0.004795921451673031,0.716599560761347
0.004800959184290334,0.716599560761347
0.004800959184290334,0.7167825768667643
0.004805996916907638,0.7167825768667643
0.004805996916907638,0.7168740849194729
0.004816072382142245,0.7168740849194729
0.004816072382142245,0.7169655929721815
0.004826147847376853,0.7169655929721815
0.004826147847376853,0.7170571010248902
0.004846298777846067,0.7170571010248902
0.004846298777846067,0.7172401171303074
0.004856374243080675,0.7172401171303074
0.004856374243080675,0.7174231332357247
0.004861411975697978,0.7174231332357247
0.004861411975697978,0.7175146412884333
0.0048664497083152815,0.7175146412884333
0.0048664497083152815,0.717606149341142
0.0048714874409325854,0.717606149341142
0.0048714874409325854,0.7182467057101025
0.0048765251735498885,0.7182467057101025
0.0048765251735498885,0.7184297218155198
0.004886600638784496,0.7184297218155198
0.004886600638784496,0.718887262079063
0.004901713836636407,0.718887262079063
0.004901713836636407,0.7191617862371888
0.004911789301871014,0.7191617862371888
0.004911789301871014,0.7193448023426061
0.004916827034488317,0.7193448023426061
0.004916827034488317,0.7195278184480234
0.004931940232340228,0.7195278184480234
0.004931940232340228,0.7198023426061494
0.004952091162809443,0.7198023426061494
0.004952091162809443,0.7199853587115667
0.0049621666280440496,0.7199853587115667
0.0049621666280440496,0.7200768667642753
0.0049672043606613535,0.7200768667642753
0.0049672043606613535,0.7203513909224012
0.004972242093278657,0.7203513909224012
0.004972242093278657,0.7205344070278185
0.00497727982589596,0.7205344070278185
0.00497727982589596,0.7206259150805271
0.004997430756365175,0.7206259150805271
0.004997430756365175,0.7213579795021962
0.005002468488982479,0.7213579795021962
0.005002468488982479,0.7214494875549048
0.005012543954217086,0.7214494875549048
0.005012543954217086,0.7218155197657394
0.005022619419451693,0.7218155197657394
0.005022619419451693,0.7219070278184481
0.005027657152068997,0.7219070278184481
0.005027657152068997,0.7220900439238653
0.005032694884686301,0.7220900439238653
0.005032694884686301,0.722181551976574
0.0050478080825382115,0.722181551976574
0.0050478080825382115,0.7222730600292826
0.0050528458151555145,0.7222730600292826
0.0050528458151555145,0.7224560761346999
0.005062921280390122,0.7224560761346999
0.005062921280390122,0.7230966325036603
0.005067959013007425,0.7230966325036603
0.005067959013007425,0.7231881405563689
0.005072996745624729,0.7231881405563689
0.005072996745624729,0.7233711566617862
0.005083072210859336,0.7233711566617862
0.005083072210859336,0.7234626647144948
0.005098185408711247,0.7234626647144948
0.005098185408711247,0.7235541727672035
0.005103223141328551,0.7235541727672035
0.005103223141328551,0.7237371888726208
0.005113298606563158,0.7237371888726208
0.005113298606563158,0.7240117130307467
0.005118336339180462,0.7240117130307467
0.005118336339180462,0.724194729136164
0.005123374071797766,0.724194729136164
0.005123374071797766,0.7242862371888726
0.0051435250022669795,0.7242862371888726
0.0051435250022669795,0.7243777452415813
0.005148562734884283,0.7243777452415813
0.005148562734884283,0.7244692532942899
0.005168713665353498,0.7244692532942899
0.005168713665353498,0.7245607613469985
0.005173751397970801,0.7245607613469985
0.005173751397970801,0.7246522693997072
0.005183826863205408,0.7246522693997072
0.005183826863205408,0.7247437774524158
0.005188864595822712,0.7247437774524158
0.005188864595822712,0.7248352855051244
0.005209015526291927,0.7248352855051244
0.005209015526291927,0.725201317715959
0.005244279654613051,0.725201317715959
0.005244279654613051,0.7252928257686676
0.005254355119847659,0.7252928257686676
0.005254355119847659,0.7254758418740849
0.005259392852464962,0.7254758418740849
0.005259392852464962,0.7255673499267935
0.005279543782934177,0.7255673499267935
0.005279543782934177,0.7258418740849195
0.005284581515551481,0.7258418740849195
0.005284581515551481,0.7260248901903368
0.005289619248168784,0.7260248901903368
0.005289619248168784,0.726207906295754
0.005294656980786088,0.726207906295754
0.005294656980786088,0.7262994143484627
0.005299694713403392,0.7262994143484627
0.005299694713403392,0.7263909224011713
0.005304732446020695,0.7263909224011713
0.005304732446020695,0.72648243045388
0.0053198456438726055,0.72648243045388
0.0053198456438726055,0.7265739385065886
0.0053248833764899094,0.7265739385065886
0.0053248833764899094,0.7266654465592972
0.005329921109107213,0.7266654465592972
0.005329921109107213,0.7269399707174231
0.005345034306959124,0.7269399707174231
0.005345034306959124,0.7270314787701317
0.005350072039576427,0.7270314787701317
0.005350072039576427,0.727214494875549
0.005355109772193731,0.727214494875549
0.005355109772193731,0.7273060029282576
0.005360147504811035,0.7273060029282576
0.005360147504811035,0.7274890190336749
0.005370222970045642,0.7274890190336749
0.005370222970045642,0.7277635431918009
0.005375260702662946,0.7277635431918009
0.005375260702662946,0.7279465592972182
0.005380298435280249,0.7279465592972182
0.005380298435280249,0.7282210834553441
0.005385336167897553,0.7282210834553441
0.005385336167897553,0.7287701317715959
0.00539541163313216,0.7287701317715959
0.00539541163313216,0.7288616398243045
0.005400449365749464,0.7288616398243045
0.005400449365749464,0.7289531478770132
0.005430675761453285,0.7289531478770132
0.005430675761453285,0.729227672035139
0.005435713494070589,0.729227672035139
0.005435713494070589,0.7296852122986823
0.005450826691922499,0.7296852122986823
0.005450826691922499,0.7306918008784773
0.005455864424539803,0.7306918008784773
0.005455864424539803,0.7308748169838946
0.005470977622391714,0.7308748169838946
0.005470977622391714,0.7309663250366032
0.005476015355009018,0.7309663250366032
0.005476015355009018,0.7312408491947291
0.0054911285528609285,0.7312408491947291
0.0054911285528609285,0.7313323572474377
0.0055012040180955355,0.7313323572474377
0.0055012040180955355,0.7316068814055637
0.005536468146416661,0.7316068814055637
0.005536468146416661,0.731789897510981
0.005541505879033964,0.731789897510981
0.005541505879033964,0.7319729136163983
0.005546543611651268,0.7319729136163983
0.005546543611651268,0.7320644216691069
0.005551581344268572,0.7320644216691069
0.005551581344268572,0.7321559297218155
0.005571732274737786,0.7321559297218155
0.005571732274737786,0.7322474377745242
0.0055818077399723935,0.7322474377745242
0.0055818077399723935,0.7325219619326501
0.0055868454725896965,0.7325219619326501
0.0055868454725896965,0.7326134699853587
0.005606996403058911,0.7326134699853587
0.005606996403058911,0.7327049780380673
0.005612034135676215,0.7327049780380673
0.005612034135676215,0.7331625183016105
0.005617071868293518,0.7331625183016105
0.005617071868293518,0.7334370424597365
0.005627147333528126,0.7334370424597365
0.005627147333528126,0.7335285505124451
0.005632185066145429,0.7335285505124451
0.005632185066145429,0.7336200585651538
0.005637222798762733,0.7336200585651538
0.005637222798762733,0.7337115666178624
0.005652335996614644,0.7337115666178624
0.005652335996614644,0.733803074670571
0.005657373729231948,0.733803074670571
0.005657373729231948,0.7340775988286969
0.005662411461849251,0.7340775988286969
0.005662411461849251,0.7343521229868228
0.0056724869270838585,0.7343521229868228
0.0056724869270838585,0.7346266471449487
0.005682562392318465,0.7346266471449487
0.005682562392318465,0.734809663250366
0.005692637857553072,0.734809663250366
0.005692637857553072,0.7349011713030746
0.00570271332278768,0.7349011713030746
0.00570271332278768,0.7349926793557833
0.005712788788022287,0.7349926793557833
0.005712788788022287,0.7353587115666179
0.00571782652063959,0.7353587115666179
0.00571782652063959,0.7354502196193266
0.005727901985874198,0.7354502196193266
0.005727901985874198,0.7355417276720352
0.005732939718491501,0.7355417276720352
0.005732939718491501,0.7359077598828697
0.005737977451108805,0.7359077598828697
0.005737977451108805,0.7359992679355783
0.005753090648960716,0.7359992679355783
0.005753090648960716,0.7361822840409956
0.005763166114195323,0.7361822840409956
0.005763166114195323,0.7362737920937042
0.00577324157942993,0.7362737920937042
0.00577324157942993,0.7363653001464129
0.005783317044664537,0.7363653001464129
0.005783317044664537,0.7365483162518301
0.005788354777281841,0.7365483162518301
0.005788354777281841,0.7367313323572474
0.005793392509899144,0.7367313323572474
0.005793392509899144,0.7370058565153733
0.005808505707751055,0.7370058565153733
0.005808505707751055,0.737097364568082
0.005838732103454877,0.737097364568082
0.005838732103454877,0.737371888726208
0.0058538453013067876,0.737371888726208
0.0058538453013067876,0.7376464128843339
0.0058588830339240915,0.7376464128843339
0.0058588830339240915,0.7377379209370425
0.005863920766541395,0.7377379209370425
0.005863920766541395,0.7378294289897511
0.005868958499158698,0.7378294289897511
0.005868958499158698,0.7379209370424598
0.005879033964393306,0.7379209370424598
0.005879033964393306,0.7380124450951684
0.005904222627479824,0.7380124450951684
0.005904222627479824,0.738103953147877
0.005909260360097128,0.738103953147877
0.005909260360097128,0.7382869692532943
0.005919335825331735,0.7382869692532943
0.005919335825331735,0.7387445095168375
0.005924373557949039,0.7387445095168375
0.005924373557949039,0.7388360175695461
0.005929411290566342,0.7388360175695461
0.005929411290566342,0.7389275256222547
0.005934449023183646,0.7389275256222547
0.005934449023183646,0.7390190336749634
0.005949562221035556,0.7390190336749634
0.005949562221035556,0.739110541727672
0.00595459995365286,0.739110541727672
0.00595459995365286,0.7392935578330894
0.005959637686270163,0.7392935578330894
0.005959637686270163,0.739385065885798
0.005984826349356681,0.739385065885798
0.005984826349356681,0.7398426061493412
0.005994901814591289,0.7398426061493412
0.005994901814591289,0.7399341142020498
0.005999939547208592,0.7399341142020498
0.005999939547208592,0.7400256222547584
0.0060100150124432,0.7400256222547584
0.0060100150124432,0.7401171303074671
0.006015052745060503,0.7401171303074671
0.006015052745060503,0.7403001464128843
0.006020090477677807,0.7403001464128843
0.006020090477677807,0.7404831625183016
0.006040241408147021,0.7404831625183016
0.006040241408147021,0.7406661786237189
0.006045279140764324,0.7406661786237189
0.006045279140764324,0.7408491947291361
0.006050316873381628,0.7408491947291361
0.006050316873381628,0.7412152269399708
0.006065430071233539,0.7412152269399708
0.006065430071233539,0.7413067349926794
0.006075505536468146,0.7413067349926794
0.006075505536468146,0.741398243045388
0.006090618734320057,0.741398243045388
0.006090618734320057,0.7414897510980967
0.006120845130023879,0.7414897510980967
0.006120845130023879,0.7417642752562226
0.006130920595258486,0.7417642752562226
0.006130920595258486,0.7418557833089312
0.006140996060493093,0.7418557833089312
0.006140996060493093,0.7419472913616398
0.006156109258345004,0.7419472913616398
0.006156109258345004,0.7422218155197657
0.006166184723579611,0.7422218155197657
0.006166184723579611,0.7423133235724744
0.006171222456196915,0.7423133235724744
0.006171222456196915,0.7425878477306003
0.006181297921431522,0.7425878477306003
0.006181297921431522,0.7428623718887262
0.006186335654048826,0.7428623718887262
0.006186335654048826,0.7429538799414348
0.00619137338666613,0.7429538799414348
0.00619137338666613,0.7431368960468521
0.006196411119283433,0.7431368960468521
0.006196411119283433,0.7432284040995608
0.006231675247604558,0.7432284040995608
0.006231675247604558,0.7433199121522694
0.006241750712839165,0.7433199121522694
0.006241750712839165,0.7437774524158126
0.006246788445456469,0.7437774524158126
0.006246788445456469,0.7441434846266471
0.006251826178073772,0.7441434846266471
0.006251826178073772,0.7442349926793558
0.006271977108542987,0.7442349926793558
0.006271977108542987,0.7446925329428989
0.006282052573777594,0.7446925329428989
0.006282052573777594,0.7453330893118595
0.006287090306394898,0.7453330893118595
0.006287090306394898,0.745699121522694
0.006297165771629505,0.745699121522694
0.006297165771629505,0.7459736456808199
0.00633242989995063,0.7459736456808199
0.00633242989995063,0.7462481698389458
0.006337467632567934,0.7462481698389458
0.006337467632567934,0.7463396778916545
0.006342505365185237,0.7463396778916545
0.006342505365185237,0.7465226939970717
0.006357618563037148,0.7465226939970717
0.006357618563037148,0.7470717423133236
0.006367694028271756,0.7470717423133236
0.006367694028271756,0.7472547584187409
0.006367694028271756,0.7473462664714495
0.006372731760889059,0.7473462664714495
0.006372731760889059,0.7475292825768668
0.0063828072261236666,0.7475292825768668
0.0063828072261236666,0.7485358711566618
0.00640295815659288,0.7485358711566618
0.00640295815659288,0.748718887262079
0.006407995889210184,0.748718887262079
0.006407995889210184,0.7488103953147877
0.006413033621827488,0.7488103953147877
0.006413033621827488,0.7490849194729137
0.006428146819679399,0.7490849194729137
0.006428146819679399,0.7491764275256223
0.00644326001753131,0.7491764275256223
0.00644326001753131,0.7492679355783309
0.006453335482765917,0.7492679355783309
0.006453335482765917,0.7495424597364568
0.006458373215383221,0.7495424597364568
0.006458373215383221,0.7496339677891655
0.006468448680617828,0.7496339677891655
0.006468448680617828,0.7497254758418741
0.0064734864132351315,0.7497254758418741
0.0064734864132351315,0.7499084919472914
0.006493637343704345,0.7499084919472914
0.006493637343704345,0.7502745241581259
0.006508750541556256,0.7502745241581259
0.006508750541556256,0.7503660322108345
0.00651378827417356,0.7503660322108345
0.00651378827417356,0.7504575402635432
0.006523863739408167,0.7504575402635432
0.006523863739408167,0.7507320644216691
0.006538976937260078,0.7507320644216691
0.006538976937260078,0.7508235724743777
0.006544014669877382,0.7508235724743777
0.006544014669877382,0.7509150805270863
0.006549052402494685,0.7509150805270863
0.006549052402494685,0.7510065885797951
0.006559127867729293,0.7510065885797951
0.006559127867729293,0.7513726207906296
0.006564165600346596,0.7513726207906296
0.006564165600346596,0.7515556368960469
0.0065692033329638995,0.7515556368960469
0.0065692033329638995,0.7518301610541728
0.006589354263433114,0.7518301610541728
0.006589354263433114,0.7519216691068814
0.006599429728667721,0.7519216691068814
0.006599429728667721,0.7521046852122987
0.006609505193902328,0.7521046852122987
0.006609505193902328,0.7521961932650073
0.006619580659136936,0.7521961932650073
0.006619580659136936,0.7525622254758418
0.006624618391754239,0.7525622254758418
0.006624618391754239,0.7526537335285505
0.006649807054840758,0.7526537335285505
0.006649807054840758,0.7527452415812591
0.006654844787458061,0.7527452415812591
0.006654844787458061,0.7529282576866764
0.006664920252692668,0.7529282576866764
0.006664920252692668,0.7531112737920937
0.006669957985309971,0.7531112737920937
0.006669957985309971,0.7534773060029283
0.006690108915779186,0.7534773060029283
0.006690108915779186,0.7535688140556369
0.006700184381013793,0.7535688140556369
0.006700184381013793,0.7536603221083455
0.006705222113631097,0.7536603221083455
0.006705222113631097,0.7538433382137628
0.006715297578865704,0.7538433382137628
0.006715297578865704,0.7541178623718887
0.006725373044100312,0.7541178623718887
0.006725373044100312,0.7542093704245973
0.006730410776717615,0.7542093704245973
0.006730410776717615,0.754300878477306
0.006735448509334919,0.754300878477306
0.006735448509334919,0.7543923865300146
0.00676567490503874,0.7543923865300146
0.00676567490503874,0.7545754026354319
0.006770712637656044,0.7545754026354319
0.006770712637656044,0.7546669106881405
0.006775750370273347,0.7546669106881405
0.006775750370273347,0.7547584187408491
0.006785825835507954,0.7547584187408491
0.006785825835507954,0.7548499267935578
0.006811014498594473,0.7548499267935578
0.006811014498594473,0.7552159590043924
0.00682108996382908,0.7552159590043924
0.00682108996382908,0.7553989751098097
0.0068362031616809905,0.7553989751098097
0.0068362031616809905,0.7556734992679356
0.0068462786269155975,0.7556734992679356
0.0068462786269155975,0.7557650073206442
0.006851316359532901,0.7557650073206442
0.006851316359532901,0.7558565153733529
0.006866429557384812,0.7558565153733529
0.006866429557384812,0.7561310395314788
0.00689161822047133,0.7561310395314788
0.00689161822047133,0.7562225475841874
0.006901693685705938,0.7562225475841874
0.006901693685705938,0.7565885797950219
0.006906731418323241,0.7565885797950219
0.006906731418323241,0.7567715959004392
0.006916806883557849,0.7567715959004392
0.006916806883557849,0.7569546120058566
0.0069369578140270624,0.7569546120058566
0.0069369578140270624,0.7570461200585652
0.006941995546644366,0.7570461200585652
0.006941995546644366,0.7571376281112738
0.00694703327926167,0.7571376281112738
0.00694703327926167,0.7572291361639825
0.006952071011878973,0.7572291361639825
0.006952071011878973,0.7577781844802343
0.006972221942348188,0.7577781844802343
0.006972221942348188,0.7581442166910688
0.006992372872817403,0.7581442166910688
0.006992372872817403,0.7582357247437774
0.0070175615359039205,0.7582357247437774
0.0070175615359039205,0.7584187408491947
0.007022599268521224,0.7584187408491947
0.007022599268521224,0.7585102489019033
0.007027637001138527,0.7585102489019033
0.007027637001138527,0.7587847730600292
0.007032674733755831,0.7587847730600292
0.007032674733755831,0.7592423133235725
0.007047787931607742,0.7592423133235725
0.007047787931607742,0.7594253294289898
0.007057863396842349,0.7594253294289898
0.007057863396842349,0.759608345534407
0.007067938862076956,0.759608345534407
0.007067938862076956,0.7597913616398243
0.007093127525163475,0.7597913616398243
0.007093127525163475,0.7598828696925329
0.0071032029903980816,0.7598828696925329
0.0071032029903980816,0.7599743777452416
0.0071132784556326885,0.7599743777452416
0.0071132784556326885,0.7600658857979502
0.007118316188249992,0.7600658857979502
0.007118316188249992,0.7602489019033675
0.007123353920867296,0.7602489019033675
0.007123353920867296,0.7603404099560761
0.007133429386101903,0.7603404099560761
0.007133429386101903,0.7604319180087847
0.007148542583953814,0.7604319180087847
0.007148542583953814,0.760614934114202
0.007158618049188421,0.760614934114202
0.007158618049188421,0.7607064421669106
0.007163655781805725,0.7607064421669106
0.007163655781805725,0.7609809663250366
0.007168693514423029,0.7609809663250366
0.007168693514423029,0.7612554904831625
0.0071938821775095465,0.7612554904831625
0.0071938821775095465,0.7615300146412884
0.00719891991012685,0.7615300146412884
0.00719891991012685,0.7617130307467057
0.007208995375361457,0.7617130307467057
0.007208995375361457,0.7620790629575402
0.007214033107978761,0.7620790629575402
0.007214033107978761,0.7623535871156661
0.007234184038447975,0.7623535871156661
0.007234184038447975,0.7625366032210834
0.007239221771065279,0.7625366032210834
0.007239221771065279,0.7627196193265008
0.007244259503682583,0.7627196193265008
0.007244259503682583,0.7629941434846267
0.007249297236299886,0.7629941434846267
0.007249297236299886,0.763177159590044
0.00725433496891719,0.763177159590044
0.00725433496891719,0.7636346998535871
0.007269448166769101,0.7636346998535871
0.007269448166769101,0.7637262079062958
0.007274485899386405,0.7637262079062958
0.007274485899386405,0.7638177159590044
0.007294636829855618,0.7638177159590044
0.007294636829855618,0.763909224011713
0.007299674562472922,0.763909224011713
0.007299674562472922,0.7640922401171303
0.007314787760324833,0.7640922401171303
0.007314787760324833,0.7642752562225475
0.00732486322555944,0.7642752562225475
0.00732486322555944,0.7647327964860908
0.007350051888645958,0.7647327964860908
0.007350051888645958,0.7648243045387995
0.007355089621263262,0.7648243045387995
0.007355089621263262,0.7650073206442167
0.007370202819115173,0.7650073206442167
0.007370202819115173,0.7650988286969254
0.0073802782843497795,0.7650988286969254
0.0073802782843497795,0.765190336749634
0.007385316016967083,0.765190336749634
0.007385316016967083,0.7652818448023426
0.007390353749584387,0.7652818448023426
0.007390353749584387,0.7653733528550513
0.007405466947436298,0.7653733528550513
0.007405466947436298,0.7654648609077599
0.007440731075757423,0.7654648609077599
0.007440731075757423,0.7655563689604685
0.007445768808374727,0.7655563689604685
0.007445768808374727,0.7658308931185944
0.007455844273609334,0.7658308931185944
0.007455844273609334,0.7660139092240117
0.0074659197388439414,0.7660139092240117
0.0074659197388439414,0.766196925329429
0.007481032936695852,0.766196925329429
0.007481032936695852,0.7662884333821376
0.007491108401930459,0.7662884333821376
0.007491108401930459,0.7663799414348462
0.007496146134547763,0.7663799414348462
0.007496146134547763,0.7665629575402635
0.007501183867165066,0.7665629575402635
0.007501183867165066,0.7666544655929722
0.007521334797634281,0.7666544655929722
0.007521334797634281,0.7667459736456809
0.007526372530251585,0.7667459736456809
0.007526372530251585,0.7668374816983895
0.007536447995486192,0.7668374816983895
0.007536447995486192,0.7669289897510981
0.0075515611933381025,0.7669289897510981
0.0075515611933381025,0.7670204978038068
0.0075616366585727094,0.7670204978038068
0.0075616366585727094,0.767203513909224
0.007571712123807317,0.767203513909224
0.007571712123807317,0.7672950219619327
0.007591863054276531,0.7672950219619327
0.007591863054276531,0.7674780380673499
0.007601938519511138,0.7674780380673499
0.007601938519511138,0.7675695461200586
0.007606976252128442,0.7675695461200586
0.007606976252128442,0.7676610541727672
0.007612013984745746,0.7676610541727672
0.007612013984745746,0.7678440702781845
0.007657353578301478,0.7678440702781845
0.007657353578301478,0.7679355783308931
0.007667429043536085,0.7679355783308931
0.007667429043536085,0.7681185944363104
0.007672466776153389,0.7681185944363104
0.007672466776153389,0.7683931185944363
0.007677504508770692,0.7683931185944363
0.007677504508770692,0.7684846266471449
0.007682542241387996,0.7684846266471449
0.007682542241387996,0.7686676427525623
0.0076875799740053,0.7686676427525623
0.0076875799740053,0.7687591508052709
0.007697655439239907,0.7687591508052709
0.007697655439239907,0.7688506588579795
0.007702693171857211,0.7688506588579795
0.007702693171857211,0.7689421669106882
0.007707730904474514,0.7689421669106882
0.007707730904474514,0.7690336749633968
0.007712768637091818,0.7690336749633968
0.007712768637091818,0.7691251830161054
0.0077278818349437286,0.7691251830161054
0.0077278818349437286,0.7692166910688141
0.0077329195675610325,0.7692166910688141
0.0077329195675610325,0.7693081991215227
0.007748032765412943,0.7693081991215227
0.007748032765412943,0.7696742313323572
0.007753070498030246,0.7696742313323572
0.007753070498030246,0.7697657393850659
0.00775810823064755,0.7697657393850659
0.00775810823064755,0.7698572474377745
0.007773221428499461,0.7698572474377745
0.007773221428499461,0.7701317715959004
0.007778259161116765,0.7701317715959004
0.007778259161116765,0.770223279648609
0.00781352328943789,0.770223279648609
0.00781352328943789,0.7704062957540263
0.007823598754672497,0.7704062957540263
0.007823598754672497,0.7705893118594437
0.007843749685141711,0.7705893118594437
0.007843749685141711,0.7706808199121523
0.007858862882993622,0.7706808199121523
0.007858862882993622,0.7710468521229868
0.00786893834822823,0.7710468521229868
0.00786893834822823,0.7711383601756955
0.007873976080845533,0.7711383601756955
0.007873976080845533,0.7712298682284041
0.007879013813462836,0.7712298682284041
0.007879013813462836,0.7713213762811127
0.007889089278697444,0.7713213762811127
0.007889089278697444,0.7714128843338214
0.007899164743932052,0.7714128843338214
0.007899164743932052,0.77150439238653
0.007904202476549355,0.77150439238653
0.007904202476549355,0.7715959004392386
0.007914277941783962,0.7715959004392386
0.007914277941783962,0.7717789165446559
0.007924353407018568,0.7717789165446559
0.007924353407018568,0.7718704245973645
0.007934428872253176,0.7718704245973645
0.007934428872253176,0.7719619326500732
0.007964655267956998,0.7719619326500732
0.007964655267956998,0.7720534407027818
0.00799488166366082,0.7720534407027818
0.00799488166366082,0.7721449487554904
0.007999919396278123,0.7721449487554904
0.007999919396278123,0.7722364568081991
0.008004957128895427,0.7722364568081991
0.008004957128895427,0.7724194729136163
0.008020070326747338,0.7724194729136163
0.008020070326747338,0.7725109809663251
0.008030145791981944,0.7725109809663251
0.008030145791981944,0.7726024890190337
0.008105711781241498,0.7726024890190337
0.008105711781241498,0.7726939970717424
0.008110749513858803,0.7726939970717424
0.008110749513858803,0.772785505124451
0.008115787246476106,0.772785505124451
0.008115787246476106,0.7733345534407028
0.00812082497909341,0.7733345534407028
0.00812082497909341,0.7736090775988287
0.008146013642179928,0.7736090775988287
0.008146013642179928,0.7742496339677891
0.008151051374797231,0.7742496339677891
0.008151051374797231,0.7743411420204978
0.008156089107414536,0.7743411420204978
0.008156089107414536,0.7745241581259151
0.008166164572649142,0.7745241581259151
0.008166164572649142,0.7746156661786238
0.008171202305266446,0.7746156661786238
0.008171202305266446,0.7748901903367497
0.00817624003788375,0.7748901903367497
0.00817624003788375,0.7749816983894583
0.008181277770501053,0.7749816983894583
0.008181277770501053,0.7750732064421669
0.008216541898822179,0.7750732064421669
0.008216541898822179,0.7752562225475842
0.008236692829291393,0.7752562225475842
0.008236692829291393,0.7753477306002928
0.008241730561908696,0.7753477306002928
0.008241730561908696,0.7755307467057101
0.008251806027143304,0.7755307467057101
0.008251806027143304,0.7757137628111274
0.008266919224995214,0.7757137628111274
0.008266919224995214,0.7759882869692533
0.00827699469022982,0.7759882869692533
0.00827699469022982,0.7760797950219619
0.008282032422847125,0.7760797950219619
0.008282032422847125,0.7763543191800878
0.008322334283785553,0.7763543191800878
0.008322334283785553,0.7764458272327965
0.008342485214254769,0.7764458272327965
0.008342485214254769,0.7767203513909224
0.008347522946872072,0.7767203513909224
0.008347522946872072,0.7768118594436311
0.008382787075193196,0.7768118594436311
0.008382787075193196,0.7769948755490483
0.008387824807810501,0.7769948755490483
0.008387824807810501,0.7771778916544656
0.008397900273045107,0.7771778916544656
0.008397900273045107,0.7772693997071742
0.008402938005662412,0.7772693997071742
0.008402938005662412,0.7773609077598829
0.008413013470897018,0.7773609077598829
0.008413013470897018,0.7777269399707174
0.008418051203514323,0.7777269399707174
0.008418051203514323,0.777818448023426
0.008433164401366234,0.777818448023426
0.008433164401366234,0.7779099560761347
0.008448277599218144,0.7779099560761347
0.008448277599218144,0.7780014641288433
0.008453315331835447,0.7780014641288433
0.008453315331835447,0.7780929721815519
0.008468428529687358,0.7780929721815519
0.008468428529687358,0.7781844802342606
0.008478503994921966,0.7781844802342606
0.008478503994921966,0.7783674963396779
0.008488579460156572,0.7783674963396779
0.008488579460156572,0.7784590043923866
0.008503692658008483,0.7784590043923866
0.008503692658008483,0.7785505124450952
0.008508730390625788,0.7785505124450952
0.008508730390625788,0.7787335285505125
0.008518805855860394,0.7787335285505125
0.008518805855860394,0.7789165446559297
0.008528881321095002,0.7789165446559297
0.008528881321095002,0.7792825768667643
0.00853895678632961,0.7792825768667643
0.00853895678632961,0.7793740849194729
0.008543994518946912,0.7793740849194729
0.008543994518946912,0.7794655929721815
0.008559107716798823,0.7794655929721815
0.008559107716798823,0.7795571010248902
0.008569183182033431,0.7795571010248902
0.008569183182033431,0.7796486090775988
0.008584296379885342,0.7796486090775988
0.008584296379885342,0.7797401171303074
0.008589334112502645,0.7797401171303074
0.008589334112502645,0.7798316251830161
0.008594371845119948,0.7798316251830161
0.008594371845119948,0.7799231332357247
0.008599409577737253,0.7799231332357247
0.008599409577737253,0.780106149341142
0.008614522775589164,0.780106149341142
0.008614522775589164,0.7801976573938506
0.00862459824082377,0.7801976573938506
0.00862459824082377,0.7805636896046853
0.008629635973441074,0.7805636896046853
0.008629635973441074,0.7807467057101025
0.008634673706058377,0.7807467057101025
0.008634673706058377,0.7808382137628112
0.00863971143867568,0.7808382137628112
0.00863971143867568,0.7809297218155198
0.008649786903910288,0.7809297218155198
0.008649786903910288,0.7812042459736457
0.008690088764848718,0.7812042459736457
0.008690088764848718,0.7812957540263543
0.008700164230083324,0.7812957540263543
0.008700164230083324,0.781387262079063
0.008710239695317932,0.781387262079063
0.008710239695317932,0.7814787701317716
0.008715277427935235,0.7814787701317716
0.008715277427935235,0.7815702781844802
0.00872031516055254,0.7815702781844802
0.00872031516055254,0.7816617862371888
0.008725352893169842,0.7816617862371888
0.008725352893169842,0.7817532942898975
0.00873542835840445,0.7817532942898975
0.00873542835840445,0.7818448023426061
0.008740466091021753,0.7818448023426061
0.008740466091021753,0.7819363103953147
0.008775730219342878,0.7819363103953147
0.008775730219342878,0.7820278184480234
0.008800918882429397,0.7820278184480234
0.008800918882429397,0.7822108345534406
0.0088059566150467,0.7822108345534406
0.0088059566150467,0.7823023426061494
0.008810994347664003,0.7823023426061494
0.008810994347664003,0.782393850658858
0.008816032080281307,0.782393850658858
0.008816032080281307,0.7825768667642753
0.008841220743367824,0.7825768667642753
0.008841220743367824,0.7826683748169839
0.008846258475985129,0.7826683748169839
0.008846258475985129,0.7828513909224012
0.008856333941219735,0.7828513909224012
0.008856333941219735,0.7829428989751098
0.008871447139071646,0.7829428989751098
0.008871447139071646,0.7831259150805271
0.008886560336923557,0.7831259150805271
0.008886560336923557,0.7832174231332357
0.008891598069540861,0.7832174231332357
0.008891598069540861,0.7833089311859444
0.008901673534775468,0.7833089311859444
0.008901673534775468,0.783400439238653
0.008906711267392772,0.783400439238653
0.008906711267392772,0.7834919472913616
0.008916786732627378,0.7834919472913616
0.008916786732627378,0.7836749633967789
0.008921824465244683,0.7836749633967789
0.008921824465244683,0.7838579795021962
0.008926862197861986,0.7838579795021962
0.008926862197861986,0.7840409956076134
0.00893189993047929,0.7840409956076134
0.00893189993047929,0.7842240117130308
0.008941975395713897,0.7842240117130308
0.008941975395713897,0.7843155197657394
0.008952050860948505,0.7843155197657394
0.008952050860948505,0.7844070278184481
0.00896212632618311,0.7844070278184481
0.00896212632618311,0.7845900439238653
0.008967164058800416,0.7845900439238653
0.008967164058800416,0.784681551976574
0.00900242818712154,0.784681551976574
0.00900242818712154,0.7847730600292826
0.009007465919738843,0.7847730600292826
0.009007465919738843,0.7848645680819912
0.009012503652356148,0.7848645680819912
0.009012503652356148,0.7849560761346999
0.009017541384973451,0.7849560761346999
0.009017541384973451,0.7850475841874085
0.009022579117590754,0.7850475841874085
0.009022579117590754,0.7852306002928258
0.009032654582825362,0.7852306002928258
0.009032654582825362,0.785413616398243
0.009047767780677273,0.785413616398243
0.009047767780677273,0.7855051244509517
0.009052805513294576,0.7855051244509517
0.009052805513294576,0.7855966325036603
0.00905784324591188,0.7855966325036603
0.00905784324591188,0.7856881405563689
0.009062880978529184,0.7856881405563689
0.009062880978529184,0.7857796486090776
0.009067918711146487,0.7857796486090776
0.009067918711146487,0.7860541727672035
0.009077994176381094,0.7860541727672035
0.009077994176381094,0.7861456808199122
0.009093107374233005,0.7861456808199122
0.009093107374233005,0.7863286969253295
0.009098145106850308,0.7863286969253295
0.009098145106850308,0.7866032210834554
0.009108220572084916,0.7866032210834554
0.009108220572084916,0.7868777452415813
0.009118296037319524,0.7868777452415813
0.009118296037319524,0.7869692532942899
0.009123333769936827,0.7869692532942899
0.009123333769936827,0.7871522693997072
0.00912837150255413,0.7871522693997072
0.00912837150255413,0.7872437774524158
0.009153560165640649,0.7872437774524158
0.009153560165640649,0.7874267935578331
0.009158597898257952,0.7874267935578331
0.009158597898257952,0.7876098096632503
0.009163635630875256,0.7876098096632503
0.009163635630875256,0.7877928257686676
0.009173711096109862,0.7877928257686676
0.009173711096109862,0.7878843338213762
0.009178748828727167,0.7878843338213762
0.009178748828727167,0.7882503660322109
0.00918378656134447,0.7882503660322109
0.00918378656134447,0.7884333821376281
0.009234163887517506,0.7884333821376281
0.009234163887517506,0.7885248901903368
0.00923920162013481,0.7885248901903368
0.00923920162013481,0.7887994143484627
0.009244239352752114,0.7887994143484627
0.009244239352752114,0.78898243045388
0.009249277085369417,0.78898243045388
0.009249277085369417,0.7890739385065886
0.009259352550604024,0.7890739385065886
0.009259352550604024,0.7891654465592972
0.009269428015838632,0.7891654465592972
0.009269428015838632,0.7892569546120058
0.009274465748455935,0.7892569546120058
0.009274465748455935,0.7893484626647145
0.009299654411542452,0.7893484626647145
0.009299654411542452,0.7895314787701317
0.009314767609394363,0.7895314787701317
0.009314767609394363,0.7896229868228404
0.00935003173771549,0.7896229868228404
0.00935003173771549,0.789714494875549
0.009360107202950095,0.789714494875549
0.009360107202950095,0.7898060029282576
0.0093651449355674,0.7898060029282576
0.0093651449355674,0.7898975109809663
0.009385295866036614,0.7898975109809663
0.009385295866036614,0.7901720351390923
0.009405446796505828,0.7901720351390923
0.009405446796505828,0.7902635431918009
0.009430635459592347,0.7902635431918009
0.009430635459592347,0.7903550512445096
0.009440710924826954,0.7903550512445096
0.009440710924826954,0.7906295754026355
0.00945078639006156,0.7906295754026355
0.00945078639006156,0.7907210834553441
0.009460861855296168,0.7907210834553441
0.009460861855296168,0.7909040995607614
0.009465899587913471,0.7909040995607614
0.009465899587913471,0.79099560761347
0.009481012785765382,0.79099560761347
0.009481012785765382,0.7911786237188873
0.009496125983617293,0.7911786237188873
0.009496125983617293,0.7912701317715959
0.0095062014488519,0.7912701317715959
0.0095062014488519,0.7914531478770132
0.00953139011193842,0.7914531478770132
0.00953139011193842,0.7915446559297218
0.009541465577173025,0.7915446559297218
0.009541465577173025,0.791727672035139
0.009571691972876847,0.791727672035139
0.009571691972876847,0.7918191800878477
0.009596880635963366,0.7918191800878477
0.009596880635963366,0.7920021961932651
0.00961703156643258,0.7920021961932651
0.00961703156643258,0.7920937042459737
0.00963214476428449,0.7920937042459737
0.00963214476428449,0.7921852122986823
0.009637182496901795,0.7921852122986823
0.009637182496901795,0.7924597364568082
0.009662371159988312,0.7924597364568082
0.009662371159988312,0.7925512445095169
0.00967244662522292,0.7925512445095169
0.00967244662522292,0.7926427525622255
0.009677484357840223,0.7926427525622255
0.009677484357840223,0.79300878477306
0.009682522090457528,0.79300878477306
0.009682522090457528,0.7931002928257687
0.00968755982307483,0.7931002928257687
0.00968755982307483,0.7931918008784773
0.009707710753544044,0.7931918008784773
0.009707710753544044,0.7936493411420205
0.00971274848616135,0.7936493411420205
0.00971274848616135,0.7938323572474377
0.00972786168401326,0.7938323572474377
0.00972786168401326,0.7940153733528551
0.009737937149247866,0.7940153733528551
0.009737937149247866,0.794289897510981
0.009742974881865171,0.794289897510981
0.009742974881865171,0.7943814055636896
0.009753050347099777,0.7943814055636896
0.009753050347099777,0.7944729136163983
0.009768163544951688,0.7944729136163983
0.009768163544951688,0.7946559297218155
0.009778239010186296,0.7946559297218155
0.009778239010186296,0.7947474377745242
0.009788314475420903,0.7947474377745242
0.009788314475420903,0.7948389458272328
0.009808465405890117,0.7948389458272328
0.009808465405890117,0.7950219619326501
0.009828616336359331,0.7950219619326501
0.009828616336359331,0.795296486090776
0.009833654068976634,0.795296486090776
0.009833654068976634,0.7953879941434846
0.009838691801593939,0.7953879941434846
0.009838691801593939,0.7956625183016105
0.00986891819729776,0.7956625183016105
0.00986891819729776,0.7957540263543191
0.009878993662532367,0.7957540263543191
0.009878993662532367,0.7958455344070278
0.009899144593001582,0.7958455344070278
0.009899144593001582,0.7961200585651538
0.009914257790853493,0.7961200585651538
0.009914257790853493,0.7962115666178624
0.009944484186557315,0.7962115666178624
0.009944484186557315,0.7963945827232797
0.009949521919174618,0.7963945827232797
0.009949521919174618,0.7965775988286969
0.009959597384409226,0.7965775988286969
0.009959597384409226,0.7968521229868228
0.009964635117026529,0.7968521229868228
0.009964635117026529,0.7969436310395315
0.00997974831487844,0.7969436310395315
0.00997974831487844,0.7970351390922401
0.009989823780113047,0.7970351390922401
0.009989823780113047,0.7971266471449487
0.010004936977964958,0.7971266471449487
0.010004936977964958,0.7972181551976574
0.010020050175816869,0.7972181551976574
0.010020050175816869,0.797309663250366
0.010030125641051475,0.797309663250366
0.010030125641051475,0.7974011713030746
0.010040201106286083,0.7974011713030746
0.010040201106286083,0.7981332357247438
0.010060352036755297,0.7981332357247438
0.010060352036755297,0.7982247437774525
0.010070427501989904,0.7982247437774525
0.010070427501989904,0.7983162518301611
0.010085540699841815,0.7983162518301611
0.010085540699841815,0.7984077598828697
0.010100653897693726,0.7984077598828697
0.010100653897693726,0.7984992679355783
0.01012080482816294,0.7984992679355783
0.01012080482816294,0.798590775988287
0.010125842560780245,0.798590775988287
0.010125842560780245,0.7987737920937042
0.01013591802601485,0.7987737920937042
0.01013591802601485,0.7988653001464129
0.010145993491249458,0.7988653001464129
0.010145993491249458,0.7989568081991215
0.010166144421718672,0.7989568081991215
0.010166144421718672,0.7991398243045388
0.010171182154335977,0.7991398243045388
0.010171182154335977,0.7992313323572474
0.01017621988695328,0.7992313323572474
0.01017621988695328,0.799322840409956
0.010181257619570583,0.799322840409956
0.010181257619570583,0.7994143484626647
0.010186295352187888,0.7994143484626647
0.010186295352187888,0.799597364568082
0.010211484015274405,0.799597364568082
0.010211484015274405,0.7996888726207906
0.010226597213126316,0.7996888726207906
0.010226597213126316,0.7997803806734992
0.010251785876212834,0.7997803806734992
0.010251785876212834,0.7999633967789166
0.010256823608830137,0.7999633967789166
0.010256823608830137,0.8000549048316252
0.010271936806682048,0.8000549048316252
0.010271936806682048,0.8001464128843339
0.010276974539299353,0.8001464128843339
0.010276974539299353,0.8002379209370425
0.010297125469768567,0.8002379209370425
0.010297125469768567,0.8003294289897511
0.01030216320238587,0.8003294289897511
0.01030216320238587,0.8004209370424598
0.010307200935003175,0.8004209370424598
0.010307200935003175,0.8005124450951684
0.010312238667620478,0.8005124450951684
0.010312238667620478,0.800603953147877
0.0103424650633243,0.800603953147877
0.0103424650633243,0.8006954612005857
0.01035757826117621,0.8006954612005857
0.01035757826117621,0.8008784773060029
0.010387804656880032,0.8008784773060029
0.010387804656880032,0.8010614934114202
0.010392842389497335,0.8010614934114202
0.010392842389497335,0.8011530014641288
0.010397880122114638,0.8011530014641288
0.010397880122114638,0.8014275256222547
0.010418031052583853,0.8014275256222547
0.010418031052583853,0.8015190336749634
0.010448257448287675,0.8015190336749634
0.010448257448287675,0.801610541727672
0.010453295180904978,0.801610541727672
0.010453295180904978,0.8017020497803806
0.010463370646139586,0.8017020497803806
0.010463370646139586,0.8017935578330894
0.01049863477446071,0.8017935578330894
0.01049863477446071,0.801885065885798
0.010508710239695318,0.801885065885798
0.010508710239695318,0.8019765739385066
0.010513747972312621,0.8019765739385066
0.010513747972312621,0.8020680819912153
0.010533898902781835,0.8020680819912153
0.010533898902781835,0.8021595900439239
0.01055404983325105,0.8021595900439239
0.01055404983325105,0.8022510980966325
0.010564125298485657,0.8022510980966325
0.010564125298485657,0.8024341142020498
0.010579238496337568,0.8024341142020498
0.010579238496337568,0.8025256222547584
0.010589313961572176,0.8025256222547584
0.010589313961572176,0.8027086383601757
0.010594351694189479,0.8027086383601757
0.010594351694189479,0.8028001464128843
0.010604427159424086,0.8028001464128843
0.010604427159424086,0.8029831625183016
0.01060946489204139,0.8029831625183016
0.01060946489204139,0.8030746705710102
0.0106245780898933,0.8030746705710102
0.0106245780898933,0.8032576866764275
0.010669917683449033,0.8032576866764275
0.010669917683449033,0.8033491947291361
0.010674955416066337,0.8033491947291361
0.010674955416066337,0.8035322108345534
0.010685030881300944,0.8035322108345534
0.010685030881300944,0.803898243045388
0.010725332742239373,0.803898243045388
0.010725332742239373,0.8041727672035139
0.010730370474856676,0.8041727672035139
0.010730370474856676,0.8044472913616398
0.01073540820747398,0.8044472913616398
0.01073540820747398,0.8045387994143485
0.010750521405325892,0.8045387994143485
0.010750521405325892,0.8046303074670571
0.010765634603177802,0.8046303074670571
0.010765634603177802,0.8048133235724744
0.010775710068412409,0.8048133235724744
0.010775710068412409,0.8049963396778916
0.010795860998881624,0.8049963396778916
0.010795860998881624,0.8050878477306003
0.010821049661968141,0.8050878477306003
0.010821049661968141,0.8051793557833089
0.010826087394585446,0.8051793557833089
0.010826087394585446,0.8056368960468521
0.010831125127202749,0.8056368960468521
0.010831125127202749,0.8057284040995608
0.01084623832505466,0.8057284040995608
0.01084623832505466,0.8058199121522694
0.010851276057671963,0.8058199121522694
0.010851276057671963,0.8059114202049781
0.01086135152290657,0.8059114202049781
0.01086135152290657,0.8060029282576867
0.010876464720758481,0.8060029282576867
0.010876464720758481,0.8060944363103953
0.010896615651227695,0.8060944363103953
0.010896615651227695,0.806185944363104
0.010901653383844998,0.806185944363104
0.010901653383844998,0.8062774524158126
0.010941955244783428,0.8062774524158126
0.010941955244783428,0.8063689604685212
0.010967143907869946,0.8063689604685212
0.010967143907869946,0.8064604685212299
0.010977219373104552,0.8064604685212299
0.010977219373104552,0.8065519765739385
0.011032634431894893,0.8065519765739385
0.011032634431894893,0.8067349926793558
0.011037672164512196,0.8067349926793558
0.011037672164512196,0.8068265007320644
0.011047747629746803,0.8068265007320644
0.011047747629746803,0.8070095168374817
0.011057823094981411,0.8070095168374817
0.011057823094981411,0.8071010248901903
0.011077974025450625,0.8071010248901903
0.011077974025450625,0.8071925329428989
0.011093087223302536,0.8071925329428989
0.011093087223302536,0.8072840409956076
0.011098124955919839,0.8072840409956076
0.011098124955919839,0.8073755490483162
0.011103162688537144,0.8073755490483162
0.011103162688537144,0.8074670571010248
0.011123313619006358,0.8074670571010248
0.011123313619006358,0.8076500732064422
0.011133389084240965,0.8076500732064422
0.011133389084240965,0.8079245973645681
0.011148502282092876,0.8079245973645681
0.011148502282092876,0.8080161054172768
0.011158577747327482,0.8080161054172768
0.011158577747327482,0.8081076134699854
0.011173690945179393,0.8081076134699854
0.011173690945179393,0.8082906295754027
0.011193841875648609,0.8082906295754027
0.011193841875648609,0.8083821376281113
0.011198879608265912,0.8083821376281113
0.011198879608265912,0.8085651537335286
0.011203917340883215,0.8085651537335286
0.011203917340883215,0.8086566617862372
0.01120895507350052,0.8086566617862372
0.01120895507350052,0.8087481698389458
0.011213992806117823,0.8087481698389458
0.011213992806117823,0.8089311859443631
0.011219030538735126,0.8089311859443631
0.011219030538735126,0.8091142020497804
0.011269407864908163,0.8091142020497804
0.011269407864908163,0.809205710102489
0.011284521062760074,0.809205710102489
0.011284521062760074,0.8093887262079063
0.011289558795377377,0.8093887262079063
0.011289558795377377,0.8097547584187409
0.011314747458463895,0.8097547584187409
0.011314747458463895,0.8099377745241582
0.011319785191081198,0.8099377745241582
0.011319785191081198,0.8101207906295754
0.01133489838893311,0.8101207906295754
0.01133489838893311,0.8102122986822841
0.011344973854167717,0.8102122986822841
0.011344973854167717,0.8103038067349927
0.011375200249871539,0.8103038067349927
0.011375200249871539,0.81048682284041
0.011385275715106145,0.81048682284041
0.011385275715106145,0.8106698389458272
0.01139031344772345,0.8106698389458272
0.01139031344772345,0.8108528550512445
0.01140542664557536,0.8108528550512445
0.01140542664557536,0.8109443631039531
0.011410464378192663,0.8109443631039531
0.011410464378192663,0.8111273792093704
0.011425577576044574,0.8111273792093704
0.011425577576044574,0.8114019033674963
0.011430615308661877,0.8114019033674963
0.011430615308661877,0.8115849194729137
0.01143565304127918,0.8115849194729137
0.01143565304127918,0.8118594436310396
0.011440690773896485,0.8118594436310396
0.011440690773896485,0.8120424597364568
0.011455803971748396,0.8120424597364568
0.011455803971748396,0.8121339677891655
0.01147595490221761,0.8121339677891655
0.01147595490221761,0.8122254758418741
0.011486030367452217,0.8122254758418741
0.011486030367452217,0.8124084919472914
0.011496105832686824,0.8124084919472914
0.011496105832686824,0.8125
0.011506181297921431,0.8125
0.011506181297921431,0.8125915080527086
0.011521294495773342,0.8125915080527086
0.011521294495773342,0.8126830161054173
0.011561596356711772,0.8126830161054173
0.011561596356711772,0.8127745241581259
0.011581747287180985,0.8127745241581259
0.011581747287180985,0.8128660322108345
0.0116018982176502,0.8128660322108345
0.0116018982176502,0.8130490483162518
0.011642200078588629,0.8130490483162518
0.011642200078588629,0.8132320644216691
0.011667388741675147,0.8132320644216691
0.011667388741675147,0.8134150805270863
0.011677464206909753,0.8134150805270863
0.011677464206909753,0.8135065885797951
0.011687539672144361,0.8135065885797951
0.011687539672144361,0.813781112737921
0.011692577404761664,0.813781112737921
0.011692577404761664,0.8138726207906296
0.011707690602613575,0.8138726207906296
0.011707690602613575,0.8139641288433382
0.01171272833523088,0.8139641288433382
0.01171272833523088,0.8140556368960469
0.01172784153308279,0.8140556368960469
0.01172784153308279,0.8141471449487555
0.011737916998317397,0.8141471449487555
0.011737916998317397,0.81451317715959
0.011747992463552005,0.81451317715959
0.011747992463552005,0.8146046852122987
0.011753030196169308,0.8146046852122987
0.011753030196169308,0.8147877013177159
0.011763105661403915,0.8147877013177159
0.011763105661403915,0.8149707174231332
0.011793332057107737,0.8149707174231332
0.011793332057107737,0.8151537335285505
0.011808445254959648,0.8151537335285505
0.011808445254959648,0.8152452415812591
0.011818520720194256,0.8152452415812591
0.011818520720194256,0.8153367496339677
0.011823558452811559,0.8153367496339677
0.011823558452811559,0.8154282576866764
0.01183867165066347,0.8154282576866764
0.01183867165066347,0.8155197657393851
0.011863860313749988,0.8155197657393851
0.011863860313749988,0.8156112737920937
0.011899124442071113,0.8156112737920937
0.011899124442071113,0.815794289897511
0.011904162174688416,0.815794289897511
0.011904162174688416,0.8159773060029283
0.01190919990730572,0.8159773060029283
0.01190919990730572,0.8160688140556369
0.011939426303009542,0.8160688140556369
0.011939426303009542,0.8162518301610542
0.011954539500861453,0.8162518301610542
0.011954539500861453,0.8163433382137628
0.011959577233478756,0.8163433382137628
0.011959577233478756,0.8164348462664714
0.011969652698713362,0.8164348462664714
0.011969652698713362,0.8165263543191801
0.011974690431330667,0.8165263543191801
0.011974690431330667,0.8167093704245973
0.011999879094417184,0.8167093704245973
0.011999879094417184,0.816800878477306
0.012060331885824827,0.816800878477306
0.012060331885824827,0.8169838945827232
0.012070407351059435,0.8169838945827232
0.012070407351059435,0.8170754026354319
0.012085520548911346,0.8170754026354319
0.012085520548911346,0.8172584187408491
0.012090558281528649,0.8172584187408491
0.012090558281528649,0.8173499267935578
0.012100633746763257,0.8173499267935578
0.012100633746763257,0.8174414348462665
0.012125822409849775,0.8174414348462665
0.012125822409849775,0.8175329428989752
0.012166124270788203,0.8175329428989752
0.012166124270788203,0.8176244509516838
0.01217619973602281,0.8176244509516838
0.01217619973602281,0.8177159590043924
0.012181237468640114,0.8177159590043924
0.012181237468640114,0.8178074670571011
0.012191312933874722,0.8178074670571011
0.012191312933874722,0.8178989751098097
0.012211463864343935,0.8178989751098097
0.012211463864343935,0.818081991215227
0.012221539329578543,0.818081991215227
0.012221539329578543,0.8182650073206442
0.012226577062195846,0.8182650073206442
0.012226577062195846,0.8184480234260615
0.012236652527430454,0.8184480234260615
0.012236652527430454,0.8185395314787701
0.012241690260047757,0.8185395314787701
0.012241690260047757,0.8186310395314788
0.012276954388368884,0.8186310395314788
0.012276954388368884,0.8187225475841874
0.01228702985360349,0.8187225475841874
0.01228702985360349,0.818814055636896
0.012312218516690008,0.818814055636896
0.012312218516690008,0.8189055636896047
0.012327331714541919,0.8189055636896047
0.012327331714541919,0.8191800878477306
0.012332369447159222,0.8191800878477306
0.012332369447159222,0.8193631039531479
0.012347482645011133,0.8193631039531479
0.012347482645011133,0.8196376281112738
0.012352520377628438,0.8196376281112738
0.012352520377628438,0.8198206442166911
0.01235755811024574,0.8198206442166911
0.01235755811024574,0.8199121522693997
0.012367633575480349,0.8199121522693997
0.012367633575480349,0.8200036603221084
0.012372671308097652,0.8200036603221084
0.012372671308097652,0.820095168374817
0.01238274677333226,0.820095168374817
0.01238274677333226,0.8202781844802343
0.012392822238566865,0.8202781844802343
0.012392822238566865,0.8203696925329429
0.012412973169036081,0.8203696925329429
0.012412973169036081,0.8204612005856515
0.012418010901653384,0.8204612005856515
0.012418010901653384,0.8206442166910688
0.012428086366887992,0.8206442166910688
0.012428086366887992,0.8207357247437774
0.012443199564739903,0.8207357247437774
0.012443199564739903,0.8208272327964861
0.012448237297357206,0.8208272327964861
0.012448237297357206,0.8209187408491947
0.012473425960443724,0.8209187408491947
0.012473425960443724,0.8210102489019033
0.012478463693061027,0.8210102489019033
0.012478463693061027,0.821101756954612
0.012508690088764849,0.821101756954612
0.012508690088764849,0.8212847730600292
0.012518765553999455,0.8212847730600292
0.012518765553999455,0.8214677891654466
0.012533878751851366,0.8214677891654466
0.012533878751851366,0.8216508052708639
0.012543954217085974,0.8216508052708639
0.012543954217085974,0.8217423133235725
0.012548991949703277,0.8217423133235725
0.012548991949703277,0.8218338213762811
0.012574180612789795,0.8218338213762811
0.012574180612789795,0.8220168374816984
0.012584256078024403,0.8220168374816984
0.012584256078024403,0.8221998535871157
0.012619520206345528,0.8221998535871157
0.012619520206345528,0.8223828696925329
0.012634633404197439,0.8223828696925329
0.012634633404197439,0.8225658857979502
0.012644708869432046,0.8225658857979502
0.012644708869432046,0.8226573938506588
0.012659822067283957,0.8226573938506588
0.012659822067283957,0.8227489019033675
0.012669897532518563,0.8227489019033675
0.012669897532518563,0.8228404099560761
0.012674935265135868,0.8228404099560761
0.012674935265135868,0.8229319180087847
0.012685010730370474,0.8229319180087847
0.012685010730370474,0.823114934114202
0.012690048462987779,0.823114934114202
0.012690048462987779,0.8232064421669106
0.012695086195605082,0.8232064421669106
0.012695086195605082,0.8232979502196194
0.012725312591308904,0.8232979502196194
0.012725312591308904,0.823389458272328
0.012750501254395422,0.823389458272328
0.012750501254395422,0.8235724743777453
0.01277568991748194,0.8235724743777453
0.01277568991748194,0.8237554904831625
0.012780727650099244,0.8237554904831625
0.012780727650099244,0.8238469985358712
0.012785765382716547,0.8238469985358712
0.012785765382716547,0.8239385065885798
0.012826067243654976,0.8239385065885798
0.012826067243654976,0.8240300146412884
0.012836142708889582,0.8240300146412884
0.012836142708889582,0.8241215226939971
0.012921784163383744,0.8241215226939971
0.012921784163383744,0.8243045387994143
0.012936897361235655,0.8243045387994143
0.012936897361235655,0.8244875549048316
0.012957048291704869,0.8244875549048316
0.012957048291704869,0.8245790629575402
0.012967123756939477,0.8245790629575402
0.012967123756939477,0.8246705710102489
0.01297216148955678,0.8246705710102489
0.01297216148955678,0.8247620790629575
0.01298727468740869,0.8247620790629575
0.01298727468740869,0.8249450951683748
0.013007425617877906,0.8249450951683748
0.013007425617877906,0.8250366032210834
0.013032614280964423,0.8250366032210834
0.013032614280964423,0.825128111273792
0.013088029339754764,0.825128111273792
0.013088029339754764,0.8254941434846267
0.01309810480498937,0.8254941434846267
0.01309810480498937,0.825677159590044
0.013108180270223977,0.825677159590044
0.013108180270223977,0.8257686676427526
0.013123293468075888,0.8257686676427526
0.013123293468075888,0.8258601756954612
0.013128331200693191,0.8258601756954612
0.013128331200693191,0.8261346998535871
0.013133368933310496,0.8261346998535871
0.013133368933310496,0.8262262079062958
0.013143444398545102,0.8262262079062958
0.013143444398545102,0.8263177159590044
0.013188783992100835,0.8263177159590044
0.013188783992100835,0.826409224011713
0.013219010387804656,0.826409224011713
0.013219010387804656,0.8265007320644217
0.013229085853039264,0.8265007320644217
0.013229085853039264,0.8265922401171303
0.013249236783508478,0.8265922401171303
0.013249236783508478,0.8267752562225475
0.013254274516125783,0.8267752562225475
0.013254274516125783,0.8268667642752562
0.013269387713977693,0.8268667642752562
0.013269387713977693,0.8270497803806734
0.013284500911829604,0.8270497803806734
0.013284500911829604,0.8271412884333821
0.013309689574916121,0.8271412884333821
0.013309689574916121,0.8272327964860908
0.013324802772768032,0.8272327964860908
0.013324802772768032,0.8273243045387995
0.01333487823800264,0.8273243045387995
0.01333487823800264,0.8274158125915081
0.013344953703237248,0.8274158125915081
0.013344953703237248,0.8275073206442167
0.013360066901089158,0.8275073206442167
0.013360066901089158,0.8275988286969254
0.013385255564175675,0.8275988286969254
0.013385255564175675,0.8277818448023426
0.013455783820817926,0.8277818448023426
0.013455783820817926,0.8279648609077599
0.01346082155343523,0.8279648609077599
0.01346082155343523,0.8280563689604685
0.01347593475128714,0.8280563689604685
0.01347593475128714,0.8281478770131772
0.013496085681756356,0.8281478770131772
0.013496085681756356,0.8282393850658858
0.013506161146990962,0.8282393850658858
0.013506161146990962,0.8283308931185944
0.013526312077460178,0.8283308931185944
0.013526312077460178,0.8284224011713031
0.013536387542694784,0.8284224011713031
0.013536387542694784,0.8285139092240117
0.013546463007929391,0.8285139092240117
0.013546463007929391,0.8286054172767203
0.013571651671015908,0.8286054172767203
0.013571651671015908,0.8288799414348462
0.013581727136250516,0.8288799414348462
0.013581727136250516,0.8289714494875549
0.01358676486886782,0.8289714494875549
0.01358676486886782,0.8290629575402635
0.013596840334102427,0.8290629575402635
0.013596840334102427,0.8291544655929722
0.013637142195040856,0.8291544655929722
0.013637142195040856,0.8293374816983895
0.01364217992765816,0.8293374816983895
0.01364217992765816,0.8294289897510981
0.01365729312551007,0.8294289897510981
0.01365729312551007,0.8295204978038068
0.013662330858127373,0.8295204978038068
0.013662330858127373,0.8296120058565154
0.013667368590744678,0.8296120058565154
0.013667368590744678,0.8297950219619327
0.013682481788596589,0.8297950219619327
0.013682481788596589,0.8301610541727672
0.013727821382152321,0.8301610541727672
0.013727821382152321,0.8302525622254758
0.013747972312621535,0.8302525622254758
0.013747972312621535,0.8303440702781845
0.013753010045238838,0.8303440702781845
0.013753010045238838,0.8305270863836017
0.013773160975708054,0.8305270863836017
0.013773160975708054,0.8306185944363104
0.013778198708325357,0.8306185944363104
0.013778198708325357,0.8308931185944363
0.01379834963879457,0.8308931185944363
0.01379834963879457,0.8309846266471449
0.013818500569263786,0.8309846266471449
0.013818500569263786,0.8311676427525623
0.013838651499733,0.8311676427525623
0.013838651499733,0.8312591508052709
0.013848726964967608,0.8312591508052709
0.013848726964967608,0.8313506588579795
0.013858802430202214,0.8313506588579795
0.013858802430202214,0.8314421669106882
0.013889028825906036,0.8314421669106882
0.013889028825906036,0.8315336749633968
0.01389406655852334,0.8315336749633968
0.01389406655852334,0.8316251830161054
0.013904142023757947,0.8316251830161054
0.013904142023757947,0.8318081991215227
0.013924292954227162,0.8318081991215227
0.013924292954227162,0.8318997071742313
0.0139797080130175,0.8318997071742313
0.0139797080130175,0.83199121522694
0.013994821210869412,0.83199121522694
0.013994821210869412,0.8320827232796486
0.014009934408721322,0.8320827232796486
0.014009934408721322,0.8322657393850659
0.014030085339190538,0.8322657393850659
0.014030085339190538,0.8323572474377745
0.014045198537042449,0.8323572474377745
0.014045198537042449,0.8324487554904831
0.014055274002277055,0.8324487554904831
0.014055274002277055,0.832723279648609
0.014065349467511663,0.832723279648609
0.014065349467511663,0.8329062957540263
0.01410565132845009,0.8329062957540263
0.01410565132845009,0.8331808199121523
0.014115726793684698,0.8331808199121523
0.014115726793684698,0.8333638360175696
0.014140915456771217,0.8333638360175696
0.014140915456771217,0.8334553440702782
0.014171141852475038,0.8334553440702782
0.014171141852475038,0.8335468521229868
0.014206405980796163,0.8335468521229868
0.014206405980796163,0.8337298682284041
0.014216481446030771,0.8337298682284041
0.014216481446030771,0.8338213762811127
0.014231594643882682,0.8338213762811127
0.014231594643882682,0.8340959004392386
0.014241670109117288,0.8340959004392386
0.014241670109117288,0.8343704245973645
0.01427189650482111,0.8343704245973645
0.01427189650482111,0.8344619326500732
0.014276934237438414,0.8344619326500732
0.014276934237438414,0.8345534407027818
0.014297085167907628,0.8345534407027818
0.014297085167907628,0.8346449487554904
0.014317236098376842,0.8346449487554904
0.014317236098376842,0.8348279648609077
0.014347462494080664,0.8348279648609077
0.014347462494080664,0.8349194729136163
0.014362575691932574,0.8349194729136163
0.014362575691932574,0.8350109809663251
0.014372651157167182,0.8350109809663251
0.014372651157167182,0.8351024890190337
0.014417990750722915,0.8351024890190337
0.014417990750722915,0.8351939970717424
0.014423028483340218,0.8351939970717424
0.014423028483340218,0.835285505124451
0.01445325487904404,0.835285505124451
0.01445325487904404,0.8353770131771596
0.014478443542130558,0.8353770131771596
0.014478443542130558,0.8355600292825769
0.014488519007365166,0.8355600292825769
0.014488519007365166,0.8356515373352855
0.014493556739982469,0.8356515373352855
0.014493556739982469,0.8359260614934114
0.014513707670451683,0.8359260614934114
0.014513707670451683,0.8361090775988287
0.014528820868303594,0.8361090775988287
0.014528820868303594,0.8362005856515373
0.014533858600920898,0.8362005856515373
0.014533858600920898,0.836292093704246
0.014538896333538201,0.836292093704246
0.014538896333538201,0.8363836017569546
0.01454897179877281,0.8363836017569546
0.01454897179877281,0.8364751098096632
0.014584235927093934,0.8364751098096632
0.014584235927093934,0.8365666178623719
0.014589273659711237,0.8365666178623719
0.014589273659711237,0.8366581259150805
0.014594311392328542,0.8366581259150805
0.014594311392328542,0.8367496339677891
0.014599349124945845,0.8367496339677891
0.014599349124945845,0.8369326500732065
0.014614462322797755,0.8369326500732065
0.014614462322797755,0.8370241581259151
0.014624537788032362,0.8370241581259151
0.014624537788032362,0.8371156661786238
0.01463461325326697,0.8371156661786238
0.01463461325326697,0.8372071742313324
0.014695066044674613,0.8372071742313324
0.014695066044674613,0.8373901903367497
0.014720254707761131,0.8373901903367497
0.014720254707761131,0.8374816983894583
0.014725292440378434,0.8374816983894583
0.014725292440378434,0.8376647144948756
0.014785745231786078,0.8376647144948756
0.014785745231786078,0.8377562225475842
0.014795820697020685,0.8377562225475842
0.014795820697020685,0.8378477306002928
0.014841160290576418,0.8378477306002928
0.014841160290576418,0.8379392386530015
0.014846198023193721,0.8379392386530015
0.014846198023193721,0.8382137628111274
0.01488649988413215,0.8382137628111274
0.01488649988413215,0.838305270863836
0.014891537616749453,0.838305270863836
0.014891537616749453,0.8383967789165446
0.014896575349366756,0.8383967789165446
0.014896575349366756,0.8384882869692533
0.014906650814601364,0.8384882869692533
0.014906650814601364,0.8385797950219619
0.014911688547218667,0.8385797950219619
0.014911688547218667,0.8386713030746705
0.014931839477687883,0.8386713030746705
0.014931839477687883,0.8387628111273792
0.014936877210305186,0.8387628111273792
0.014936877210305186,0.8388543191800878
0.014946952675539794,0.8388543191800878
0.014946952675539794,0.8389458272327965
0.014967103606009008,0.8389458272327965
0.014967103606009008,0.8390373352855052
0.01497214133862631,0.8390373352855052
0.01497214133862631,0.8391288433382138
0.014977179071243615,0.8391288433382138
0.014977179071243615,0.8392203513909224
0.01501244319956474,0.8392203513909224
0.01501244319956474,0.8394033674963397
0.015022518664799348,0.8394033674963397
0.015022518664799348,0.8394948755490483
0.015037631862651259,0.8394948755490483
0.015037631862651259,0.839586383601757
0.015057782793120473,0.839586383601757
0.015057782793120473,0.8396778916544656
0.015123273317145419,0.8396778916544656
0.015123273317145419,0.8397693997071742
0.015133348782380027,0.8397693997071742
0.015133348782380027,0.8398609077598829
0.01513838651499733,0.8398609077598829
0.01513838651499733,0.8399524158125915
0.015148461980231938,0.8399524158125915
0.015148461980231938,0.8400439238653001
0.01515349971284924,0.8400439238653001
0.01515349971284924,0.8401354319180088
0.015168612910701151,0.8401354319180088
0.015168612910701151,0.840318448023426
0.015188763841170365,0.840318448023426
0.015188763841170365,0.8404099560761347
0.015224027969491492,0.8404099560761347
0.015224027969491492,0.8405929721815519
0.015244178899960706,0.8405929721815519
0.015244178899960706,0.8406844802342606
0.015294556226133741,0.8406844802342606
0.015294556226133741,0.8407759882869692
0.01531974488922026,0.8407759882869692
0.01531974488922026,0.8408674963396779
0.015324782621837563,0.8408674963396779
0.015324782621837563,0.8409590043923866
0.015329820354454867,0.8409590043923866
0.015329820354454867,0.8410505124450952
0.01533485808707217,0.8410505124450952
0.01533485808707217,0.8411420204978038
0.015355009017541384,0.8411420204978038
0.015355009017541384,0.8413250366032211
0.015365084482775992,0.8413250366032211
0.015365084482775992,0.8414165446559297
0.01539027314586251,0.8414165446559297
0.01539027314586251,0.8417825768667643
0.015405386343714422,0.8417825768667643
0.015405386343714422,0.8418740849194729
0.015410424076331725,0.8418740849194729
0.015410424076331725,0.8419655929721815
0.015415461808949028,0.8419655929721815
0.015415461808949028,0.8420571010248902
0.015425537274183635,0.8420571010248902
