fpr,tpr
0.0,0.0
0.0,0.0006944444444444445
1.6518004625041296e-05,0.0006944444444444445
1.6518004625041296e-05,0.001388888888888889
3.303600925008259e-05,0.001388888888888889
3.303600925008259e-05,0.022916666666666665
4.955401387512388e-05,0.022916666666666665
4.955401387512388e-05,0.04652777777777778
4.955401387512388e-05,0.04791666666666667
4.955401387512388e-05,0.050694444444444445
4.955401387512388e-05,0.052083333333333336
4.955401387512388e-05,0.058333333333333334
8.259002312520647e-05,0.058333333333333334
8.259002312520647e-05,0.06597222222222222
9.910802775024777e-05,0.06597222222222222
9.910802775024777e-05,0.07361111111111111
0.00011562603237528906,0.07361111111111111
0.00011562603237528906,0.07569444444444444
0.00011562603237528906,0.07708333333333334
0.00011562603237528906,0.08263888888888889
0.00013214403700033037,0.08263888888888889
0.00013214403700033037,0.08888888888888889
0.00013214403700033037,0.09027777777777778
0.00013214403700033037,0.10625
0.00014866204162537167,0.10625
0.00014866204162537167,0.1111111111111111
0.00016518004625041294,0.1111111111111111
0.00016518004625041294,0.11319444444444444
0.00018169805087545423,0.11319444444444444
0.00018169805087545423,0.11527777777777778
0.00019821605550049553,0.11527777777777778
0.00019821605550049553,0.11805555555555555
0.00021473406012553683,0.11805555555555555
0.00021473406012553683,0.12013888888888889
0.00023125206475057812,0.12013888888888889
0.00023125206475057812,0.1388888888888889
0.0002477700693756194,0.1388888888888889
0.0002477700693756194,0.14583333333333334
0.00026428807400066074,0.14583333333333334
0.00026428807400066074,0.15486111111111112
0.0003138420878757846,0.15486111111111112
0.0003138420878757846,0.15694444444444444
0.0003303600925008259,0.15694444444444444
0.0003303600925008259,0.1625
0.0003468780971258672,0.1625
0.0003468780971258672,0.16527777777777777
0.0003799141063759498,0.16527777777777777
0.0003799141063759498,0.1673611111111111
0.0004129501156260324,0.1673611111111111
0.0004129501156260324,0.1736111111111111
0.00042946812025107365,0.1736111111111111
0.00042946812025107365,0.21319444444444444
0.00042946812025107365,0.21458333333333332
0.00042946812025107365,0.21597222222222223
0.00042946812025107365,0.21736111111111112
0.000445986124876115,0.21736111111111112
0.000445986124876115,0.2375
0.00046250412950115625,0.2375
0.00046250412950115625,0.23819444444444443
0.00046250412950115625,0.23958333333333334
0.00046250412950115625,0.2465277777777778
0.00047902213412619757,0.2465277777777778
0.00047902213412619757,0.24861111111111112
0.0004955401387512388,0.24861111111111112
0.0004955401387512388,0.25555555555555554
0.0005120581433762802,0.25555555555555554
0.0005120581433762802,0.2673611111111111
0.0005285761480013215,0.2673611111111111
0.0005285761480013215,0.2777777777777778
0.0005450941526263627,0.2777777777777778
0.0005450941526263627,0.27847222222222223
0.000561612157251404,0.2791666666666667
0.000561612157251404,0.28125
0.0005781301618764453,0.28125
0.0005781301618764453,0.28402777777777777
0.0005946481665014867,0.28402777777777777
0.0005946481665014867,0.28680555555555554
0.0006111661711265279,0.28680555555555554
0.0006111661711265279,0.28958333333333336
0.0006276841757515692,0.28958333333333336
0.0006276841757515692,0.29097222222222224
0.0006442021803766105,0.29097222222222224
0.0006442021803766105,0.3020833333333333
0.0006772381896266931,0.3020833333333333
0.0006772381896266931,0.30277777777777776
0.0006937561942517344,0.30277777777777776
0.0006937561942517344,0.31180555555555556
0.0007102741988767757,0.31180555555555556
0.0007102741988767757,0.32569444444444445
0.0007267922035018169,0.32569444444444445
0.0007267922035018169,0.33402777777777776
0.0007433102081268583,0.33402777777777776
0.0007433102081268583,0.3347222222222222
0.0007598282127518996,0.3347222222222222
0.0007598282127518996,0.33541666666666664
0.0007763462173769409,0.33541666666666664
0.0007763462173769409,0.3423611111111111
0.0008093822266270234,0.3423611111111111
0.0008093822266270234,0.34305555555555556
0.0008259002312520648,0.34305555555555556
0.0008259002312520648,0.3458333333333333
0.0008424182358771061,0.3458333333333333
0.0008424182358771061,0.34930555555555554
0.0008424182358771061,0.3506944444444444
0.0008424182358771061,0.3527777777777778
0.0008589362405021473,0.3527777777777778
0.0008589362405021473,0.35625
0.0008754542451271886,0.35625
0.0008754542451271886,0.35833333333333334
0.00089197224975223,0.35833333333333334
0.00089197224975223,0.36041666666666666
0.0009084902543772713,0.36041666666666666
0.0009084902543772713,0.36666666666666664
0.0009250082590023125,0.36666666666666664
0.0009250082590023125,0.36944444444444446
0.0009415262636273538,0.36944444444444446
0.0009415262636273538,0.3715277777777778
0.0009580442682523951,0.3715277777777778
0.0009580442682523951,0.37222222222222223
0.0009745622728774364,0.37222222222222223
0.0009745622728774364,0.37430555555555556
0.0009910802775024777,0.37430555555555556
0.0009910802775024777,0.3819444444444444
0.001007598282127519,0.3819444444444444
0.001007598282127519,0.38958333333333334
0.0010241162867525603,0.38958333333333334
0.0010241162867525603,0.39375
0.0010406342913776017,0.39375
0.0010406342913776017,0.39444444444444443
0.001073670300627684,0.39444444444444443
0.001073670300627684,0.3972222222222222
0.0010901883052527254,0.3972222222222222
0.0010901883052527254,0.40069444444444446
0.001123224314502808,0.40069444444444446
0.001123224314502808,0.40208333333333335
0.001123224314502808,0.40347222222222223
0.0011397423191278494,0.40347222222222223
0.0011397423191278494,0.4041666666666667
0.0011562603237528907,0.4041666666666667
0.0011562603237528907,0.4083333333333333
0.001172778328377932,0.4083333333333333
0.001172778328377932,0.4125
0.0011892963330029733,0.4125
0.0011892963330029733,0.4131944444444444
0.0012058143376280145,0.4131944444444444
0.0012058143376280145,0.41805555555555557
0.0012223323422530558,0.41805555555555557
0.0012223323422530558,0.4201388888888889
0.001238850346878097,0.4201388888888889
0.001238850346878097,0.425
0.0012553683515031384,0.425
0.0012553683515031384,0.4361111111111111
0.0012718863561281797,0.4361111111111111
0.0012718863561281797,0.44027777777777777
0.0013049223653782624,0.44027777777777777
0.0013049223653782624,0.4409722222222222
0.0013214403700033035,0.4409722222222222
0.0013214403700033035,0.4423611111111111
0.0013544763792533861,0.4423611111111111
0.0013544763792533861,0.44305555555555554
0.0013709943838784275,0.44305555555555554
0.0013709943838784275,0.44583333333333336
0.0014040303931285101,0.44583333333333336
0.0014040303931285101,0.44722222222222224
0.0014205483977535514,0.44722222222222224
0.0014205483977535514,0.45416666666666666
0.0014370664023785928,0.45416666666666666
0.0014370664023785928,0.4548611111111111
0.0014535844070036339,0.4548611111111111
0.0014535844070036339,0.45694444444444443
0.0014701024116286752,0.45694444444444443
0.0014701024116286752,0.4583333333333333
0.0015031384208787578,0.4583333333333333
0.0015031384208787578,0.4618055555555556
0.0015196564255037992,0.4618055555555556
0.0015196564255037992,0.46319444444444446
0.0015361744301288405,0.46319444444444446
0.0015361744301288405,0.4638888888888889
0.0015526924347538818,0.4638888888888889
0.0015526924347538818,0.4652777777777778
0.0015857284440039642,0.4652777777777778
0.0015857284440039642,0.46875
0.001618764453254047,0.46875
0.001618764453254047,0.46944444444444444
0.0016848364717542122,0.46944444444444444
0.0016848364717542122,0.475
0.0017013544763792533,0.475
0.0017013544763792533,0.4756944444444444
0.0017178724810042946,0.4756944444444444
0.0017178724810042946,0.47638888888888886
0.001734390485629336,0.47638888888888886
0.001734390485629336,0.4777777777777778
0.0017674264948794186,0.4777777777777778
0.0017674264948794186,0.48055555555555557
0.001850016518004625,0.48055555555555557
0.001850016518004625,0.4826388888888889
0.0018665345226296663,0.4826388888888889
0.0018665345226296663,0.48541666666666666
0.0018830525272547076,0.48541666666666666
0.0018830525272547076,0.4861111111111111
0.001899570531879749,0.4861111111111111
0.001899570531879749,0.48680555555555555
0.0019160885365047903,0.48680555555555555
0.0019160885365047903,0.4895833333333333
0.0019326065411298316,0.4895833333333333
0.0019326065411298316,0.49027777777777776
0.0019491245457548727,0.49027777777777776
0.0019491245457548727,0.49236111111111114
0.001965642550379914,0.49236111111111114
0.001965642550379914,0.49444444444444446
0.0019821605550049554,0.49444444444444446
0.0019821605550049554,0.4965277777777778
0.0020317145688800793,0.4965277777777778
0.0020317145688800793,0.49930555555555556
0.0020482325735051207,0.49930555555555556
0.0020482325735051207,0.5006944444444444
0.0020812685827552033,0.5006944444444444
0.0020812685827552033,0.5013888888888889
0.0020977865873802446,0.5013888888888889
0.0020977865873802446,0.5020833333333333
0.002114304592005286,0.5020833333333333
0.002114304592005286,0.5069444444444444
0.0021308225966303273,0.5069444444444444
0.0021308225966303273,0.5076388888888889
0.002147340601255368,0.5076388888888889
0.002147340601255368,0.5152777777777777
0.0021638586058804095,0.5152777777777777
0.0021638586058804095,0.5173611111111112
0.002180376610505451,0.5173611111111112
0.002180376610505451,0.5180555555555556
0.0022134126197555335,0.5180555555555556
0.0022134126197555335,0.5215277777777778
0.0022299306243805748,0.5215277777777778
0.0022299306243805748,0.5243055555555556
0.002246448629005616,0.5243055555555556
0.002246448629005616,0.525
0.0022629666336306574,0.525
0.0022629666336306574,0.5277777777777778
0.0022794846382556988,0.5277777777777778
0.0022794846382556988,0.5291666666666667
0.00229600264288074,0.5291666666666667
0.00229600264288074,0.5298611111111111
0.0023125206475057814,0.5298611111111111
0.0023125206475057814,0.53125
0.0023290386521308227,0.53125
0.0023290386521308227,0.5347222222222222
0.002345556656755864,0.5347222222222222
0.002345556656755864,0.5368055555555555
0.0023620746613809054,0.5368055555555555
0.0023620746613809054,0.5388888888888889
0.0023785926660059467,0.5388888888888889
0.0023785926660059467,0.5430555555555555
0.0023951106706309876,0.5430555555555555
0.0023951106706309876,0.54375
0.002411628675256029,0.54375
0.002411628675256029,0.5458333333333333
0.0024281466798810702,0.5458333333333333
0.0024281466798810702,0.55
0.0024446646845061116,0.55
0.0024446646845061116,0.5555555555555556
0.002461182689131153,0.5555555555555556
0.002461182689131153,0.5590277777777778
0.002510736703006277,0.5590277777777778
0.002510736703006277,0.5604166666666667
0.002560290716881401,0.5604166666666667
0.002560290716881401,0.5625
0.002576808721506442,0.5625
0.002576808721506442,0.5631944444444444
0.0025933267261314835,0.5631944444444444
0.0025933267261314835,0.5666666666666667
0.002626362735381566,0.5666666666666667
0.002626362735381566,0.5680555555555555
0.002642880740006607,0.5680555555555555
0.002642880740006607,0.5722222222222222
0.002692434753881731,0.5722222222222222
0.002692434753881731,0.5729166666666666
0.0027089527585067723,0.5729166666666666
0.0027089527585067723,0.5763888888888888
0.0027254707631318136,0.5763888888888888
0.0027254707631318136,0.5784722222222223
0.002741988767756855,0.5784722222222223
0.002741988767756855,0.5819444444444445
0.0027585067723818963,0.5819444444444445
0.0027585067723818963,0.5826388888888889
0.0027750247770069376,0.5826388888888889
0.0027750247770069376,0.5902777777777778
0.002791542781631979,0.5902777777777778
0.002791542781631979,0.59375
0.0028245787908820616,0.59375
0.0028245787908820616,0.5944444444444444
0.0028906508093822264,0.5944444444444444
0.0028906508093822264,0.5958333333333333
0.0029071688140072677,0.5958333333333333
0.0029071688140072677,0.5965277777777778
0.002923686818632309,0.5965277777777778
0.002923686818632309,0.5972222222222222
0.0029567228278823917,0.5972222222222222
0.0029567228278823917,0.5979166666666667
0.002973240832507433,0.5979166666666667
0.002973240832507433,0.6006944444444444
0.0030393128510075983,0.6006944444444444
0.0030393128510075983,0.6020833333333333
0.0030558308556326397,0.6020833333333333
0.0030558308556326397,0.6034722222222222
0.003072348860257681,0.6034722222222222
0.003072348860257681,0.6069444444444444
0.003121902874132805,0.6069444444444444
0.003121902874132805,0.6076388888888888
0.003138420878757846,0.6076388888888888
0.003138420878757846,0.6097222222222223
0.003154938883382887,0.6097222222222223
0.003154938883382887,0.6104166666666667
0.003204492897258011,0.6104166666666667
0.003204492897258011,0.6118055555555556
0.0032705649157581764,0.6118055555555556
0.0032705649157581764,0.6131944444444445
0.003303600925008259,0.6131944444444445
0.003303600925008259,0.6145833333333334
0.003303600925008259,0.6159722222222223
0.003303600925008259,0.6173611111111111
0.003353154938883383,0.6173611111111111
0.003353154938883383,0.6180555555555556
0.0034027089527585066,0.6180555555555556
0.0034027089527585066,0.6215277777777778
0.003419226957383548,0.6215277777777778
0.003419226957383548,0.6222222222222222
0.0034357449620085892,0.6222222222222222
0.0034357449620085892,0.6229166666666667
0.003468780971258672,0.6229166666666667
0.003468780971258672,0.6236111111111111
0.003485298975883713,0.6236111111111111
0.003485298975883713,0.625
0.003534852989758837,0.625
0.003534852989758837,0.6256944444444444
0.00356788899900892,0.6256944444444444
0.00356788899900892,0.6270833333333333
0.00370003303600925,0.6270833333333333
0.00370003303600925,0.6284722222222222
0.0037330690452593326,0.6284722222222222
0.0037330690452593326,0.6298611111111111
0.0037661050545094153,0.6298611111111111
0.0037661050545094153,0.63125
0.0037826230591344566,0.63125
0.0037826230591344566,0.6326388888888889
0.003799141063759498,0.6326388888888889
0.003799141063759498,0.6333333333333333
0.0038156590683845392,0.6333333333333333
0.0038156590683845392,0.6347222222222222
0.003848695077634622,0.6347222222222222
0.003848695077634622,0.6361111111111111
0.0038817310868847045,0.6361111111111111
0.0038817310868847045,0.6368055555555555
0.003914767096134787,0.6368055555555555
0.003914767096134787,0.6375
0.003931285100759828,0.6375
0.003931285100759828,0.6381944444444444
0.003964321110009911,0.6381944444444444
0.003964321110009911,0.6388888888888888
0.0039808391146349525,0.6388888888888888
0.0039808391146349525,0.6402777777777777
0.0039808391146349525,0.6416666666666667
0.004013875123885034,0.6416666666666667
0.004013875123885034,0.6430555555555556
0.004030393128510076,0.6430555555555556
0.004030393128510076,0.64375
0.004046911133135117,0.64375
0.004046911133135117,0.6451388888888889
0.004146019160885365,0.6451388888888889
0.004146019160885365,0.6458333333333334
0.00421209117938553,0.6458333333333334
0.00421209117938553,0.6479166666666667
0.004245127188635613,0.6479166666666667
0.004245127188635613,0.6486111111111111
0.004311199207135778,0.6486111111111111
0.004311199207135778,0.6493055555555556
0.004344235216385861,0.6493055555555556
0.004344235216385861,0.6506944444444445
0.004410307234886026,0.6506944444444445
0.004410307234886026,0.6513888888888889
0.004443343244136109,0.6513888888888889
0.0044598612487611496,0.6513888888888889
0.0044598612487611496,0.6534722222222222
0.004492897258011232,0.6534722222222222
0.004492897258011232,0.6555555555555556
0.004525933267261315,0.6555555555555556
0.004575487281136438,0.6555555555555556
0.004575487281136438,0.65625
0.00459200528576148,0.65625
0.00459200528576148,0.6569444444444444
0.004625041295011563,0.6569444444444444
0.004625041295011563,0.6576388888888889
0.0046580773042616454,0.6576388888888889
0.0046580773042616454,0.6583333333333333
0.004674595308886686,0.6583333333333333
0.004674595308886686,0.6604166666666667
0.004691113313511728,0.6604166666666667
0.004691113313511728,0.6618055555555555
0.004724149322761811,0.6618055555555555
0.004724149322761811,0.6625
0.004773703336636934,0.6625
0.004773703336636934,0.6652777777777777
0.004790221341261975,0.6652777777777777
0.004790221341261975,0.6680555555555555
0.004806739345887017,0.6680555555555555
0.004806739345887017,0.66875
0.0048562933597621405,0.66875
0.0048562933597621405,0.6694444444444444
0.004872811364387182,0.6694444444444444
0.004872811364387182,0.6708333333333333
0.004905847373637265,0.6708333333333333
0.004905847373637265,0.6722222222222223
0.004922365378262306,0.6722222222222223
0.004955401387512388,0.6722222222222223
0.004955401387512388,0.6729166666666667
0.005004955401387513,0.6729166666666667
0.005004955401387513,0.6736111111111112
0.005037991410637595,0.6736111111111112
0.005037991410637595,0.6743055555555556
0.005054509415262636,0.6743055555555556
0.005054509415262636,0.675
0.00510406342913776,0.675
0.00510406342913776,0.6770833333333334
0.0051370994383878425,0.6770833333333334
0.0051370994383878425,0.6777777777777778
0.005269243475388173,0.6777777777777778
0.005269243475388173,0.6791666666666667
0.005285761480013214,0.6791666666666667
0.005285761480013214,0.6798611111111111
0.005335315493888338,0.6798611111111111
0.005335315493888338,0.6805555555555556
0.005368351503138421,0.6805555555555556
0.005368351503138421,0.68125
0.005467459530888669,0.68125
0.005467459530888669,0.6826388888888889
0.005550049554013875,0.6826388888888889
0.005550049554013875,0.6833333333333333
0.005566567558638916,0.6833333333333333
0.005566567558638916,0.6840277777777778
0.005632639577139081,0.6840277777777778
0.005632639577139081,0.6854166666666667
0.005682193591014206,0.6854166666666667
0.005682193591014206,0.6861111111111111
0.005748265609514371,0.6861111111111111
0.005748265609514371,0.6868055555555556
0.005764783614139412,0.6875
0.005830855632639577,0.6875
0.005830855632639577,0.6881944444444444
0.005847373637264618,0.6881944444444444
0.005847373637264618,0.6888888888888889
0.005929963660389825,0.6888888888888889
0.005929963660389825,0.6902777777777778
0.005962999669639908,0.6902777777777778
0.005962999669639908,0.6916666666666667
0.0059960356788899905,0.6916666666666667
0.0059960356788899905,0.6930555555555555
0.006012553683515031,0.69375
0.006012553683515031,0.6944444444444444
0.006111661711265279,0.6944444444444444
0.006111661711265279,0.6958333333333333
0.006210769739015527,0.6958333333333333
0.006210769739015527,0.6965277777777777
0.00624380574826561,0.6965277777777777
0.00624380574826561,0.6979166666666666
0.006260323752890651,0.6979166666666666
0.006260323752890651,0.6986111111111111
0.00637594978526594,0.6986111111111111
0.00637594978526594,0.7
0.006408985794516022,0.7
0.006408985794516022,0.7006944444444444
0.006425503799141064,0.7006944444444444
0.006425503799141064,0.7020833333333333
0.006442021803766105,0.7020833333333333
0.006442021803766105,0.7027777777777777
0.006458539808391147,0.7027777777777777
0.006458539808391147,0.7034722222222223
0.006524611826891311,0.7034722222222223
0.006524611826891311,0.7048611111111112
0.006607201850016518,0.7048611111111112
0.006607201850016518,0.70625
0.006623719854641559,0.70625
0.006623719854641559,0.7069444444444445
0.006739345887016849,0.7069444444444445
0.006739345887016849,0.7083333333333334
0.00675586389164189,0.7083333333333334
0.00675586389164189,0.7090277777777778
0.007069705979517674,0.7090277777777778
0.007069705979517674,0.7097222222222223
0.007168814007267922,0.7097222222222223
0.007168814007267922,0.7104166666666667
0.007185332011892963,0.7104166666666667
0.007185332011892963,0.7125
0.007234886025768088,0.7125
0.007234886025768088,0.7131944444444445
0.007300958044268252,0.7131944444444445
0.007300958044268252,0.7166666666666667
0.007416584076643542,0.7166666666666667
0.007416584076643542,0.7173611111111111
0.007433102081268583,0.7173611111111111
0.007433102081268583,0.7180555555555556
0.007449620085893624,0.7180555555555556
0.007449620085893624,0.71875
0.007548728113643871,0.71875
0.007548728113643871,0.7194444444444444
0.007548728113643871,0.7208333333333333
0.007581764122893954,0.7208333333333333
0.007581764122893954,0.7215277777777778
0.007598282127518996,0.7215277777777778
0.007598282127518996,0.7222222222222222
0.007829534192269574,0.7222222222222222
0.007829534192269574,0.7229166666666667
0.007994714238519987,0.7229166666666667
0.007994714238519987,0.7236111111111111
0.008077304261645194,0.7236111111111111
0.008077304261645194,0.7243055555555555
0.008110340270895276,0.7243055555555555
0.008143376280145359,0.7243055555555555
0.008143376280145359,0.7256944444444444
0.00817641228939544,0.7256944444444444
0.00817641228939544,0.7263888888888889
0.008225966303270564,0.7263888888888889
0.008225966303270564,0.7270833333333333
0.008242484307895606,0.7270833333333333
0.008242484307895606,0.7284722222222222
0.008259002312520648,0.7284722222222222
0.008259002312520648,0.7298611111111111
0.008325074331020813,0.7298611111111111
0.008325074331020813,0.73125
0.008391146349520979,0.73125
0.008391146349520979,0.7319444444444444
0.00842418235877106,0.7319444444444444
0.00842418235877106,0.7326388888888888
0.008440700363396102,0.7326388888888888
0.008440700363396102,0.7333333333333333
0.008605880409646514,0.7333333333333333
0.008605880409646514,0.7361111111111112
0.008655434423521638,0.7361111111111112
0.008655434423521638,0.7368055555555556
0.008721506442021803,0.7368055555555556
0.008721506442021803,0.7375
0.008820614469772052,0.7375
0.008820614469772052,0.7395833333333334
0.008837132474397092,0.7395833333333334
0.008837132474397092,0.7402777777777778
0.008886686488272217,0.7402777777777778
0.008886686488272217,0.7416666666666667
0.008985794516022464,0.7416666666666667
0.008985794516022464,0.7423611111111111
0.009250082590023126,0.7423611111111111
0.009250082590023126,0.7430555555555556
0.009316154608523291,0.7430555555555556
0.009316154608523291,0.74375
0.009365708622398414,0.74375
0.009365708622398414,0.7444444444444445
0.009497852659398745,0.7444444444444445
0.009497852659398745,0.7458333333333333
0.009530888668648827,0.7458333333333333
0.009530888668648827,0.7465277777777778
0.009547406673273869,0.7465277777777778
0.009547406673273869,0.7479166666666667
0.009613478691774034,0.7479166666666667
0.009613478691774034,0.7486111111111111
0.009696068714899241,0.7486111111111111
0.009696068714899241,0.7493055555555556
0.009745622728774364,0.7493055555555556
0.009745622728774364,0.75
0.00982821275189957,0.75
0.00982821275189957,0.7506944444444444
0.009861248761149653,0.7506944444444444
0.009861248761149653,0.7513888888888889
0.009877766765774695,0.7513888888888889
0.009877766765774695,0.7527777777777778
0.009910802775024777,0.7527777777777778
0.00994383878427486,0.7527777777777778
0.00994383878427486,0.7548611111111111
0.0099603567888999,0.7548611111111111
0.0099603567888999,0.7555555555555555
0.010042946812025107,0.7555555555555555
0.010042946812025107,0.75625
0.010125536835150314,0.75625
0.010125536835150314,0.7569444444444444
0.01020812685827552,0.7569444444444444
0.01020812685827552,0.7576388888888889
0.010257680872150645,0.7576388888888889
0.010257680872150645,0.7583333333333333
0.010290716881400727,0.7583333333333333
0.010290716881400727,0.7590277777777777
0.010356788899900892,0.7590277777777777
0.010356788899900892,0.7597222222222222
0.010505450941526264,0.7597222222222222
0.010505450941526264,0.7604166666666666
0.010637594978526593,0.7604166666666666
0.010637594978526593,0.7611111111111111
0.010670630987776677,0.7611111111111111
0.010670630987776677,0.7618055555555555
0.010753221010901884,0.7618055555555555
0.010753221010901884,0.7625
0.010802775024777007,0.7625
0.010802775024777007,0.7631944444444444
0.010819293029402047,0.7631944444444444
0.010852329038652131,0.7631944444444444
0.010901883052527254,0.7631944444444444
0.010901883052527254,0.7638888888888888
0.010918401057152296,0.7638888888888888
0.010918401057152296,0.7645833333333333
0.010951437066402378,0.7645833333333333
0.010951437066402378,0.7652777777777777
0.01121572514040304,0.7652777777777777
0.01121572514040304,0.7659722222222223
0.011248761149653123,0.7659722222222223
0.011248761149653123,0.7666666666666667
0.011265279154278163,0.7666666666666667
0.011265279154278163,0.7673611111111112
0.011314833168153286,0.7673611111111112
0.011314833168153286,0.7680555555555556
0.0114800132144037,0.7680555555555556
0.0114800132144037,0.7694444444444445
0.011496531219028742,0.7694444444444445
0.011496531219028742,0.7701388888888889
0.011546085232903866,0.7701388888888889
0.011546085232903866,0.7708333333333334
0.011562603237528906,0.7708333333333334
0.011562603237528906,0.7715277777777778
0.011628675256029071,0.7715277777777778
0.011628675256029071,0.7722222222222223
0.01172778328377932,0.7722222222222223
0.01172778328377932,0.7729166666666667
0.01187644532540469,0.7729166666666667
0.01187644532540469,0.7743055555555556
0.011942517343904856,0.7743055555555556
0.011942517343904856,0.775
0.012289395441030724,0.775
0.012322431450280806,0.775
0.012603237528906509,0.775
0.012603237528906509,0.7756944444444445
0.013032705649157582,0.7756944444444445
0.013032705649157582,0.7777777777777778
0.013115295672282788,0.7777777777777778
0.013115295672282788,0.7784722222222222
0.01313181367690783,0.7784722222222222
0.01313181367690783,0.7798611111111111
0.013594317806408986,0.7798611111111111
0.013594317806408986,0.78125
0.013693425834159233,0.78125
0.013693425834159233,0.7826388888888889
0.013726461843409317,0.7826388888888889
0.013726461843409317,0.7833333333333333
0.014453254046911133,0.7833333333333333
0.014453254046911133,0.7840277777777778
0.01455236207466138,0.7840277777777778
0.01455236207466138,0.7847222222222222
0.014585398083911464,0.7847222222222222
0.014585398083911464,0.7861111111111111
0.014618434093161546,0.7861111111111111
0.014618434093161546,0.7868055555555555
0.01466798810703667,0.7868055555555555
0.01466798810703667,0.7875
0.014717542120911795,0.7875
0.014717542120911795,0.7881944444444444
0.014800132144037,0.7881944444444444
0.014800132144037,0.7888888888888889
0.014965312190287414,0.7888888888888889
0.014965312190287414,0.7895833333333333
0.014998348199537496,0.7895833333333333
0.014998348199537496,0.7902777777777777
0.015080938222662703,0.7902777777777777
0.015080938222662703,0.7909722222222222
0.015411298315163528,0.7909722222222222
0.015411298315163528,0.7916666666666666
0.015526924347538818,0.7916666666666666
0.015526924347538818,0.7923611111111111
0.015592996366038982,0.7923611111111111
0.015592996366038982,0.79375
0.015642550379914105,0.79375
0.015642550379914105,0.7944444444444444
0.015708622398414272,0.7944444444444444
0.015708622398414272,0.7951388888888888
0.01595639246778989,0.7951388888888888
0.01595639246778989,0.7958333333333333
0.016005946481665013,0.7958333333333333
0.016005946481665013,0.7965277777777777
0.016038982490915097,0.7965277777777777
0.016038982490915097,0.7972222222222223
0.016154608523290388,0.7972222222222223
0.016154608523290388,0.7979166666666667
0.016237198546415595,0.7979166666666667
0.016237198546415595,0.7986111111111112
0.01643541460191609,0.7986111111111112
0.01643541460191609,0.7993055555555556
0.01658407664354146,0.7993055555555556
0.016617112652791543,0.7993055555555556
0.016617112652791543,0.8
0.016749256689791873,0.8
0.016749256689791873,0.8006944444444445
0.017079616782292698,0.8006944444444445
0.017079616782292698,0.8013888888888889
0.017145688800792865,0.8013888888888889
0.017145688800792865,0.8027777777777778
0.017244796828543112,0.8027777777777778
0.017244796828543112,0.8034722222222223
0.01734390485629336,0.8034722222222223
0.01734390485629336,0.8041666666666667
0.017443012884043606,0.8041666666666667
0.017443012884043606,0.8048611111111111
0.017922035018169805,0.8048611111111111
0.01795507102741989,0.8048611111111111
0.01798810703666997,0.8048611111111111
0.01798810703666997,0.8055555555555556
0.018285431119920714,0.8055555555555556
0.018285431119920714,0.80625
0.01850016518004625,0.80625
0.01850016518004625,0.8069444444444445
0.01851668318467129,0.8069444444444445
0.01851668318467129,0.8076388888888889
0.018582755203171458,0.8076388888888889
0.018582755203171458,0.8083333333333333
0.01861579121242154,0.8083333333333333
0.018648827221671622,0.8083333333333333
0.018665345226296662,0.8083333333333333
0.018665345226296662,0.8090277777777778
0.018913115295672283,0.8090277777777778
0.018913115295672283,0.8104166666666667
0.018979187314172447,0.8104166666666667
0.018979187314172447,0.8111111111111111
0.019045259332672614,0.8111111111111111
0.019045259332672614,0.8118055555555556
0.019078295341922697,0.8118055555555556
0.019078295341922697,0.8125
0.019111331351172777,0.8125
0.01914436736042286,0.8125
0.019177403369672944,0.8125
0.019408655434423522,0.8125
0.019408655434423522,0.8131944444444444
0.01988767756854972,0.8131944444444444
0.0199207135777998,0.8131944444444444
0.0199207135777998,0.8138888888888889
0.019953749587049884,0.8138888888888889
0.019953749587049884,0.8145833333333333
0.02001982160555005,0.8145833333333333
0.02001982160555005,0.8152777777777778
0.02005285761480013,0.8152777777777778
0.02005285761480013,0.8159722222222222
0.020366699702675916,0.8159722222222222
0.020366699702675916,0.8166666666666667
0.020449289725801123,0.8166666666666667
0.020449289725801123,0.8173611111111111
0.020597951767426494,0.8173611111111111
0.020597951767426494,0.8180555555555555
0.02066402378592666,0.8180555555555555
0.02066402378592666,0.81875
0.020779649818301948,0.81875
0.020779649818301948,0.8194444444444444
0.020944829864552362,0.8194444444444444
0.020944829864552362,0.8201388888888889
0.020977865873802445,0.8201388888888889
0.020977865873802445,0.8208333333333333
0.021341261975553354,0.8208333333333333
0.021374297984803437,0.8208333333333333
0.021473406012553684,0.8208333333333333
0.021473406012553684,0.8222222222222222
0.021605550049554015,0.8222222222222222
0.021605550049554015,0.8229166666666666
0.021836802114304592,0.8229166666666666
0.021836802114304592,0.8236111111111111
0.021886356128179716,0.8236111111111111
0.0219193921374298,0.8236111111111111
0.02244796828543112,0.8236111111111111
0.02244796828543112,0.8243055555555555
0.022926990419557317,0.8243055555555555
0.022926990419557317,0.825
0.023240832507433102,0.825
0.023240832507433102,0.8256944444444444
0.023538156590683847,0.8256944444444444
0.023538156590683847,0.8263888888888888
0.024165840766435416,0.8263888888888888
0.024165840766435416,0.8270833333333333
0.024182358771060456,0.8270833333333333
0.024182358771060456,0.8277777777777777
0.02421539478031054,0.8277777777777777
0.02421539478031054,0.8284722222222223
0.024397092831185994,0.8284722222222223
0.024397092831185994,0.8291666666666667
0.024430128840436074,0.8291666666666667
0.024430128840436074,0.8298611111111112
0.0244796828543112,0.8298611111111112
0.02451271886356128,0.8298611111111112
0.02451271886356128,0.8305555555555556
0.024529236868186324,0.8305555555555556
0.024529236868186324,0.83125
0.024661380905186655,0.83125
0.024661380905186655,0.8319444444444445
0.024810042946812026,0.8319444444444445
0.02484307895606211,0.8319444444444445
0.024942186983812356,0.8319444444444445
0.024942186983812356,0.8326388888888889
0.024958704988437396,0.8326388888888889
0.024958704988437396,0.8333333333333334
0.025338619094813348,0.8333333333333334
0.025338619094813348,0.8340277777777778
0.025454245127188635,0.8340277777777778
0.02548728113643872,0.8340277777777778
0.02576808721506442,0.8340277777777778
0.02576808721506442,0.8347222222222223
0.02603237528906508,0.8347222222222223
0.02603237528906508,0.8354166666666667
0.026230591344565575,0.8354166666666667
0.026230591344565575,0.8361111111111111
0.026825239511067064,0.8361111111111111
0.026825239511067064,0.8375
0.026957383548067395,0.8375
0.026957383548067395,0.8381944444444445
0.027073009580442682,0.8381944444444445
0.027073009580442682,0.8388888888888889
0.027238189626693096,0.8388888888888889
0.027238189626693096,0.8395833333333333
0.02728774364056822,0.8395833333333333
0.02728774364056822,0.8402777777777778
0.027337297654443343,0.8402777777777778
0.027337297654443343,0.8409722222222222
0.027618103733069044,0.8409722222222222
0.027651139742319128,0.8409722222222222
0.027667657746944168,0.8409722222222222
0.027667657746944168,0.8416666666666667
0.02804757185332012,0.8416666666666667
0.02804757185332012,0.8423611111111111
0.028163197885695407,0.8423611111111111
0.028163197885695407,0.8430555555555556
0.02854311199207136,0.8430555555555556
0.02854311199207136,0.84375
0.02869177403369673,0.84375
0.02869177403369673,0.8444444444444444
0.028906508093822267,0.8444444444444444
0.028906508093822267,0.8451388888888889
0.029005616121572514,0.8451388888888889
0.029005616121572514,0.8458333333333333
0.029187314172447968,0.8458333333333333
0.029187314172447968,0.8465277777777778
0.02922035018169805,0.8465277777777778
0.02922035018169805,0.8472222222222222
0.029286422200198215,0.8472222222222222
0.029286422200198215,0.8479166666666667
0.02971589032044929,0.8479166666666667
0.02971589032044929,0.8486111111111111
0.029798480343574497,0.8486111111111111
0.029798480343574497,0.8493055555555555
0.029963660389824908,0.8493055555555555
0.029963660389824908,0.85
0.030178394449950446,0.85
0.030178394449950446,0.8506944444444444
0.030244466468450613,0.8506944444444444
0.030244466468450613,0.8513888888888889
0.030260984473075653,0.8513888888888889
0.030260984473075653,0.8520833333333333
0.030409646514701023,0.8520833333333333
0.030409646514701023,0.8527777777777777
0.030657416584076645,0.8527777777777777
0.030657416584076645,0.8541666666666666
0.03087215064420218,0.8541666666666666
0.03087215064420218,0.8548611111111111
0.03149983481995375,0.8548611111111111
0.03149983481995375,0.8555555555555555
0.031565906838453915,0.8555555555555555
0.031565906838453915,0.85625
0.032160555004955405,0.85625
0.032160555004955405,0.8569444444444444
0.032375289065080935,0.8569444444444444
0.03240832507433102,0.8569444444444444
0.03277172117608193,0.8569444444444444
0.03280475718533201,0.8569444444444444
0.0328377931945821,0.8569444444444444
0.0328377931945821,0.8576388888888888
0.033201189296333006,0.8576388888888888
0.033234225305583086,0.8576388888888888
0.03358110340270895,0.8576388888888888
0.03358110340270895,0.8583333333333333
0.034373967624710934,0.8583333333333333
0.034373967624710934,0.8597222222222223
0.03524942186983812,0.8597222222222223
0.03524942186983812,0.8604166666666667
0.035298975883713245,0.8604166666666667
0.035298975883713245,0.8611111111111112
0.03546415592996366,0.8611111111111112
0.03546415592996366,0.8625
0.035530227948463826,0.8625
0.035530227948463826,0.8631944444444445
0.03617443012884044,0.8631944444444445
0.03617443012884044,0.8638888888888889
0.037297654443343244,0.8638888888888889
0.037297654443343244,0.8645833333333334
0.03736372646184341,0.8645833333333334
0.03738024446646845,0.8652777777777778
0.03810703666997027,0.8652777777777778
0.03810703666997027,0.8659722222222223
0.038371324743970925,0.8659722222222223
0.038371324743970925,0.8666666666666667
0.038420878757846055,0.8666666666666667
0.038420878757846055,0.8673611111111111
0.038817310868847044,0.8673611111111111
0.038817310868847044,0.8680555555555556
0.03918070697059795,0.8680555555555556
0.03918070697059795,0.86875
0.03972580112322432,0.86875
0.03972580112322432,0.8694444444444445
0.03994053518334985,0.8694444444444445
0.03994053518334985,0.8701388888888889
0.040089197224975226,0.8701388888888889
0.040089197224975226,0.8715277777777778
0.04091509745622729,0.8715277777777778
0.04091509745622729,0.8722222222222222
0.04119590353485299,0.8722222222222222
0.041228939544103074,0.8722222222222222
0.04159233564585398,0.8722222222222222
0.04159233564585398,0.8729166666666667
0.042038321770730094,0.8729166666666667
0.042038321770730094,0.8736111111111111
0.04248430789560621,0.8736111111111111
0.04248430789560621,0.8743055555555556
0.04291377601585728,0.8743055555555556
0.04291377601585728,0.875
0.04345887016848365,0.875
0.04349190617773373,0.875
0.043557978196233894,0.875
0.043557978196233894,0.8756944444444444
0.04405351833498514,0.8756944444444444
0.04405351833498514,0.8763888888888889
0.04410307234886026,0.8763888888888889
0.04413610835811034,0.8763888888888889
0.04423521638586059,0.8763888888888889
0.04426825239511067,0.8763888888888889
0.04491245457548728,0.8763888888888889
0.04491245457548728,0.8770833333333333
0.044928972580112324,0.8770833333333333
0.044928972580112324,0.8777777777777778
0.04509415262636274,0.8777777777777778
0.04509415262636274,0.8784722222222222
0.04558969276511397,0.8784722222222222
0.04558969276511397,0.8791666666666667
0.045672282788239184,0.8791666666666667
0.045705318797489264,0.8791666666666667
0.046233894945490586,0.8791666666666667
0.046266930954740666,0.8791666666666667
0.04628344895936571,0.8791666666666667
0.04628344895936571,0.8798611111111111
0.04643211100099108,0.8798611111111111
0.04643211100099108,0.8805555555555555
0.04762140733399405,0.8805555555555555
0.04762140733399405,0.88125
0.04824909150974562,0.88125
0.04824909150974562,0.8819444444444444
0.04899240171787248,0.8819444444444444
0.04899240171787248,0.8826388888888889
0.049339279814998346,0.8826388888888889
0.049339279814998346,0.8833333333333333
0.04943838784274859,0.8833333333333333
0.04943838784274859,0.8840277777777777
0.04968615791212422,0.8840277777777777
0.04968615791212422,0.8847222222222222
0.04976874793524942,0.8847222222222222
0.049785265939874465,0.8854166666666666
0.04988437396762471,0.8854166666666666
0.04988437396762471,0.8861111111111111
0.04995044598612488,0.8861111111111111
0.04995044598612488,0.8868055555555555
0.050445986124876115,0.8868055555555555
0.050445986124876115,0.8875
0.05168483647175421,0.8875
0.05168483647175421,0.8881944444444444
0.05176742649487942,0.8881944444444444
0.05176742649487942,0.8888888888888888
0.05209778658738024,0.8888888888888888
0.05209778658738024,0.8895833333333333
0.05252725470763132,0.8895833333333333
0.052560290716881404,0.8895833333333333
0.053121902874132806,0.8895833333333333
0.053121902874132806,0.8902777777777777
0.055302279484638256,0.8902777777777777
0.055302279484638256,0.8909722222222223
0.055962999669639905,0.8909722222222223
0.05599603567888999,0.8909722222222223
0.05660720185001652,0.8909722222222223
0.0566402378592666,0.8909722222222223
0.056706309877766765,0.8909722222222223
0.056739345887016845,0.8909722222222223
0.058820614469772055,0.8909722222222223
0.058820614469772055,0.8916666666666667
0.05883713247439709,0.8916666666666667
0.05883713247439709,0.8923611111111112
0.05901883052527255,0.8923611111111112
0.05901883052527255,0.8930555555555556
0.05984473075652461,0.8930555555555556
0.05984473075652461,0.89375
0.059927320779649816,0.89375
0.059927320779649816,0.8944444444444445
0.06009250082590023,0.8944444444444445
0.06009250082590023,0.8951388888888889
0.06065411298315163,0.8951388888888889
0.06065411298315163,0.8958333333333334
0.06075322101090188,0.8958333333333334
0.06075322101090188,0.8965277777777778
0.060918401057152294,0.8965277777777778
0.060918401057152294,0.8972222222222223
0.06159563924677899,0.8972222222222223
0.061628675256029074,0.8972222222222223
0.06357779980178395,0.8972222222222223
0.06357779980178395,0.8979166666666667
0.06417244796828543,0.8979166666666667
0.06417244796828543,0.8986111111111111
0.06445325404691113,0.8986111111111111
0.06445325404691113,0.8993055555555556
0.06539478031053848,0.8993055555555556
0.06542781631978857,0.8993055555555556
0.06645193260654113,0.8993055555555556
0.06648496861579122,0.8993055555555556
0.06655104063429138,0.8993055555555556
0.06655104063429138,0.9
0.0671622068054179,0.9
0.0671622068054179,0.9006944444444445
0.06883052527254707,0.9006944444444445
0.06883052527254707,0.9013888888888889
0.07030062768417575,0.9013888888888889
0.07030062768417575,0.9020833333333333
0.07059795176742649,0.9020833333333333
0.07059795176742649,0.9027777777777778
0.07063098777667658,0.9027777777777778
0.07094482986455236,0.9027777777777778
0.07094482986455236,0.9034722222222222
0.07203501816980509,0.9034722222222222
0.07203501816980509,0.9041666666666667
0.0722001982160555,0.9041666666666667
0.0722001982160555,0.9048611111111111
0.07241493227618104,0.9048611111111111
0.07241493227618104,0.9055555555555556
0.07259663032705649,0.9055555555555556
0.07262966633630658,0.9055555555555556
0.07271225635943178,0.9055555555555556
0.07271225635943178,0.90625
0.07274529236868187,0.90625
0.07274529236868187,0.9069444444444444
0.07277832837793194,0.9069444444444444
0.0729600264288074,0.9069444444444444
0.07299306243805748,0.9069444444444444
0.07345556656755864,0.9069444444444444
0.07348860257680873,0.9069444444444444
0.07482656095143707,0.9069444444444444
0.07485959696068716,0.9069444444444444
0.07576808721506442,0.9069444444444444
0.07576808721506442,0.9076388888888889
0.07707300958044268,0.9076388888888889
0.07707300958044268,0.9083333333333333
0.07725470763131814,0.9083333333333333
0.07728774364056822,0.9083333333333333
0.07728774364056822,0.9090277777777778
0.07893954410307234,0.9090277777777778
0.07897258011232243,0.9090277777777778
0.07925338619094813,0.9090277777777778
0.07925338619094813,0.9097222222222222
0.08130161876445326,0.9097222222222222
0.08130161876445326,0.9104166666666667
0.08287082920383218,0.9104166666666667
0.08287082920383218,0.9111111111111111
0.08354806739345887,0.9111111111111111
0.08354806739345887,0.9118055555555555
0.08420878757846052,0.9118055555555555
0.08424182358771061,0.9118055555555555
0.08481995374958705,0.9118055555555555
0.08485298975883714,0.9118055555555555
0.08557978196233895,0.9118055555555555
0.08557978196233895,0.9125
0.08828873472084572,0.9125
0.08828873472084572,0.9131944444444444
0.0934423521638586,0.9131944444444444
0.09347538817310869,0.9131944444444444
0.09484638255698712,0.9131944444444444
0.09484638255698712,0.9138888888888889
0.09504459861248761,0.9138888888888889
0.09504459861248761,0.9145833333333333
0.09532540469111331,0.9145833333333333
0.09532540469111331,0.9152777777777777
0.09629996696399075,0.9152777777777777
0.09629996696399075,0.9159722222222222
0.09813346547737033,0.9159722222222222
0.09813346547737033,0.9166666666666666
0.09821605550049554,0.9166666666666666
0.09824909150974562,0.9166666666666666
0.0982821275189957,0.9166666666666666
0.0982821275189957,0.9173611111111111
0.09907499174099768,0.9173611111111111
0.09910802775024777,0.9173611111111111
0.09945490584737364,0.9173611111111111
0.09948794185662373,0.9173611111111111
0.09950445986124876,0.9173611111111111
0.09950445986124876,0.9180555555555555
0.09966963990749918,0.9180555555555555
0.09970267591674925,0.9180555555555555
0.10041295011562604,0.9180555555555555
0.10041295011562604,0.91875
0.10042946812025107,0.91875
0.10046250412950115,0.91875
0.10150313842087876,0.91875
0.10150313842087876,0.9194444444444444
0.1025602907168814,0.9194444444444444
0.10259332672613149,0.9194444444444444
0.1027585067723819,0.9194444444444444
0.10279154278163198,0.9194444444444444
0.10292368681863232,0.9194444444444444
0.10292368681863232,0.9201388888888888
0.10356788899900891,0.9201388888888888
0.10356788899900891,0.9208333333333333
0.103600925008259,0.9208333333333333
0.103600925008259,0.9215277777777777
0.10404691113313512,0.9215277777777777
0.10407994714238519,0.9215277777777777
0.10411298315163528,0.9215277777777777
0.10411298315163528,0.9222222222222223
0.10421209117938553,0.9222222222222223
0.10424512718863561,0.9222222222222223
0.10485629335976214,0.9222222222222223
0.10485629335976214,0.9229166666666667
0.1063594317806409,0.9229166666666667
0.10639246778989098,0.9229166666666667
0.10774694416914436,0.9229166666666667
0.10774694416914436,0.9236111111111112
0.10777998017839445,0.9236111111111112
0.10777998017839445,0.9243055555555556
0.10809382226627023,0.9243055555555556
0.10809382226627023,0.925
0.10849025437727122,0.925
0.10849025437727122,0.9256944444444445
0.10860588040964651,0.9256944444444445
0.1086389164188966,0.9256944444444445
0.10933267261314833,0.9256944444444445
0.10933267261314833,0.9263888888888889
0.11207466138090519,0.9263888888888889
0.11210769739015528,0.9263888888888889
0.1121242153947803,0.9263888888888889
0.11215725140403039,0.9263888888888889
0.11380905186653452,0.9263888888888889
0.1138420878757846,0.9263888888888889
0.11501486620416254,0.9263888888888889
0.11504790221341261,0.9263888888888889
0.11610505450941526,0.9263888888888889
0.11610505450941526,0.9270833333333334
0.11630327056491575,0.9270833333333334
0.11630327056491575,0.9277777777777778
0.11709613478691774,0.9277777777777778
0.11709613478691774,0.9284722222222223
0.11737694086554344,0.9284722222222223
0.11740997687479353,0.9284722222222223
0.11747604889329369,0.9284722222222223
0.11750908490254378,0.9284722222222223
0.11841757515692104,0.9284722222222223
0.11845061116617113,0.9284722222222223
0.11897918731417245,0.9284722222222223
0.11897918731417245,0.9291666666666667
0.1189957053187975,0.9291666666666667
0.1189957053187975,0.9298611111111111
0.11902874132804757,0.9298611111111111
0.11906177733729766,0.9298611111111111
0.12096134786917741,0.9298611111111111
0.12096134786917741,0.9305555555555556
0.1217211760819293,0.9305555555555556
0.1217211760819293,0.93125
0.12355467459530889,0.93125
0.12355467459530889,0.9319444444444445
0.12416584076643541,0.9319444444444445
0.12416584076643541,0.9326388888888889
0.12485959696068714,0.9326388888888889
0.12485959696068714,0.9333333333333333
0.12509084902543774,0.9333333333333333
0.12510736703006275,0.9340277777777778
0.12585067723818963,0.9340277777777778
0.12585067723818963,0.9347222222222222
0.1266435414601916,0.9347222222222222
0.1266765774694417,0.9347222222222222
0.1271555996035679,0.9347222222222222
0.1271555996035679,0.9354166666666667
0.12938553022794846,0.9354166666666667
0.12938553022794846,0.9361111111111111
0.12941856623719855,0.9361111111111111
0.12945160224644864,0.9361111111111111
0.13268913115295672,0.9361111111111111
0.13268913115295672,0.9368055555555556
0.13325074331020811,0.9368055555555556
0.13325074331020811,0.9375
0.13465477370333664,0.9375
0.13465477370333664,0.9381944444444444
0.13493557978196233,0.9381944444444444
0.13493557978196233,0.9388888888888889
0.13561281797158903,0.9388888888888889
0.13561281797158903,0.9395833333333333
0.13714899240171788,0.9395833333333333
0.13714899240171788,0.9409722222222222
0.13734720845721837,0.9409722222222222
0.13734720845721837,0.9416666666666667
0.13738024446646846,0.9416666666666667
0.13741328047571855,0.9416666666666667
0.13876775685497192,0.9416666666666667
0.13876775685497192,0.9423611111111111
0.1393954410307235,0.9423611111111111
0.13942847703997358,0.9423611111111111
0.14035348529897587,0.9423611111111111
0.14038652130822596,0.9423611111111111
0.14048562933597622,0.9423611111111111
0.1405186653452263,0.9423611111111111
0.14398744631648497,0.9423611111111111
0.14398744631648497,0.9430555555555555
0.14449950445986126,0.9430555555555555
0.14453254046911132,0.9430555555555555
0.1445986124876115,0.9430555555555555
0.14463164849686158,0.9430555555555555
0.1470432771721176,0.9430555555555555
0.1470432771721176,0.94375
0.14730756524611827,0.94375
0.14734060125536835,0.94375
0.14747274529236867,0.94375
0.14750578130161876,0.94375
0.1505120581433763,0.94375
0.15054509415262637,0.94375
0.15066072018500165,0.94375
0.15069375619425174,0.94375
0.15109018830525273,0.94375
0.15110670630987777,0.9444444444444444
0.15198216055500496,0.9444444444444444
0.15198216055500496,0.9451388888888889
0.152395110670631,0.9451388888888889
0.15242814667988108,0.9451388888888889
0.1530888668648827,0.9451388888888889
0.1531219028741328,0.9451388888888889
0.1532375289065081,0.9451388888888889
0.1532705649157582,0.9451388888888889
0.15401387512388504,0.9451388888888889
0.15401387512388504,0.9458333333333333
0.15507102741988768,0.9458333333333333
0.15510406342913777,0.9458333333333333
0.15736703006276842,0.9458333333333333
0.1574000660720185,0.9458333333333333
0.15849025437727124,0.9458333333333333
0.1585232903865213,0.9458333333333333
0.15858936240502147,0.9458333333333333
0.15862239841427156,0.9458333333333333
0.16096795507102743,0.9458333333333333
0.1610009910802775,0.9458333333333333
0.1616782292699042,0.9458333333333333
0.16171126527915428,0.9458333333333333
0.16177733729765445,0.9458333333333333
0.16181037330690454,0.9458333333333333
0.16301618764453255,0.9458333333333333
0.16304922365378263,0.9458333333333333
0.16552692434753882,0.9458333333333333
0.16552692434753882,0.9465277777777777
0.166005946481665,0.9465277777777777
0.166005946481665,0.9472222222222222
0.16643541460191608,0.9472222222222222
0.16646845061116616,0.9472222222222222
0.1668483647175421,0.9472222222222222
0.1668814007267922,0.9472222222222222
0.16874793524942186,0.9472222222222222
0.16878097125867195,0.9472222222222222
0.17127518995705318,0.9472222222222222
0.17130822596630327,0.9472222222222222
0.17299306243805748,0.9472222222222222
0.17302609844730757,0.9472222222222222
0.1737198546415593,0.9472222222222222
0.1737198546415593,0.9479166666666666
0.17381896266930955,0.9479166666666666
0.17385199867855963,0.9479166666666666
0.17426494879418566,0.9479166666666666
0.17426494879418566,0.9493055555555555
0.1784440039643211,0.9493055555555555
0.1784440039643211,0.95
0.1795176742649488,0.95
0.1795507102741989,0.95
0.183597621407334,0.95
0.18363065741658408,0.95
0.18729765444334323,0.95
0.18733069045259332,0.95
0.18742979848034358,0.95
0.18742979848034358,0.9506944444444444
0.18865213082259663,0.9506944444444444
0.18865213082259663,0.9513888888888888
0.18969276511397423,0.9513888888888888
0.18972580112322432,0.9513888888888888
0.18987446316484968,0.9513888888888888
0.18987446316484968,0.9520833333333333
0.1915592996366039,0.9520833333333333
0.19159233564585398,0.9520833333333333
0.19202180376610506,0.9520833333333333
0.19205483977535515,0.9520833333333333
0.19410307234886026,0.9520833333333333
0.19410307234886026,0.9527777777777777
0.19573835480673935,0.9527777777777777
0.19577139081598943,0.9527777777777777
0.19671291707961677,0.9527777777777777
0.19674595308886686,0.9527777777777777
0.19874463164849687,0.9527777777777777
0.19877766765774693,0.9527777777777777
0.19990089197224975,0.9527777777777777
0.19993392798149984,0.9527777777777777
0.20003303600925007,0.9527777777777777
0.20006607201850016,0.9527777777777777
0.200396432111001,0.9527777777777777
0.200396432111001,0.9534722222222223
0.20066072018500164,0.9534722222222223
0.20069375619425173,0.9534722222222223
0.2013214403700033,0.9534722222222223
0.20135447637925338,0.9534722222222223
0.2018004625041295,0.9534722222222223
0.2018004625041295,0.9541666666666667
0.2023125206475058,0.9541666666666667
0.20234555665675585,0.9541666666666667
0.20297324083250742,0.9541666666666667
0.2030062768417575,0.9541666666666667
0.2058308556326396,0.9541666666666667
0.2058308556326396,0.9548611111111112
0.20626032375289066,0.9548611111111112
0.20629335976214072,0.9548611111111112
0.20726792203501818,0.9548611111111112
0.20730095804426826,0.9548611111111112
0.20839114634952097,0.9548611111111112
0.20842418235877105,0.9548611111111112
0.20870498843739677,0.9548611111111112
0.20870498843739677,0.9555555555555556
0.21346217376940865,0.9555555555555556
0.21346217376940865,0.95625
0.21397423191278495,0.95625
0.21397423191278495,0.9569444444444445
0.2150809382226627,0.9569444444444445
0.21511397423191278,0.9569444444444445
0.22210109018830526,0.9569444444444445
0.22213412619755535,0.9569444444444445
0.2230756524611827,0.9569444444444445
0.22310868847043278,0.9569444444444445
0.22414932276181038,0.9569444444444445
0.22414932276181038,0.9576388888888889
0.22672613148331683,0.9576388888888889
0.2267591674925669,0.9576388888888889
0.23031053848695077,0.9576388888888889
0.23031053848695077,0.9583333333333334
0.2315163528245788,0.9583333333333334
0.23154938883382886,0.9583333333333334
0.2317971589032045,0.9583333333333334
0.2317971589032045,0.9590277777777778
0.23270564915758177,0.9590277777777778
0.23270564915758177,0.9597222222222223
0.23401057152296004,0.9597222222222223
0.23401057152296004,0.9604166666666667
0.23417575156921044,0.9604166666666667
0.23420878757846053,0.9604166666666667
0.23498513379583746,0.9604166666666667
0.23498513379583746,0.9611111111111111
0.23619094813346547,0.9611111111111111
0.23619094813346547,0.9618055555555556
0.23685166831846713,0.9618055555555556
0.23688470432771722,0.9618055555555556
0.23802444664684505,0.9618055555555556
0.23805748265609514,0.9618055555555556
0.23957713908159894,0.9618055555555556
0.23961017509084903,0.9618055555555556
0.24025437727122564,0.9618055555555556
0.24028741328047573,0.9618055555555556
0.24070036339610176,0.9618055555555556
0.24070036339610176,0.9631944444444445
0.2422035018169805,0.9631944444444445
0.24223653782623059,0.9631944444444445
0.24311199207135778,0.9631944444444445
0.24314502808060787,0.9631944444444445
0.24473075652461182,0.9631944444444445
0.2447637925338619,0.9631944444444445
0.24582094482986455,0.9631944444444445
0.24585398083911464,0.9631944444444445
0.24882722167162208,0.9631944444444445
0.24882722167162208,0.9638888888888889
0.2510571522960026,0.9638888888888889
0.2510901883052527,0.9638888888888889
0.25194912454575485,0.9638888888888889
0.25201519656425503,0.9638888888888889
0.2543111992071358,0.9638888888888889
0.2543442352163859,0.9638888888888889
0.25437727122563597,0.9638888888888889
0.25437727122563597,0.9645833333333333
0.25541790551701354,0.9645833333333333
0.25545094152626363,0.9645833333333333
0.2566732738685167,0.9645833333333333
0.2566732738685167,0.9652777777777778
0.2574496200858936,0.9652777777777778
0.2574826560951437,0.9652777777777778
0.2576808721506442,0.9652777777777778
0.2577139081598943,0.9652777777777778
0.25774694416914434,0.9652777777777778
0.25774694416914434,0.9659722222222222
0.2606541129831516,0.9659722222222222
0.2606871489924017,0.9659722222222222
0.2607697390155269,0.9659722222222222
0.260802775024777,0.9659722222222222
0.2613478691774034,0.9659722222222222
0.26138090518665347,0.9659722222222222
0.2617112652791543,0.9659722222222222
0.26174430128840437,0.9659722222222222
0.2618764453254047,0.9659722222222222
0.26190948133465475,0.9659722222222222
0.2623389494549058,0.9659722222222222
0.2623719854641559,0.9659722222222222
0.26399074991740995,0.9659722222222222
0.26399074991740995,0.9666666666666667
0.2647505781301619,0.9666666666666667
0.264783614139412,0.9666666666666667
0.26564255037991413,0.9666666666666667
0.26567558638916416,0.9666666666666667
0.2690948133465477,0.9666666666666667
0.2691278493557978,0.9666666666666667
0.26954079947142384,0.9666666666666667
0.26957383548067393,0.9666666666666667
0.27046580773042617,0.9666666666666667
0.27046580773042617,0.9673611111111111
0.2714238519986786,0.9673611111111111
0.27145688800792867,0.9673611111111111
0.2736868186323092,0.9673611111111111
0.2736868186323092,0.9680555555555556
0.27396762471093494,0.9680555555555556
0.274000660720185,0.9680555555555556
0.2741162867525603,0.9680555555555556
0.27414932276181037,0.9680555555555556
0.27593326726131484,0.9680555555555556
0.2759663032705649,0.9680555555555556
0.28034357449620084,0.9680555555555556
0.28034357449620084,0.96875
0.28065741658407667,0.96875
0.2806904525933267,0.96875
0.2832507433102081,0.96875
0.2832837793194582,0.96875
0.2834324413610836,0.96875
0.2834324413610836,0.9694444444444444
0.2840436075322101,0.9694444444444444
0.28407664354146017,0.9694444444444444
0.2844895936570862,0.9694444444444444
0.2844895936570862,0.9701388888888889
0.28501816980508754,0.9701388888888889
0.2850512058143376,0.9701388888888889
0.2864387182028411,0.9701388888888889
0.2864717542120912,0.9701388888888889
0.2865378262305913,0.9701388888888889
0.2865708622398414,0.9701388888888889
0.2870829203832177,0.9701388888888889
0.2870829203832177,0.9708333333333333
0.29056821935910143,0.9708333333333333
0.2906012553683515,0.9708333333333333
0.2919392137429799,0.9708333333333333
0.2919722497522299,0.9708333333333333
0.2920548397753551,0.9708333333333333
0.2921209117938553,0.9708333333333333
0.29367360422860916,0.9708333333333333
0.29367360422860916,0.9715277777777778
0.29410307234886024,0.9715277777777778
0.2941361083581103,0.9715277777777778
0.29509415262636274,0.9715277777777778
0.29509415262636274,0.9722222222222222
0.2956392467789891,0.9722222222222222
0.2956392467789891,0.9729166666666667
0.2965972910472415,0.9729166666666667
0.2965972910472415,0.9736111111111111
0.29937231582424845,0.9736111111111111
0.29937231582424845,0.9743055555555555
0.29950445986124874,0.9743055555555555
0.2995374958704988,0.9743055555555555
0.30069375619425176,0.9743055555555555
0.3007267922035018,0.9743055555555555
0.30130492236537826,0.9743055555555555
0.30133795837462835,0.9743055555555555
0.30386521308225967,0.9743055555555555
0.30389824909150975,0.9743055555555555
0.3082590023125206,0.9743055555555555
0.3082920383217707,0.9743055555555555
0.308804096465147,0.9743055555555555
0.308804096465147,0.975
0.3099603567888999,0.975
0.30999339279814997,0.975
0.3101585728444004,0.975
0.3101916088536505,0.975
0.3110670630987777,0.975
0.31110009910802777,0.975
0.312008589362405,0.975
0.3120416253716551,0.975
0.31316484968615793,0.975
0.313197885695408,0.975
0.31394119590353486,0.975
0.31394119590353486,0.9756944444444444
0.3143541460191609,0.9756944444444444
0.314387182028411,0.9756944444444444
0.31542781631978856,0.9756944444444444
0.31546085232903864,0.9756944444444444
0.31549388833828873,0.9756944444444444
0.3155269243475388,0.9756944444444444
0.3155599603567889,0.9756944444444444
0.315592996366039,0.9756944444444444
0.31630327056491575,0.9756944444444444
0.31633630657416584,0.9756944444444444
0.31973901552692435,0.9756944444444444
0.31977205153617444,0.9756944444444444
0.3205649157581764,0.9756944444444444
0.3205649157581764,0.9763888888888889
0.3217211760819293,0.9763888888888889
0.3217542120911794,0.9763888888888889
0.3238519986785596,0.9763888888888889
0.3238850346878097,0.9763888888888889
0.3263296993723158,0.9763888888888889
0.3263627353815659,0.9763888888888889
0.32682523951106707,0.9763888888888889
0.32682523951106707,0.9770833333333333
0.3277832837793195,0.9770833333333333
0.32781631978856957,0.9770833333333333
0.32951767426494877,0.9770833333333333
0.32955071027419885,0.9770833333333333
0.32969937231582425,0.9770833333333333
0.32973240832507433,0.9770833333333333
0.3314833168153287,0.9770833333333333
0.3315163528245788,0.9770833333333333
0.33326726131483314,0.9770833333333333
0.33330029732408323,0.9770833333333333
0.3338123554674595,0.9770833333333333
0.3338453914767096,0.9770833333333333
0.3353980839114635,0.9770833333333333
0.33543111992071356,0.9770833333333333
0.33591014205483977,0.9770833333333333
0.33594317806408985,0.9770833333333333
0.3368351503138421,0.9770833333333333
0.3368681863230922,0.9770833333333333
0.3369838123554675,0.9770833333333333
0.3369838123554675,0.9777777777777777
0.33769408655434424,0.9777777777777777
0.33772712256359433,0.9777777777777777
0.3402048232573505,0.9777777777777777
0.3402378592666006,0.9777777777777777
0.34046911133135116,0.9777777777777777
0.34046911133135116,0.9784722222222222
0.34162537165510404,0.9784722222222222
0.3416584076643541,0.9784722222222222
0.342385199867856,0.9784722222222222
0.34241823587710607,0.9784722222222222
0.3426329699372316,0.9784722222222222
0.34266600594648167,0.9784722222222222
0.3448794185662372,0.9784722222222222
0.3449124545754873,0.9784722222222222
0.345606210769739,0.9784722222222222
0.34562272877436406,0.9791666666666666
0.3465807730426165,0.9791666666666666
0.34661380905186656,0.9791666666666666
0.34962008589362403,0.9791666666666666
0.3496531219028741,0.9791666666666666
0.3502312520647506,0.9791666666666666
0.3502642880740007,0.9791666666666666
0.35090849025437726,0.9791666666666666
0.35090849025437726,0.9798611111111111
0.35094152626362735,0.9798611111111111
0.35237859266600596,0.9798611111111111
0.35241162867525605,0.9798611111111111
0.3530723488602577,0.9798611111111111
0.35310538486950777,0.9798611111111111
0.35558308556326396,0.9798611111111111
0.35561612157251404,0.9798611111111111
0.35697059795176744,0.9798611111111111
0.35700363396101753,0.9798611111111111
0.35825900231252067,0.9798611111111111
0.35829203832177076,0.9798611111111111
0.3587710604558969,0.9798611111111111
0.358804096465147,0.9798611111111111
0.35915097456227285,0.9798611111111111
0.35915097456227285,0.9805555555555555
0.3595143706640238,0.9805555555555555
0.3595474066732739,0.9805555555555555
0.3607201850016518,0.9805555555555555
0.3607532210109019,0.9805555555555555
0.36318136769078296,0.9805555555555555
0.36321440370003305,0.9805555555555555
0.3640733399405352,0.9805555555555555
0.3641063759497853,0.9805555555555555
0.36554344235216385,0.9805555555555555
0.36557647836141394,0.9805555555555555
0.3665180046250413,0.9805555555555555
0.3665510406342914,0.9805555555555555
0.36717872481004293,0.9805555555555555
0.36717872481004293,0.98125
0.36810373306904526,0.98125
0.36813676907829535,0.98125
0.3681863230921705,0.98125
0.36821935910142056,0.98125
0.3685992732077965,0.98125
0.3686323092170466,0.98125
0.36901222332342254,0.98125
0.36901222332342254,0.9819444444444444
0.36949124545754874,0.9819444444444444
0.36952428146679883,0.9819444444444444
0.3695407994714239,0.9819444444444444
0.36957383548067396,0.9819444444444444
0.37229930624380575,0.9819444444444444
0.37233234225305584,0.9819444444444444
0.37299306243805747,0.9819444444444444
0.37302609844730755,0.9819444444444444
0.37320779649818303,0.9819444444444444
0.3732408325074331,0.9819444444444444
0.37350512058143376,0.9819444444444444
0.37353815659068385,0.9819444444444444
0.3760819293029402,0.9819444444444444
0.3761149653121903,0.9819444444444444
0.380789560621077,0.9819444444444444
0.3808225966303271,0.9819444444444444
0.3829203832177073,0.9819444444444444
0.3829369012223323,0.9826388888888888
0.38301949124545753,0.9826388888888888
0.3830525272547076,0.9826388888888888
0.3837793194582094,0.9826388888888888
0.3838123554674595,0.9826388888888888
0.38546415592996364,0.9826388888888888
0.3854971919392137,0.9826388888888888
0.387215064420218,0.9826388888888888
0.3872481004294681,0.9826388888888888
0.3878427485959696,0.9826388888888888
0.3878757846052197,0.9826388888888888
0.3879418566237198,0.9826388888888888
0.3879418566237198,0.9833333333333333
0.3882061446977205,0.9833333333333333
0.3882391807069706,0.9833333333333333
0.3889659729104724,0.9833333333333333
0.3889990089197225,0.9833333333333333
0.38909811694747276,0.9833333333333333
0.38913115295672285,0.9833333333333333
0.38994053518334987,0.9833333333333333
0.38997357119259995,0.9833333333333333
0.389990089197225,0.9833333333333333
0.3900231252064751,0.9833333333333333
0.3945160224644863,0.9833333333333333
0.3945490584737364,0.9833333333333333
0.39613478691774034,0.9833333333333333
0.39616782292699043,0.9833333333333333
0.3977535513709944,0.9833333333333333
0.39778658738024447,0.9833333333333333
0.39781962338949456,0.9833333333333333
0.39785265939874465,0.9833333333333333
0.40442682523951107,0.9833333333333333
0.40445986124876115,0.9833333333333333
0.40550049554013873,0.9833333333333333
0.4055335315493888,0.9833333333333333
0.406012553683515,0.9833333333333333
0.4060455896927651,0.9833333333333333
0.4068384539147671,0.9833333333333333
0.4068384539147671,0.9840277777777777
0.4089197224975223,0.9840277777777777
0.4089527585067724,0.9840277777777777
0.40971258671952426,0.9840277777777777
0.40971258671952426,0.9847222222222223
0.41154608523290387,0.9847222222222223
0.41157912124215396,0.9847222222222223
0.4118103733069045,0.9847222222222223
0.4118434093161546,0.9847222222222223
0.41402378592666006,0.9847222222222223
0.41405682193591015,0.9847222222222223
0.41433762801453583,0.9847222222222223
0.4143706640237859,0.9847222222222223
0.414403700033036,0.9847222222222223
0.4144367360422861,0.9847222222222223
0.41537826230591346,0.9847222222222223
0.41537826230591346,0.9854166666666667
0.4159233564585398,0.9854166666666667
0.4159233564585398,0.9861111111111112
0.41641889659729103,0.9861111111111112
0.4164519326065411,0.9861111111111112
0.421192599933928,0.9861111111111112
0.4212256359431781,0.9861111111111112
0.42376940865543444,0.9861111111111112
0.42380244466468453,0.9861111111111112
0.42471093491906176,0.9861111111111112
0.42474397092831184,0.9861111111111112
0.4247604889329369,0.9861111111111112
0.424793524942187,0.9861111111111112
0.4266435414601916,0.9861111111111112
0.4266765774694417,0.9861111111111112
0.4269904195573175,0.9861111111111112
0.42702345556656757,0.9861111111111112
0.4288569540799471,0.9861111111111112
0.4288899900891972,0.9861111111111112
0.429583746283449,0.9861111111111112
0.42961678229269906,0.9861111111111112
0.42964981830194915,0.9861111111111112
0.4296828543111992,0.9861111111111112
0.4299471423851999,0.9861111111111112
0.4299471423851999,0.9868055555555556
0.4306739345887017,0.9868055555555556
0.43070697059795177,0.9868055555555556
0.43230921704658076,0.9868055555555556
0.43230921704658076,0.9875
0.43384539147670964,0.9875
0.4338784274859597,0.9875
0.4346712917079617,0.9875
0.43470432771721174,0.9875
0.4358275520317146,0.9875
0.43586058804096467,0.9875
0.4359762140733399,0.9875
0.43600925008259,0.9875
0.44022134126197554,0.9875
0.4402543772712256,0.9875
0.440799471423852,0.9875
0.4408325074331021,0.9875
0.44263296993723156,0.9875
0.44266600594648164,0.9875
0.44446646845061116,0.9875
0.44449950445986125,0.9875
0.4454410307234886,0.9875
0.4454410307234886,0.9881944444444445
0.4482490915097456,0.9881944444444445
0.4482490915097456,0.9888888888888889
0.4506442021803766,0.9888888888888889
0.4506442021803766,0.9895833333333334
0.4517839444995045,0.9895833333333334
0.4518169805087545,0.9895833333333334
0.45599603567888997,0.9895833333333334
0.45602907168814005,0.9895833333333334
0.4574331020812686,0.9895833333333334
0.45746613809051867,0.9895833333333334
0.45771390815989427,0.9895833333333334
0.45774694416914435,0.9895833333333334
0.4590518665345226,0.9895833333333334
0.4590849025437727,0.9895833333333334
0.4593326726131483,0.9895833333333334
0.4593657086223984,0.9895833333333334
0.4615295672282788,0.9895833333333334
0.4615626032375289,0.9895833333333334
0.46181037330690455,0.9895833333333334
0.4618434093161546,0.9895833333333334
0.46250412950115627,0.9895833333333334
0.46253716551040636,0.9895833333333334
0.4641559299636604,0.9895833333333334
0.4641889659729105,0.9895833333333334
0.4663032705649158,0.9895833333333334
0.46633630657416586,0.9895833333333334
0.46661711265279154,0.9895833333333334
0.46665014866204163,0.9895833333333334
0.4671126527915428,0.9895833333333334
0.4671126527915428,0.9902777777777778
0.46793855302279486,0.9902777777777778
0.46797158903204494,0.9902777777777778
0.46854971919392135,0.9902777777777778
0.46854971919392135,0.9909722222222223
0.46858275520317144,0.9909722222222223
0.46902874132804756,0.9909722222222223
0.46906177733729765,0.9909722222222223
0.4692434753881731,0.9909722222222223
0.4692434753881731,0.9916666666666667
0.4695573174760489,0.9916666666666667
0.469590353485299,0.9916666666666667
0.47001982160555006,0.9916666666666667
0.47005285761480015,0.9916666666666667
0.47063098777667656,0.9916666666666667
0.47066402378592664,0.9916666666666667
0.4729104724149323,0.9916666666666667
0.47294350842418237,0.9916666666666667
0.4729600264288074,0.9916666666666667
0.4729930624380575,0.9916666666666667
0.47438057482656093,0.9916666666666667
0.474413610835811,0.9916666666666667
0.475619425173439,0.9916666666666667
0.4756524611826891,0.9916666666666667
0.4770730095804427,0.9916666666666667
0.4771060455896928,0.9916666666666667
0.4775189957053188,0.9916666666666667
0.4775520317145689,0.9916666666666667
0.4783118599273208,0.9916666666666667
0.47834489593657087,0.9916666666666667
0.4785761480013214,0.9916666666666667
0.4786091840105715,0.9916666666666667
0.47895606210769737,0.9916666666666667
0.47898909811694745,0.9916666666666667
0.4796663363065742,0.9916666666666667
0.47969937231582427,0.9916666666666667
0.48282127518995704,0.9916666666666667
0.48285431119920713,0.9916666666666667
0.4829864552362075,0.9916666666666667
0.4829864552362075,0.9923611111111111
0.48513379583746286,0.9923611111111111
0.48516683184671294,0.9923611111111111
0.4858771060455897,0.9923611111111111
0.4859101420548398,0.9923611111111111
0.4860588040964651,0.9923611111111111
0.4860918401057152,0.9923611111111111
0.4880409646514701,0.9923611111111111
0.4880740006607202,0.9923611111111111
0.4942352163858606,0.9923611111111111
0.4942682523951107,0.9923611111111111
0.4946646845061117,0.9923611111111111
0.49469772051536176,0.9923611111111111
0.4967459530888669,0.9923611111111111
0.49677898909811696,0.9923611111111111
0.4969606871489924,0.9923611111111111
0.4969937231582425,0.9923611111111111
0.497604889329369,0.9923611111111111
0.4976379253386191,0.9923611111111111
0.49889329369012225,0.9923611111111111
0.49892632969937234,0.9923611111111111
0.5005781301618765,0.9923611111111111
0.5006111661711266,0.9923611111111111
0.5011067063098777,0.9923611111111111
0.5011397423191278,0.9923611111111111
0.5049554013875124,0.9923611111111111
0.5049884373967625,0.9923611111111111
0.5081598942847704,0.9923611111111111
0.5081929302940205,0.9923611111111111
0.5085232903865213,0.9923611111111111
0.5085563263957714,0.9923611111111111
0.509580442682524,0.9923611111111111
0.509613478691774,0.9923611111111111
0.5105880409646515,0.9923611111111111
0.5105880409646515,0.9930555555555556
0.5108853650479022,0.9930555555555556
0.5109349190617773,0.9930555555555556
0.5118599273207797,0.9930555555555556
0.5118929633300298,0.9930555555555556
0.5173604228609184,0.9930555555555556
0.5173934588701685,0.9930555555555556
0.5174760488932937,0.9930555555555556
0.5175090849025438,0.9930555555555556
0.5209117938553023,0.9930555555555556
0.5209448298645524,0.9930555555555556
0.5210109018830525,0.9930555555555556
0.5210439378923026,0.9930555555555556
0.5228278823918071,0.9930555555555556
0.5228939544103073,0.9930555555555556
0.5295507102741989,0.9930555555555556
0.529583746283449,0.9930555555555556
0.5300462504129502,0.9930555555555556
0.5300792864222001,0.9930555555555556
0.5304592005285762,0.9930555555555556
0.5304922365378262,0.9930555555555556
0.5320284109679551,0.9930555555555556
0.5320614469772051,0.9930555555555556
0.5325074331020813,0.9930555555555556
0.5325404691113313,0.9930555555555556
0.5337628014535845,0.9930555555555556
0.5337628014535845,0.99375
0.5354476379253387,0.99375
0.5354806739345886,0.99375
0.5360422860918401,0.99375
0.5360753221010902,0.99375
0.5399570531879749,0.99375
0.539990089197225,0.99375
0.540403039312851,0.99375
0.5404360753221011,0.99375
0.5434753881731087,0.99375
0.5435084241823588,0.99375
0.5443012884043608,0.99375
0.5443343244136108,0.99375
0.544780310538487,0.99375
0.544813346547737,0.99375
0.545193260654113,0.99375
0.5452262966633631,0.99375
0.5458539808391146,0.99375
0.5458870168483647,0.99375
0.5459365708622398,0.99375
0.5459696068714899,0.99375
0.5475553353154939,0.99375
0.5475883713247439,0.99375
0.5532705649157582,0.99375
0.5532705649157582,0.9944444444444445
0.5533696729435085,0.9944444444444445
0.5534027089527586,0.9944444444444445
0.555616121572514,0.9944444444444445
0.5556491575817641,0.9944444444444445
0.560802775024777,0.9944444444444445
0.5608358110340271,0.9944444444444445
0.5611000991080277,0.9944444444444445
0.5611000991080277,0.9951388888888889
0.5621902874132805,0.9951388888888889
0.5622233234225306,0.9951388888888889
0.5666831846712918,0.9951388888888889
0.5667162206805418,0.9951388888888889
0.5679385530227948,0.9951388888888889
0.5679715890320449,0.9951388888888889
0.5680541790551701,0.9951388888888889
0.5680872150644202,0.9951388888888889
0.5685992732077965,0.9951388888888889
0.5686323092170465,0.9951388888888889
0.568780971258672,0.9951388888888889
0.5688140072679221,0.9951388888888889
0.5705979517674264,0.9951388888888889
0.5706309877766765,0.9951388888888889
0.5725635943178065,0.9951388888888889
0.5725966303270565,0.9951388888888889
0.5732243145028081,0.9951388888888889
0.5732573505120582,0.9951388888888889
0.5733894945490585,0.9951388888888889
0.5734225305583086,0.9951388888888889
0.5735381565906839,0.9951388888888889
0.5735711925999339,0.9951388888888889
0.5739676247109349,0.9951388888888889
0.574000660720185,0.9951388888888889
0.5747274529236868,0.9951388888888889
0.5747604889329369,0.9951388888888889
0.5756524611826891,0.9951388888888889
0.5756854971919392,0.9951388888888889
0.5765444334324413,0.9951388888888889
0.5765774694416914,0.9951388888888889
0.5778658738024447,0.9951388888888889
0.5778989098116948,0.9951388888888889
0.5780475718533201,0.9951388888888889
0.5781136438718203,0.9951388888888889
0.5785761480013214,0.9951388888888889
0.5786091840105715,0.9951388888888889
0.5800462504129501,0.9951388888888889
0.5800792864222002,0.9951388888888889
0.5816484968615792,0.9951388888888889
0.5816815328708292,0.9951388888888889
0.5821935910142055,0.9951388888888889
0.5822266270234555,0.9951388888888889
0.5824578790882061,0.9951388888888889
0.5824909150974562,0.9951388888888889
0.5828708292038322,0.9951388888888889
0.5829038652130822,0.9951388888888889
0.5833828873472084,0.9951388888888889
0.5834159233564585,0.9951388888888889
0.5838949454905847,0.9951388888888889
0.5839279814998348,0.9951388888888889
0.5843244136108358,0.9951388888888889
0.5843574496200858,0.9951388888888889
0.5845556656755864,0.9951388888888889
0.5845556656755864,0.9958333333333333
0.585199867855963,0.9958333333333333
0.5852329038652131,0.9958333333333333
0.5867360422860919,0.9958333333333333
0.586769078295342,0.9958333333333333
0.5883548067393459,0.9958333333333333
0.588387842748596,0.9958333333333333
0.5898083911463495,0.9958333333333333
0.5898414271555996,0.9958333333333333
0.5908325074331021,0.9958333333333333
0.5908325074331021,0.9965277777777778
0.5914767096134786,0.9965277777777778
0.5915097456227287,0.9965277777777778
0.5922530558308556,0.9965277777777778
0.5922860918401057,0.9965277777777778
0.5949950445986125,0.9965277777777778
0.5950280806078626,0.9965277777777778
0.5962504129501156,0.9965277777777778
0.5962834489593657,0.9965277777777778
0.5963164849686158,0.9965277777777778
0.5963495209778659,0.9965277777777778
0.5979022134126197,0.9965277777777778
0.5979352494218698,0.9965277777777778
0.5982821275189957,0.9965277777777778
0.5983151635282458,0.9965277777777778
0.600776346217377,0.9965277777777778
0.600809382226627,0.9965277777777778
0.6008754542451272,0.9965277777777778
0.6009084902543773,0.9965277777777778
0.6023125206475057,0.9965277777777778
0.6023455566567558,0.9965277777777778
0.6059299636603899,0.9965277777777778
0.60596299966964,0.9965277777777778
0.6062272877436405,0.9965277777777778
0.6062603237528906,0.9965277777777778
0.6073835480673935,0.9965277777777778
0.6074165840766436,0.9965277777777778
0.6092335645853981,0.9965277777777778
0.6092666005946482,0.9965277777777778
0.6098942847703998,0.9965277777777778
0.6099273207796498,0.9965277777777778
0.6121407333994053,0.9965277777777778
0.6121737694086554,0.9965277777777778
0.6165510406342913,0.9965277777777778
0.6165840766435414,0.9965277777777778
0.6171126527915428,0.9965277777777778
0.6171456888007929,0.9965277777777778
0.617178724810043,0.9965277777777778
0.6172117608192931,0.9965277777777778
0.6183349851337958,0.9965277777777778
0.6183680211430459,0.9965277777777778
0.6185662371985464,0.9965277777777778
0.6185992732077965,0.9965277777777778
0.6189791873141725,0.9965277777777778
0.6189791873141725,0.9972222222222222
0.6190452593326726,0.9972222222222222
0.6190782953419227,0.9972222222222222
0.6201024116286753,0.9972222222222222
0.6201354476379254,0.9972222222222222
0.6204658077304261,0.9972222222222222
0.6204988437396762,0.9972222222222222
0.6232408325074331,0.9972222222222222
0.6233069045259333,0.9972222222222222
0.6239511067063099,0.9972222222222222
0.6239841427155599,0.9972222222222222
0.6244962008589362,0.9972222222222222
0.6245292368681863,0.9972222222222222
0.625619425173439,0.9972222222222222
0.625619425173439,0.9979166666666667
0.6258837132474397,0.9979166666666667
0.6259167492566898,0.9979166666666667
0.6261975553353155,0.9979166666666667
0.6262305913445656,0.9979166666666667
0.6283448959365708,0.9979166666666667
0.6283779319458209,0.9979166666666667
0.6297654443343245,0.9979166666666667
0.6297984803435746,0.9979166666666667
0.6308391146349521,0.9979166666666667
0.6308391146349521,0.9986111111111111
0.6319458209448299,0.9986111111111111
0.63197885695408,0.9986111111111111
0.6322431450280807,0.9986111111111111
0.6322761810373307,0.9986111111111111
0.6402048232573505,0.9986111111111111
0.6402378592666006,0.9986111111111111
0.6405351833498514,0.9986111111111111
0.6405682193591015,0.9986111111111111
0.6407664354146019,0.9986111111111111
0.640799471423852,0.9986111111111111
0.642401717872481,0.9986111111111111
0.6424347538817311,0.9986111111111111
0.6428642220019821,0.9986111111111111
0.6428972580112322,0.9986111111111111
0.6471258671952428,0.9986111111111111
0.647175421209118,0.9986111111111111
0.6516518004625041,0.9986111111111111
0.6516848364717542,0.9986111111111111
0.6517509084902544,0.9986111111111111
0.6517839444995045,0.9986111111111111
0.6524942186983812,0.9986111111111111
0.6525272547076313,0.9986111111111111
0.6552857614800132,0.9986111111111111
0.6553187974892632,0.9986111111111111
0.6557152296002643,0.9986111111111111
0.6557482656095144,0.9986111111111111
0.6562272877436406,0.9986111111111111
0.6562603237528907,0.9986111111111111
0.6566237198546415,0.9986111111111111
0.6566567558638916,0.9986111111111111
0.6567228278823918,0.9986111111111111
0.6567558638916419,0.9986111111111111
0.6645853980839115,0.9986111111111111
0.6646184340931616,0.9986111111111111
0.666385860588041,0.9986111111111111
0.666418896597291,0.9986111111111111
0.6708457218368021,0.9986111111111111
0.6708787578460522,0.9986111111111111
0.672398414271556,0.9986111111111111
0.6724314502808061,0.9986111111111111
0.6725470763131813,0.9986111111111111
0.6725801123224314,0.9986111111111111
0.6728939544103072,0.9986111111111111
0.6729269904195573,0.9986111111111111
0.6751569210439379,0.9986111111111111
0.675189957053188,0.9986111111111111
0.6752890650809382,0.9986111111111111
0.6753221010901883,0.9986111111111111
0.6764288074000661,0.9986111111111111
0.6764618434093161,0.9986111111111111
0.678410967955071,0.9986111111111111
0.6784440039643211,0.9986111111111111
0.6804426825239511,0.9986111111111111
0.6804757185332012,0.9986111111111111
0.6816484968615791,0.9986111111111111
0.6816815328708292,0.9986111111111111
0.6816980508754542,0.9986111111111111
0.6817310868847043,0.9986111111111111
0.6841757515692104,0.9986111111111111
0.6842087875784605,0.9986111111111111
0.6870333663693425,0.9986111111111111
0.6870664023785926,0.9986111111111111
0.6902874132804757,0.9986111111111111
0.6903204492897258,0.9986111111111111
0.6912454575487281,0.9986111111111111
0.6912784935579782,0.9986111111111111
0.6925173439048563,0.9986111111111111
0.6925503799141064,0.9986111111111111
0.6925999339279815,0.9986111111111111
0.6926329699372316,0.9986111111111111
0.6929302940204823,0.9986111111111111
0.6929633300297324,0.9986111111111111
0.6941526263627353,0.9986111111111111
0.6941856623719854,0.9986111111111111
0.6949785265939874,0.9986111111111111
0.6950115626032375,0.9986111111111111
0.6976379253386191,0.9986111111111111
0.6976709613478692,0.9986111111111111
0.6993557978196234,0.9986111111111111
0.6993888338288735,0.9986111111111111
0.7010571522960026,0.9986111111111111
0.7010901883052527,0.9986111111111111
0.7014701024116287,0.9986111111111111
0.7015031384208787,0.9986111111111111
0.7018665345226297,0.9986111111111111
0.7019326065411299,0.9986111111111111
0.7025768087215064,0.9986111111111111
0.7026098447307565,0.9986111111111111
0.7037826230591344,0.9986111111111111
0.7038156590683845,0.9986111111111111
0.7047241493227618,0.9986111111111111
0.7047571853320119,0.9986111111111111
0.7047737033366369,0.9986111111111111
0.704806739345887,0.9986111111111111
0.7079781962338949,0.9986111111111111
0.708011232243145,0.9986111111111111
0.7080607862570202,0.9986111111111111
0.7080938222662703,0.9986111111111111
0.7175751569210439,0.9986111111111111
0.717608192930294,0.9986111111111111
0.7229435084241823,0.9986111111111111
0.7229765444334324,0.9986111111111111
0.7246118268913115,0.9986111111111111
0.7246448629005616,0.9986111111111111
0.7266930954740667,0.9986111111111111
0.7267261314833168,0.9986111111111111
0.7272216716220681,0.9986111111111111
0.7272547076313182,0.9986111111111111
0.7274694416914437,0.9986111111111111
0.7275024777006938,0.9986111111111111
0.7278328377931946,0.9986111111111111
0.7278658738024447,0.9986111111111111
0.7311199207135778,0.9986111111111111
0.7311529567228279,0.9986111111111111
0.7354311199207135,0.9986111111111111
0.7354641559299636,0.9986111111111111
0.736372646184341,0.9986111111111111
0.736405682193591,0.9986111111111111
0.7385695407994715,0.9986111111111111
0.7386025768087215,0.9986111111111111
0.7391807069705979,0.9986111111111111
0.739213742979848,0.9986111111111111
0.7411628675256029,0.9986111111111111
0.741195903534853,0.9986111111111111
0.7429468120251074,0.9986111111111111
0.7429798480343575,0.9986111111111111
0.7438553022794846,0.9986111111111111
0.7438883382887347,0.9986111111111111
0.7465312190287413,0.9986111111111111
0.7465642550379914,0.9986111111111111
0.7470763131813677,0.9986111111111111
0.7471093491906178,0.9986111111111111
0.748397753551371,0.9986111111111111
0.748430789560621,0.9986111111111111
0.7494383878427486,0.9986111111111111
0.7494714238519987,0.9986111111111111
0.749570531879749,0.9986111111111111
0.749603567888999,0.9986111111111111
0.7506772381896267,0.9986111111111111
0.7507102741988768,0.9986111111111111
0.7517343904856293,0.9986111111111111
0.7517674264948794,0.9986111111111111
0.7536339610175091,0.9986111111111111
0.7536669970267592,0.9986111111111111
0.7541460191608854,0.9986111111111111
0.7541790551701354,0.9986111111111111
0.7548893293690122,0.9986111111111111
0.7549223653782623,0.9986111111111111
0.7563098777667657,0.9986111111111111
0.7563429137760158,0.9986111111111111
0.7578295341922696,0.9986111111111111
0.7578625702015197,0.9986111111111111
0.7621407333994054,0.9986111111111111
0.7621737694086554,0.9986111111111111
0.7650809382226627,0.9986111111111111
0.7651139742319127,0.9986111111111111
0.7662206805417906,0.9986111111111111
0.7662537165510407,0.9986111111111111
0.7688965972910472,0.9986111111111111
0.7689296333002973,0.9986111111111111
0.777221671622068,0.9986111111111111
0.7772547076313181,0.9986111111111111
0.7784935579781962,0.9986111111111111
0.7785265939874463,0.9986111111111111
0.7802279484638256,0.9986111111111111
0.7802609844730757,0.9986111111111111
0.7819623389494549,0.9986111111111111
0.781995374958705,0.9986111111111111
0.782408325074331,0.9986111111111111
0.7824413610835811,0.9986111111111111
0.7830525272547076,0.9986111111111111
0.7830855632639577,0.9986111111111111
0.7832672613148332,0.9986111111111111
0.7833002973240832,0.9986111111111111
0.7900891972249752,0.9986111111111111
0.7901222332342253,0.9986111111111111
0.7921869838123554,0.9986111111111111
0.7922200198216055,0.9986111111111111
0.7922860918401057,0.9986111111111111
0.7923191278493558,0.9986111111111111
0.792418235877106,0.9986111111111111
0.7924512718863561,0.9986111111111111
0.7929963660389825,0.9986111111111111
0.7930294020482326,0.9986111111111111
0.7934919061777337,0.9986111111111111
0.7935249421869838,0.9986111111111111
0.7958870168483647,0.9986111111111111
0.7959200528576148,0.9986111111111111
0.7969937231582425,0.9986111111111111
0.7970267591674925,0.9986111111111111
0.7970763131813677,0.9986111111111111
0.7971093491906178,0.9986111111111111
0.79800132144037,0.9986111111111111
0.79803435744962,0.9986111111111111
0.7987776676577469,0.9986111111111111
0.7987776676577469,0.9993055555555556
0.7993227618103733,0.9993055555555556
0.7993557978196234,0.9993055555555556
0.8005781301618764,0.9993055555555556
0.8006111661711265,0.9993055555555556
0.8008754542451272,0.9993055555555556
0.8009084902543773,0.9993055555555556
0.8013379583746283,0.9993055555555556
0.8013709943838784,0.9993055555555556
0.8025602907168814,0.9993055555555556
0.8025933267261315,0.9993055555555556
0.8059464816650148,0.9993055555555556
0.8059795176742649,0.9993055555555556
0.8081103402708952,0.9993055555555556
0.8081433762801453,0.9993055555555556
0.8086719524281467,0.9993055555555556
0.8087049884373968,0.9993055555555556
0.8100264288074001,0.9993055555555556
0.8100594648166501,0.9993055555555556
0.8113643871820284,0.9993055555555556
0.8113974231912785,0.9993055555555556
0.8130327056491575,0.9993055555555556
0.8130657416584076,0.9993055555555556
0.8148496861579121,0.9993055555555556
0.8148827221671622,0.9993055555555556
0.8151139742319128,0.9993055555555556
0.8151470102411629,0.9993055555555556
0.8156260323752891,0.9993055555555556
0.8156590683845392,0.9993055555555556
0.816418896597291,0.9993055555555556
0.8164519326065411,0.9993055555555556
0.8166005946481665,0.9993055555555556
0.8166336306574166,0.9993055555555556
0.8182854311199207,0.9993055555555556
0.8183184671291708,0.9993055555555556
0.8202841096795507,0.9993055555555556
0.8203171456888008,0.9993055555555556
0.8209943838784275,0.9993055555555556
0.8210274198876776,0.9993055555555556
0.8211265279154278,0.9993055555555556
0.8211595639246779,0.9993055555555556
0.8216716220680542,0.9993055555555556
0.8217046580773043,0.9993055555555556
0.8220515361744302,0.9993055555555556
0.8220845721836803,0.9993055555555556
0.8230260984473076,0.9993055555555556
0.8230591344565577,0.9993055555555556
0.8235216385860588,0.9993055555555556
0.8235546745953088,0.9993055555555556
0.82801453584407,0.9993055555555556
0.8280475718533201,0.9993055555555556
0.8320779649818302,0.9993055555555556
0.8321110009910803,0.9993055555555556
0.8322596630327056,0.9993055555555556
0.8322926990419557,0.9993055555555556
0.8329038652130822,0.9993055555555556
0.8329369012223323,0.9993055555555556
0.8409316154608524,0.9993055555555556
0.8409646514701025,0.9993055555555556
0.8416914436736043,0.9993055555555556
0.8417244796828544,0.9993055555555556
0.8483481995374959,0.9993055555555556
0.8483812355467459,0.9993055555555556
0.8514866204162537,0.9993055555555556
0.8515196564255038,0.9993055555555556
0.854757185332012,0.9993055555555556
0.8547902213412619,0.9993055555555556
0.8570697059795177,0.9993055555555556
0.8571027419887678,0.9993055555555556
0.85799471423852,0.9993055555555556
0.8580277502477701,0.9993055555555556
0.8617112652791543,0.9993055555555556
0.8617443012884044,0.9993055555555556
0.8623554674595308,0.9993055555555556
0.8623885034687809,0.9993055555555556
0.8625867195242815,0.9993055555555556
0.8626197555335315,0.9993055555555556
0.86399074991741,0.9993055555555556
0.8640237859266601,0.9993055555555556
0.8673273868516683,0.9993055555555556
0.8673604228609184,0.9993055555555556
0.867591674925669,0.9993055555555556
0.8676247109349191,0.9993055555555556
0.8678559629996696,0.9993055555555556
0.8678889990089197,0.9993055555555556
0.8706144697720516,0.9993055555555556
0.8706475057813016,0.9993055555555556
0.8717542120911794,0.9993055555555556
0.8717872481004295,0.9993055555555556
0.8745457548728114,0.9993055555555556
0.8745787908820615,0.9993055555555556
0.8751073670300628,0.9993055555555556
0.8751404030393128,0.9993055555555556
0.8764288074000661,0.9993055555555556
0.8764618434093161,0.9993055555555556
0.8766105054509415,0.9993055555555556
0.8766435414601916,0.9993055555555556
0.8789230260984473,0.9993055555555556
0.8789560621076974,0.9993055555555556
0.8809051866534523,0.9993055555555556
0.8809382226627024,0.9993055555555556
0.8827386851668318,0.9993055555555556
0.8827717211760819,0.9993055555555556
0.8849686157912124,0.9993055555555556
0.8850016518004625,0.9993055555555556
0.88600925008259,0.9993055555555556
0.8860422860918401,0.9993055555555556
0.8876114965312191,0.9993055555555556
0.8876445325404692,0.9993055555555556
0.8900231252064751,0.9993055555555556
0.8900561612157252,0.9993055555555556
0.8923026098447308,0.9993055555555556
0.8923356458539808,0.9993055555555556
0.8930789560621077,0.9993055555555556
0.8931119920713578,0.9993055555555556
0.8941361083581103,0.9993055555555556
0.8941691443673604,0.9993055555555556
0.8950115626032376,0.9993055555555556
0.8950445986124876,0.9993055555555556
0.8994053518334986,0.9993055555555556
0.8994383878427485,0.9993055555555556
0.8997357119259993,0.9993055555555556
0.8997687479352494,0.9993055555555556
0.901602246448629,0.9993055555555556
0.901635282457879,0.9993055555555556
0.9025933267261315,0.9993055555555556
0.9026263627353815,0.9993055555555556
0.9053518334985133,0.9993055555555556
0.9053848695077634,0.9993055555555556
0.905979517674265,0.9993055555555556
0.9060125536835151,0.9993055555555556
0.9071522960026429,0.9993055555555556
0.907185332011893,0.9993055555555556
0.9074000660720185,0.9993055555555556
0.9074331020812686,0.9993055555555556
0.9104889329369013,0.9993055555555556
0.9105219689461513,0.9993055555555556
0.9121076973901553,0.9993055555555556
0.9121407333994054,0.9993055555555556
0.9122728774364057,0.9993055555555556
0.9123059134456558,0.9993055555555556
0.9123389494549059,0.9993055555555556
0.9123719854641559,0.9993055555555556
0.9146514701024117,0.9993055555555556
0.9146845061116617,0.9993055555555556
0.9180376610505451,0.9993055555555556
0.9180706970597952,0.9993055555555556
0.9211100099108028,0.9993055555555556
0.9211430459200528,0.9993055555555556
0.9225966303270565,0.9993055555555556
0.9226296663363066,0.9993055555555556
0.9281962338949455,0.9993055555555556
0.9282292699041955,0.9993055555555556
0.9303931285100759,0.9993055555555556
0.930426164519326,0.9993055555555556
0.9308391146349521,0.9993055555555556
0.9308721506442021,0.9993055555555556
0.9363230921704658,0.9993055555555556
0.9363561281797159,0.9993055555555556
0.9382887347208457,0.9993055555555556
0.9383217707300958,0.9993055555555556
0.9386356128179716,0.9993055555555556
0.9386686488272217,0.9993055555555556
0.938800792864222,0.9993055555555556
0.938800792864222,1.0
0.9390981169474727,1.0
0.9391311529567228,1.0
0.9435414601916089,1.0
0.943574496200859,1.0
0.9439213742979848,1.0
0.9439544103072349,1.0
0.9481499834819954,1.0
0.9481830194912455,1.0
0.9484473075652461,1.0
0.9484803435744962,1.0
0.9543111992071358,1.0
0.9543442352163859,1.0
0.9546911133135118,1.0
0.9547241493227618,1.0
0.9562107697390155,1.0
0.9562438057482656,1.0
0.9573174760488933,1.0
0.9573505120581434,1.0
0.9582094482986455,1.0
0.9582424843078956,1.0
0.9593657086223984,1.0
0.9593987446316485,1.0
0.9600925008259003,1.0
0.9601255368351503,1.0
0.9605550049554014,1.0
0.9605880409646514,1.0
0.9606210769739015,1.0
0.9606541129831516,1.0
0.9648496861579121,1.0
0.9648827221671622,1.0
0.9654112983151635,1.0
0.9654443343244136,1.0
0.9676412289395441,1.0
0.9676742649487942,1.0
0.9696729435084241,1.0
0.9697059795176742,1.0
0.9764948794185663,1.0
0.9765279154278164,1.0
0.9786422200198216,1.0
0.9786752560290717,1.0
0.9800132144037,1.0
0.9800462504129501,1.0
0.9832837793194582,1.0
0.9833168153287083,1.0
0.983581103402709,1.0
0.9836141394119591,1.0
0.9850181698050875,1.0
0.9850512058143376,1.0
0.9865213082259663,1.0
0.9865543442352164,1.0
0.9879088206144697,1.0
0.9879418566237198,1.0
0.9902543772712257,1.0
0.9902874132804758,1.0
0.9925503799141063,1.0
0.9925834159233564,1.0
0.9934258341592336,1.0
0.9934588701684837,1.0
0.9947803105384869,1.0
0.994813346547737,1.0
0.9983316815328708,1.0
0.9983647175421209,1.0
0.9987281136438718,1.0
0.9987611496531219,1.0
0.9993062438057483,1.0
0.9993392798149984,1.0
1.0,1.0
