fpr,tpr
0.0,0.0
0.0,0.0003403675970047651
0.0,0.0010211027910142954
1.7075919538267136e-05,0.0010211027910142954
1.7075919538267136e-05,0.007828454731109599
3.415183907653427e-05,0.007828454731109599
3.415183907653427e-05,0.03778080326752893
5.1227758614801405e-05,0.03778080326752893
5.1227758614801405e-05,0.03914227365554799
5.1227758614801405e-05,0.03982300884955752
5.1227758614801405e-05,0.07454050374404357
5.1227758614801405e-05,0.0752212389380531
5.1227758614801405e-05,0.12185159972770593
6.830367815306854e-05,0.12185159972770593
6.830367815306854e-05,0.1446562287270252
8.537959769133568e-05,0.1446562287270252
8.537959769133568e-05,0.14976174268209666
8.537959769133568e-05,0.1504424778761062
8.537959769133568e-05,0.18379850238257317
0.00010245551722960281,0.18379850238257317
0.00010245551722960281,0.18515997277059223
0.00011953143676786995,0.18515997277059223
0.00011953143676786995,0.3005445881552076
0.0001366073563061371,0.3005445881552076
0.0001366073563061371,0.31075561606535057
0.00015368327584440423,0.31075561606535057
0.00015368327584440423,0.35534377127297484
0.00017075919538267137,0.35534377127297484
0.00017075919538267137,0.3788291354663036
0.00018783511492093848,0.3788291354663036
0.00018783511492093848,0.39925119128658954
0.00020491103445920562,0.39925119128658954
0.00020491103445920562,0.4404356705241661
0.00022198695399747276,0.4404356705241661
0.00022198695399747276,0.4489448604492852
0.0002390628735357399,0.4489448604492852
0.0002390628735357399,0.45779441797140913
0.0002902906321505413,0.45779441797140913
0.0002902906321505413,0.46664397549353304
0.00030736655168880846,0.46664397549353304
0.00030736655168880846,0.4676650782845473
0.00034151839076534274,0.4676650782845473
0.00034151839076534274,0.476855003403676
0.00035859431030360985,0.476855003403676
0.00035859431030360985,0.4914908100748809
0.00037567022984187696,0.4914908100748809
0.00037567022984187696,0.4928522804628999
0.00039274614938014413,0.4928522804628999
0.00039274614938014413,0.5
0.00040982206891841124,0.5
0.00040982206891841124,0.5180394826412525
0.0004268979884566784,0.5180394826412525
0.0004268979884566784,0.5224642614023145
0.0004439739079949455,0.5224642614023145
0.0004439739079949455,0.5306330837304288
0.0004610498275332127,0.5306330837304288
0.0004610498275332127,0.5367597004765147
0.0004781257470714798,0.5367597004765147
0.0004781257470714798,0.546289993192648
0.0004952016666097469,0.546289993192648
0.0004952016666097469,0.5476514635806671
0.000512277586148014,0.5476514635806671
0.000512277586148014,0.5486725663716814
0.0005293535056862812,0.5486725663716814
0.0005293535056862812,0.5500340367597005
0.0005464294252245484,0.5500340367597005
0.0005464294252245484,0.552076242341729
0.0005635053447628155,0.552076242341729
0.0005635053447628155,0.5547991831177672
0.0005805812643010826,0.5547991831177672
0.0005805812643010826,0.555139550714772
0.0005976571838393497,0.555139550714772
0.0005976571838393497,0.5582028590878149
0.0006147331033776169,0.5582028590878149
0.0006147331033776169,0.5667120490129339
0.000631809022915884,0.5667120490129339
0.000631809022915884,0.5670524166099388
0.0006488849424541511,0.5670524166099388
0.0006488849424541511,0.5707964601769911
0.0006659608619924183,0.5707964601769911
0.0006659608619924183,0.5738597685500341
0.0006830367815306855,0.5738597685500341
0.0006830367815306855,0.5745405037440435
0.0007001127010689526,0.5745405037440435
0.0007001127010689526,0.5748808713410484
0.0007171886206072197,0.5748808713410484
0.0007171886206072197,0.5776038121170864
0.0007342645401454868,0.5776038121170864
0.0007342645401454868,0.5779441797140912
0.0007513404596837539,0.5779441797140912
0.0007513404596837539,0.5796460176991151
0.0007684163792220211,0.5796460176991151
0.0007684163792220211,0.5837304288631723
0.0007854922987602883,0.5837304288631723
0.0007854922987602883,0.5861130020422056
0.0008025682182985554,0.5861130020422056
0.0008025682182985554,0.5867937372362151
0.0008196441378368225,0.5867937372362151
0.0008196441378368225,0.5908781484002723
0.0008367200573750896,0.5908781484002723
0.0008367200573750896,0.591218515997277
0.0008537959769133568,0.591218515997277
0.0008537959769133568,0.5963240299523486
0.0008708718964516239,0.5963240299523486
0.0008708718964516239,0.60142954390742
0.000887947815989891,0.60142954390742
0.000887947815989891,0.6078965282505105
0.0009050237355281582,0.6078965282505105
0.0009050237355281582,0.6092579986385296
0.0009220996550664254,0.6092579986385296
0.0009220996550664254,0.6095983662355344
0.0009391755746046925,0.6095983662355344
0.0009391755746046925,0.6133424098025868
0.0009904033332194938,0.6133424098025868
0.0009904033332194938,0.6140231449965963
0.001007479252757761,0.6140231449965963
0.001007479252757761,0.6153846153846154
0.001024555172296028,0.6153846153846154
0.001024555172296028,0.6181075561606535
0.0010416310918342953,0.6181075561606535
0.0010416310918342953,0.6204901293396868
0.0010587070113725625,0.6204901293396868
0.0010587070113725625,0.6245745405037441
0.0010928588504490967,0.6245745405037441
0.0010928588504490967,0.6262763784887678
0.0011099347699873637,0.6262763784887678
0.0011099347699873637,0.6266167460857727
0.001127010689525631,0.6266167460857727
0.001127010689525631,0.6283185840707964
0.0011611625286021652,0.6283185840707964
0.0011611625286021652,0.6286589516678013
0.0011953143676786994,0.6286589516678013
0.0011953143676786994,0.628999319264806
0.0012123902872169666,0.628999319264806
0.0012123902872169666,0.6293396868618107
0.0012294662067552338,0.6293396868618107
0.0012294662067552338,0.6300204220558203
0.0012806939653700353,0.6300204220558203
0.0012806939653700353,0.6320626276378489
0.0012977698849083023,0.6320626276378489
0.0012977698849083023,0.6327433628318584
0.0013148458044465695,0.6327433628318584
0.0013148458044465695,0.6330837304288631
0.0013319217239848365,0.6330837304288631
0.0013319217239848365,0.6354663036078966
0.0013489976435231037,0.6354663036078966
0.0013489976435231037,0.6375085091899251
0.001383149482599638,0.6375085091899251
0.001383149482599638,0.639210347174949
0.0014173013216761722,0.639210347174949
0.0014173013216761722,0.6422736555479919
0.0014343772412144394,0.6422736555479919
0.0014343772412144394,0.6429543907420013
0.0014514531607527066,0.6429543907420013
0.0014514531607527066,0.6446562287270252
0.0014685290802909736,0.6446562287270252
0.0014685290802909736,0.6453369639210347
0.0014856049998292408,0.6453369639210347
0.0014856049998292408,0.6466984343090538
0.0015539086779823093,0.6466984343090538
0.0015539086779823093,0.6494213750850919
0.0015709845975205765,0.6494213750850919
0.0015709845975205765,0.6507828454731109
0.0015880605170588435,0.6507828454731109
0.0015880605170588435,0.6511232130701157
0.0016051364365971107,0.6511232130701157
0.0016051364365971107,0.6524846834581348
0.001622212356135378,0.6524846834581348
0.001622212356135378,0.6545268890401634
0.001639288275673645,0.6545268890401634
0.001639288275673645,0.6558883594281825
0.0016563641952119122,0.6558883594281825
0.0016563641952119122,0.6562287270251872
0.0016734401147501792,0.6562287270251872
0.0016734401147501792,0.6589516678012253
0.0016905160342884464,0.6589516678012253
0.0016905160342884464,0.6596324029952348
0.0017075919538267136,0.6596324029952348
0.0017075919538267136,0.6616746085772635
0.0017417437929032479,0.6616746085772635
0.0017417437929032479,0.6640571817562968
0.001758819712441515,0.6640571817562968
0.001758819712441515,0.6657590197413207
0.001775895631979782,0.6657590197413207
0.001775895631979782,0.668141592920354
0.0018100474710563163,0.668141592920354
0.0018100474710563163,0.6684819605173588
0.0018271233905945835,0.6684819605173588
0.0018271233905945835,0.6691626957113683
0.0018441993101328507,0.6691626957113683
0.0018441993101328507,0.6715452688904017
0.001878351149209385,0.6715452688904017
0.001878351149209385,0.6718856364874064
0.001895427068747652,0.6718856364874064
0.001895427068747652,0.6735874744724302
0.0019125029882859192,0.6735874744724302
0.0019125029882859192,0.6756296800544588
0.0019466548273624534,0.6756296800544588
0.0019466548273624534,0.6759700476514636
0.0019637307469007204,0.6759700476514636
0.0019637307469007204,0.6763104152484684
0.0019808066664389876,0.6763104152484684
0.0019808066664389876,0.6766507828454731
0.001997882585977255,0.6766507828454731
0.001997882585977255,0.6786929884275017
0.002014958505515522,0.6786929884275017
0.002014958505515522,0.679714091218516
0.0020320344250537893,0.679714091218516
0.0020320344250537893,0.6807351940095303
0.002049110344592056,0.6807351940095303
0.002049110344592056,0.681075561606535
0.0020661862641303233,0.681075561606535
0.0020661862641303233,0.6831177671885637
0.0020832621836685905,0.6831177671885637
0.0020832621836685905,0.6837985023825732
0.0021003381032068578,0.6837985023825732
0.0021003381032068578,0.6848196051735874
0.002117414022745125,0.6848196051735874
0.002117414022745125,0.6872021783526209
0.0021344899422833918,0.6872021783526209
0.0021344899422833918,0.6885636487406399
0.002168641781359926,0.6885636487406399
0.002168641781359926,0.6892443839346494
0.0021857177008981934,0.6892443839346494
0.0021857177008981934,0.691286589516678
0.0022027936204364607,0.691286589516678
0.0022027936204364607,0.6916269571136828
0.0022198695399747274,0.6916269571136828
0.0022198695399747274,0.6919673247106876
0.0022369454595129947,0.6919673247106876
0.0022369454595129947,0.6923076923076923
0.002254021379051262,0.6923076923076923
0.002254021379051262,0.692648059904697
0.002271097298589529,0.692648059904697
0.002271097298589529,0.6936691626957113
0.0022881732181277963,0.6936691626957113
0.0022881732181277963,0.6946902654867256
0.0023223250572043303,0.6946902654867256
0.0023223250572043303,0.6950306330837305
0.0023394009767425976,0.6950306330837305
0.0023394009767425976,0.697072838665759
0.0023564768962808648,0.697072838665759
0.0023564768962808648,0.6974132062627638
0.002407704654895666,0.6974132062627638
0.002407704654895666,0.6980939414567733
0.0024418564939722004,0.6980939414567733
0.0024418564939722004,0.6984343090537781
0.0024589324135104677,0.6984343090537781
0.0024589324135104677,0.6994554118447924
0.002476008333048735,0.6994554118447924
0.002476008333048735,0.7004765146358066
0.0024930842525870017,0.7004765146358066
0.0024930842525870017,0.7018379850238258
0.002510160172125269,0.7018379850238258
0.002510160172125269,0.7021783526208305
0.002527236091663536,0.7021783526208305
0.002527236091663536,0.7045609257998638
0.0025443120112018033,0.7045609257998638
0.0025443120112018033,0.7052416609938734
0.0025613879307400706,0.7052416609938734
0.0025613879307400706,0.7066031313818925
0.0025955397698166046,0.7066031313818925
0.0025955397698166046,0.7069434989788972
0.002612615689354872,0.7069434989788972
0.002612615689354872,0.7079646017699115
0.002629691608893139,0.7079646017699115
0.002629691608893139,0.7086453369639211
0.002663843447969673,0.7086453369639211
0.002663843447969673,0.7089857045609258
0.0026809193675079402,0.7089857045609258
0.0026809193675079402,0.7093260721579305
0.0027492230456610087,0.7093260721579305
0.0027492230456610087,0.7096664397549354
0.002766298965199276,0.7096664397549354
0.002766298965199276,0.7117086453369639
0.002783374884737543,0.7117086453369639
0.002783374884737543,0.7120490129339687
0.0028004508042758103,0.7120490129339687
0.0028004508042758103,0.713070115724983
0.0028175267238140776,0.713070115724983
0.0028175267238140776,0.7137508509189925
0.0028346026433523444,0.7137508509189925
0.0028346026433523444,0.7144315861130021
0.002868754482428879,0.7144315861130021
0.002868754482428879,0.7161334240980258
0.0029029063215054132,0.7161334240980258
0.0029029063215054132,0.7164737916950307
0.0029370581605819472,0.7164737916950307
0.0029370581605819472,0.717494894486045
0.0029541340801202145,0.717494894486045
0.0029541340801202145,0.7185159972770592
0.0029712099996584817,0.7185159972770592
0.0029712099996584817,0.718856364874064
0.0030053618387350157,0.718856364874064
0.0030053618387350157,0.7191967324710687
0.003022437758273283,0.7191967324710687
0.003022437758273283,0.7198774676650783
0.0030565895973498174,0.7198774676650783
0.0030565895973498174,0.720217835262083
0.0030736655168880846,0.720217835262083
0.0030736655168880846,0.7205582028590878
0.0030907414364263514,0.7205582028590878
0.0030907414364263514,0.7219196732471069
0.0031078173559646186,0.7219196732471069
0.0031078173559646186,0.7226004084411164
0.003141969195041153,0.7226004084411164
0.003141969195041153,0.723281143635126
0.003176121034117687,0.723281143635126
0.003176121034117687,0.7236215112321307
0.0031931969536559543,0.7236215112321307
0.0031931969536559543,0.724642614023145
0.0032273487927324887,0.724642614023145
0.0032273487927324887,0.7249829816201497
0.0032615006318090227,0.7249829816201497
0.0032615006318090227,0.7253233492171546
0.00327857655134729,0.7253233492171546
0.00327857655134729,0.7263444520081688
0.0033468802295003584,0.7263444520081688
0.0033468802295003584,0.7297481279782164
0.0033639561490386256,0.7297481279782164
0.0033639561490386256,0.730428863172226
0.003381032068576893,0.730428863172226
0.003381032068576893,0.7311095983662356
0.00339810798811516,0.7311095983662356
0.00339810798811516,0.731790333560245
0.0034151839076534273,0.731790333560245
0.0034151839076534273,0.7331518039482642
0.0034493357467299613,0.7331518039482642
0.0034493357467299613,0.7334921715452689
0.0034664116662682285,0.7334921715452689
0.0034664116662682285,0.7341729067392784
0.003500563505344763,0.7341729067392784
0.003500563505344763,0.7345132743362832
0.003534715344421297,0.7345132743362832
0.003534715344421297,0.737576582709326
0.003551791263959564,0.737576582709326
0.003551791263959564,0.7382573179033356
0.0035688671834978314,0.7382573179033356
0.0035688671834978314,0.7396187882913546
0.0035859431030360986,0.7396187882913546
0.0035859431030360986,0.7402995234853642
0.003603019022574366,0.7402995234853642
0.003603019022574366,0.7406398910823689
0.0036200949421126326,0.7406398910823689
0.0036200949421126326,0.7409802586793737
0.003654246781189167,0.7409802586793737
0.003654246781189167,0.742001361470388
0.0036883986202657015,0.742001361470388
0.0036883986202657015,0.7423417290673928
0.0037054745398039683,0.7423417290673928
0.0037054745398039683,0.7426820966643976
0.0037396263788805027,0.7426820966643976
0.0037396263788805027,0.7440435670524166
0.00375670229841877,0.7440435670524166
0.00375670229841877,0.7443839346494214
0.003773778217957037,0.7443839346494214
0.003773778217957037,0.7447243022464262
0.0038250059765718384,0.7447243022464262
0.0038250059765718384,0.7454050374404356
0.0038420818961101056,0.7454050374404356
0.0038420818961101056,0.7457454050374405
0.003859157815648373,0.7457454050374405
0.003859157815648373,0.7460857726344452
0.003910385574263174,0.7460857726344452
0.003910385574263174,0.7471068754254595
0.0039445374133397085,0.7471068754254595
0.0039445374133397085,0.7481279782164738
0.00399576517195451,0.7481279782164738
0.00399576517195451,0.7484683458134785
0.004046992930569311,0.7484683458134785
0.004046992930569311,0.7494894486044928
0.004064068850107579,0.7494894486044928
0.004064068850107579,0.7508509189925119
0.004081144769645845,0.7508509189925119
0.004081144769645845,0.7515316541865215
0.00411529660872238,0.7515316541865215
0.00411529660872238,0.7525527569775358
0.004132372528260647,0.7525527569775358
0.004132372528260647,0.7528931245745405
0.004166524367337181,0.7528931245745405
0.004166524367337181,0.7542545949625595
0.004217752125951982,0.7542545949625595
0.004217752125951982,0.7549353301565691
0.004251903965028517,0.7549353301565691
0.004251903965028517,0.7556160653505786
0.0042689798845667835,0.7556160653505786
0.0042689798845667835,0.7562968005445881
0.004286055804105051,0.7562968005445881
0.004286055804105051,0.7566371681415929
0.004303131723643318,0.7566371681415929
0.004303131723643318,0.7573179033356024
0.004320207643181586,0.7573179033356024
0.004320207643181586,0.7583390061266168
0.004371435401796387,0.7583390061266168
0.004371435401796387,0.7586793737236215
0.004388511321334654,0.7586793737236215
0.004388511321334654,0.7597004765146358
0.004439739079949455,0.7597004765146358
0.004439739079949455,0.7603812117086454
0.0044568149994877225,0.7603812117086454
0.0044568149994877225,0.7614023144996597
0.004473890919025989,0.7614023144996597
0.004473890919025989,0.7617426820966644
0.004490966838564257,0.7617426820966644
0.004490966838564257,0.7620830496936691
0.0045251186776407906,0.7620830496936691
0.0045251186776407906,0.762423417290674
0.004559270516717325,0.762423417290674
0.004559270516717325,0.7627637848876787
0.0045934223557938594,0.7627637848876787
0.0045934223557938594,0.7634445200816882
0.004627574194870394,0.7634445200816882
0.004627574194870394,0.7641252552756977
0.004678801953485195,0.7641252552756977
0.004678801953485195,0.7644656228727025
0.004695877873023462,0.7644656228727025
0.004695877873023462,0.765146358066712
0.0047129537925617295,0.765146358066712
0.0047129537925617295,0.7654867256637168
0.004730029712099996,0.7654867256637168
0.004730029712099996,0.7658270932607216
0.004747105631638264,0.7658270932607216
0.004747105631638264,0.7661674608577264
0.004764181551176531,0.7661674608577264
0.004764181551176531,0.7671885636487407
0.004798333390253065,0.7671885636487407
0.004798333390253065,0.7675289312457454
0.004883712987944401,0.7675289312457454
0.004883712987944401,0.768209666439755
0.004900788907482668,0.768209666439755
0.004900788907482668,0.7685500340367597
0.004934940746559202,0.7685500340367597
0.004934940746559202,0.769571136827774
0.0049690925856357366,0.769571136827774
0.0049690925856357366,0.7702518720217836
0.004986168505174003,0.7702518720217836
0.004986168505174003,0.770932607215793
0.005054472183327072,0.770932607215793
0.005054472183327072,0.7719537100068073
0.005088624022403607,0.7719537100068073
0.005088624022403607,0.7729748127978217
0.0051056999419418735,0.7729748127978217
0.0051056999419418735,0.7733151803948264
0.005156927700556675,0.7733151803948264
0.005156927700556675,0.7736555479918312
0.005174003620094942,0.7736555479918312
0.005174003620094942,0.773995915588836
0.00524230729824801,0.773995915588836
0.00524230729824801,0.7756977535738597
0.005259383217786278,0.7756977535738597
0.005259383217786278,0.7760381211708646
0.005310610976401079,0.7760381211708646
0.005310610976401079,0.7763784887678693
0.005344762815477614,0.7763784887678693
0.005344762815477614,0.776718856364874
0.0053618387350158805,0.776718856364874
0.0053618387350158805,0.7777399591558883
0.005378914654554148,0.7777399591558883
0.005378914654554148,0.7784206943498979
0.005413066493630682,0.7784206943498979
0.005413066493630682,0.7791014295439074
0.005430142413168949,0.7791014295439074
0.005430142413168949,0.7794417971409122
0.005532597930398552,0.7794417971409122
0.005532597930398552,0.7808032675289313
0.0055496738499368195,0.7808032675289313
0.0055496738499368195,0.781143635125936
0.005566749769475086,0.781143635125936
0.005566749769475086,0.7821647379169503
0.005600901608551621,0.7821647379169503
0.005600901608551621,0.782505105513955
0.0056179775280898875,0.782505105513955
0.0056179775280898875,0.7838665759019742
0.005703357125781223,0.7838665759019742
0.005703357125781223,0.7845473110959836
0.005720433045319491,0.7845473110959836
0.005720433045319491,0.7848876786929885
0.005737508964857758,0.7848876786929885
0.005737508964857758,0.7862491490810075
0.005788736723472559,0.7862491490810075
0.005788736723472559,0.7865895166780122
0.0058058126430108265,0.7865895166780122
0.0058058126430108265,0.7876106194690266
0.005822888562549093,0.7876106194690266
0.005822888562549093,0.7879509870660313
0.005857040401625628,0.7879509870660313
0.005857040401625628,0.7896528250510552
0.0058741163211638945,0.7896528250510552
0.0058741163211638945,0.7899931926480599
0.00595949591885523,0.7899931926480599
0.00595949591885523,0.7903335602450646
0.005993647757931765,0.7903335602450646
0.005993647757931765,0.7906739278420695
0.006027799597008299,0.7906739278420695
0.006027799597008299,0.7910142954390742
0.0060790273556231,0.7910142954390742
0.0060790273556231,0.7920353982300885
0.006096103275161367,0.7920353982300885
0.006096103275161367,0.7923757658270932
0.006113179194699635,0.7923757658270932
0.006113179194699635,0.7927161334240981
0.0061302551142379015,0.7927161334240981
0.0061302551142379015,0.7930565010211028
0.006147331033776169,0.7930565010211028
0.006147331033776169,0.7933968686181075
0.006232710631467505,0.7933968686181075
0.006232710631467505,0.7937372362151123
0.006249786551005772,0.7937372362151123
0.006249786551005772,0.7944179714091218
0.006301014309620573,0.7944179714091218
0.006301014309620573,0.7954390742001362
0.0063180902291588405,0.7954390742001362
0.0063180902291588405,0.7964601769911505
0.006335166148697107,0.7964601769911505
0.006335166148697107,0.7968005445881552
0.006369317987773642,0.7968005445881552
0.006369317987773642,0.7971409121851599
0.006403469826850176,0.7971409121851599
0.006403469826850176,0.7978216473791695
0.006488849424541512,0.7978216473791695
0.006488849424541512,0.7981620149761742
0.006523001263618045,0.7981620149761742
0.006523001263618045,0.7985023825731791
0.006540077183156313,0.7985023825731791
0.006540077183156313,0.7988427501701838
0.0065742290222328475,0.7988427501701838
0.0065742290222328475,0.7991831177671885
0.006625456780847649,0.7991831177671885
0.006625456780847649,0.7995234853641934
0.0066425327003859155,0.7995234853641934
0.0066425327003859155,0.8008849557522124
0.006693760459000717,0.8008849557522124
0.006693760459000717,0.8012253233492171
0.006744988217615519,0.8012253233492171
0.006744988217615519,0.8015656909462219
0.006762064137153786,0.8015656909462219
0.006762064137153786,0.8019060585432267
0.0067791400566920524,0.8019060585432267
0.0067791400566920524,0.8022464261402315
0.00679621597623032,0.8022464261402315
0.00679621597623032,0.802927161334241
0.006864519654383389,0.802927161334241
0.006864519654383389,0.8042886317222601
0.006932823332536457,0.8042886317222601
0.006932823332536457,0.8046289993192648
0.006984051091151258,0.8046289993192648
0.006984051091151258,0.8049693669162695
0.00703527884976606,0.8049693669162695
0.00703527884976606,0.8053097345132744
0.007052354769304327,0.8053097345132744
0.007052354769304327,0.8056501021102791
0.007069430688842594,0.8056501021102791
0.007069430688842594,0.8066712049012934
0.0070865066083808615,0.8066712049012934
0.0070865066083808615,0.8070115724982981
0.007137734366995663,0.8070115724982981
0.007137734366995663,0.8076923076923077
0.007171886206072197,0.8076923076923077
0.007171886206072197,0.8083730428863172
0.007206038045148732,0.8083730428863172
0.007206038045148732,0.8090537780803267
0.007240189884225265,0.8090537780803267
0.007240189884225265,0.8093941456773315
0.007257265803763533,0.8093941456773315
0.007257265803763533,0.8097345132743363
0.00739387316006967,0.8097345132743363
0.00739387316006967,0.810074880871341
0.007410949079607937,0.810074880871341
0.007410949079607937,0.8104152484683458
0.007445100918684471,0.8104152484683458
0.007445100918684471,0.8107556160653506
0.007462176838222739,0.8107556160653506
0.007462176838222739,0.8114363512593601
0.007564632355452341,0.8114363512593601
0.007564632355452341,0.8117767188563648
0.007598784194528876,0.8117767188563648
0.007598784194528876,0.8121170864533697
0.007615860114067142,0.8121170864533697
0.007615860114067142,0.8124574540503744
0.007684163792220211,0.8124574540503744
0.007684163792220211,0.8127978216473791
0.007701239711758478,0.8127978216473791
0.007701239711758478,0.813138189244384
0.0077353915508350125,0.813138189244384
0.0077353915508350125,0.8134785568413887
0.007752467470373279,0.8134785568413887
0.007752467470373279,0.8141592920353983
0.007820771148526348,0.8141592920353983
0.007820771148526348,0.814499659632403
0.007837847068064615,0.814499659632403
0.007837847068064615,0.8151803948264126
0.00792322666575595,0.8151803948264126
0.00792322666575595,0.8162014976174268
0.007974454424370753,0.8162014976174268
0.007974454424370753,0.8168822328114363
0.008111061780676889,0.8168822328114363
0.008111061780676889,0.8172226004084411
0.008213517297906493,0.8172226004084411
0.008213517297906493,0.8175629680054459
0.00823059321744476,0.8175629680054459
0.00823059321744476,0.8185840707964602
0.008247669136983026,0.8185840707964602
0.008247669136983026,0.818924438393465
0.008315972815136095,0.818924438393465
0.008315972815136095,0.8196051735874744
0.008350124654212629,0.8196051735874744
0.008350124654212629,0.8199455411844793
0.008384276493289164,0.8199455411844793
0.008384276493289164,0.820285908781484
0.008435504251903965,0.820285908781484
0.008435504251903965,0.8206262763784887
0.008452580171442231,0.8206262763784887
0.008452580171442231,0.8209666439754936
0.0084696560909805,0.8209666439754936
0.0084696560909805,0.8213070115724983
0.008486732010518767,0.8213070115724983
0.008486732010518767,0.821647379169503
0.008503807930057034,0.821647379169503
0.008503807930057034,0.8219877467665079
0.008572111608210102,0.8219877467665079
0.008572111608210102,0.8223281143635126
0.008623339366824903,0.8223281143635126
0.008623339366824903,0.8226684819605173
0.008725794884054507,0.8226684819605173
0.008725794884054507,0.8230088495575221
0.008742870803592774,0.8230088495575221
0.008742870803592774,0.8233492171545269
0.00875994672313104,0.8233492171545269
0.00875994672313104,0.8240299523485364
0.008811174481745843,0.8240299523485364
0.008811174481745843,0.8243703199455412
0.008913629998975445,0.8243703199455412
0.008913629998975445,0.8253914227365555
0.008981933677128514,0.8253914227365555
0.008981933677128514,0.8257317903335603
0.009016085516205048,0.8257317903335603
0.009016085516205048,0.826072157930565
0.009033161435743314,0.826072157930565
0.009033161435743314,0.8264125255275698
0.009050237355281581,0.8264125255275698
0.009050237355281581,0.8267528931245746
0.009084389194358116,0.8267528931245746
0.009084389194358116,0.8270932607215793
0.009169768792049452,0.8270932607215793
0.009169768792049452,0.827433628318584
0.009203920631125986,0.827433628318584
0.009203920631125986,0.8277739959155889
0.009255148389740788,0.8277739959155889
0.009255148389740788,0.8284547311095983
0.009289300228817321,0.8284547311095983
0.009289300228817321,0.8287950987066032
0.009340527987432123,0.8287950987066032
0.009340527987432123,0.8291354663036079
0.009391755746046924,0.8291354663036079
0.009391755746046924,0.8294758339006126
0.009442983504661726,0.8294758339006126
0.009442983504661726,0.8298162014976175
0.009460059424199993,0.8298162014976175
0.009460059424199993,0.8301565690946222
0.00947713534373826,0.8301565690946222
0.00947713534373826,0.8308373042886317
0.009528363102353062,0.8308373042886317
0.009528363102353062,0.8311776718856365
0.009562514941429595,0.8311776718856365
0.009562514941429595,0.8321987746766508
0.009630818619582664,0.8321987746766508
0.009630818619582664,0.8325391422736556
0.009750350056350535,0.8325391422736556
0.009750350056350535,0.8328795098706603
0.009767425975888802,0.8328795098706603
0.009767425975888802,0.8335602450646699
0.009852805573580137,0.8335602450646699
0.009852805573580137,0.8342409802586793
0.00995526109080974,0.8342409802586793
0.00995526109080974,0.8345813478556842
0.010023564768962809,0.8345813478556842
0.010023564768962809,0.8356024506466985
0.010040640688501076,0.8356024506466985
0.010040640688501076,0.8359428182437032
0.010074792527577611,0.8359428182437032
0.010074792527577611,0.8362831858407079
0.010108944366654144,0.8362831858407079
0.010108944366654144,0.8366235534377128
0.010160172125268947,0.8366235534377128
0.010160172125268947,0.8373042886317222
0.010177248044807213,0.8373042886317222
0.010177248044807213,0.8379850238257318
0.010245551722960282,0.8379850238257318
0.010245551722960282,0.8386657590197413
0.010279703562036816,0.8386657590197413
0.010279703562036816,0.8393464942137508
0.010296779481575083,0.8393464942137508
0.010296779481575083,0.8396868618107556
0.010330931320651618,0.8396868618107556
0.010330931320651618,0.8410483321987747
0.010348007240189885,0.8410483321987747
0.010348007240189885,0.8413886997957795
0.010365083159728151,0.8413886997957795
0.010365083159728151,0.8417290673927842
0.010382159079266418,0.8417290673927842
0.010382159079266418,0.8420694349897889
0.010604146033263892,0.8420694349897889
0.010604146033263892,0.8424098025867938
0.010740753389570028,0.8424098025867938
0.010740753389570028,0.8427501701837985
0.010945664424029234,0.8427501701837985
0.010945664424029234,0.8430905377808032
0.010979816263105768,0.8430905377808032
0.010979816263105768,0.8434309053778081
0.010996892182644035,0.8434309053778081
0.010996892182644035,0.8437712729748128
0.01103104402172057,0.8437712729748128
0.01103104402172057,0.8441116405718175
0.011065195860797104,0.8441116405718175
0.011065195860797104,0.8444520081688224
0.011116423619411906,0.8444520081688224
0.011116423619411906,0.8447923757658271
0.01115057545848844,0.8447923757658271
0.01115057545848844,0.8451327433628318
0.011167651378026706,0.8451327433628318
0.011167651378026706,0.8454731109598366
0.011184727297564975,0.8454731109598366
0.011184727297564975,0.8458134785568414
0.011201803217103241,0.8458134785568414
0.011201803217103241,0.8468345813478557
0.011218879136641508,0.8468345813478557
0.011218879136641508,0.8471749489448605
0.011355486492947646,0.8471749489448605
0.011355486492947646,0.8475153165418652
0.011440866090638982,0.8475153165418652
0.011440866090638982,0.8481960517358748
0.01162870120555992,0.8481960517358748
0.01162870120555992,0.8485364193328795
0.01167992896417472,0.8485364193328795
0.01167992896417472,0.8488767869298843
0.011697004883712989,0.8488767869298843
0.011697004883712989,0.8492171545268891
0.011765308561866056,0.8492171545268891
0.011765308561866056,0.8495575221238938
0.011816536320480858,0.8495575221238938
0.011816536320480858,0.8498978897208985
0.01191899183771046,0.8498978897208985
0.01191899183771046,0.8502382573179034
0.011936067757248727,0.8502382573179034
0.011953143676786996,0.8505786249149081
0.011953143676786996,0.8509189925119128
0.012072675113554865,0.8509189925119128
0.012072675113554865,0.8519400953029271
0.012123902872169667,0.8519400953029271
0.012123902872169667,0.8526208304969367
0.012175130630784467,0.8526208304969367
0.012175130630784467,0.8533015656909462
0.012414193504320208,0.8533015656909462
0.012414193504320208,0.8539823008849557
0.012448345343396741,0.8539823008849557
0.012448345343396741,0.8543226684819605
0.012499573102011543,0.8543226684819605
0.012499573102011543,0.8546630360789653
0.012567876780164612,0.8546630360789653
0.012567876780164612,0.8553437712729748
0.012670332297394215,0.8553437712729748
0.012670332297394215,0.8563648740639891
0.013011850688159557,0.8563648740639891
0.013011850688159557,0.8567052416609938
0.01306307844677436,0.8567052416609938
0.01306307844677436,0.8573859768550034
0.013080154366312626,0.8573859768550034
0.013080154366312626,0.8577263444520081
0.013097230285850893,0.8577263444520081
0.013097230285850893,0.858066712049013
0.01323383764215703,0.858066712049013
0.01323383764215703,0.8584070796460177
0.01347290051569277,0.8584070796460177
0.01347290051569277,0.8587474472430224
0.013609507871998907,0.8587474472430224
0.013609507871998907,0.8590878148400273
0.013660735630613709,0.8590878148400273
0.013660735630613709,0.859428182437032
0.01371196338922851,0.859428182437032
0.01371196338922851,0.8597685500340367
0.013746115228305045,0.8597685500340367
0.013746115228305045,0.8604492852280463
0.013763191147843312,0.8604492852280463
0.013763191147843312,0.860789652825051
0.013865646665072914,0.860789652825051
0.013865646665072914,0.8611300204220558
0.01389979850414945,0.8611300204220558
0.01389979850414945,0.8614703880190606
0.013933950343225983,0.8614703880190606
0.013933950343225983,0.8621511232130701
0.014053481779993852,0.8621511232130701
0.014053481779993852,0.8631722260040844
0.01407055769953212,0.8631722260040844
0.01407055769953212,0.8635125936010892
0.014087633619070387,0.8635125936010892
0.014087633619070387,0.863852961198094
0.014207165055838257,0.863852961198094
0.014207165055838257,0.8641933287950987
0.014241316894914792,0.8641933287950987
0.014241316894914792,0.8645336963921034
0.014326696492606128,0.8645336963921034
0.014326696492606128,0.865214431586113
0.014377924251220928,0.865214431586113
0.014377924251220928,0.8658951667801226
0.014446227929373997,0.8658951667801226
0.014446227929373997,0.8662355343771273
0.014463303848912264,0.8662355343771273
0.014463303848912264,0.866575901974132
0.01448037976845053,0.866575901974132
0.01448037976845053,0.8669162695711369
0.014634063044294935,0.8669162695711369
0.014634063044294935,0.8672566371681416
0.01466821488337147,0.8672566371681416
0.01466821488337147,0.8675970047651463
0.014685290802909737,0.8675970047651463
0.014685290802909737,0.8679373723621511
0.014736518561524537,0.8679373723621511
0.014736518561524537,0.8682777399591559
0.014770670400601073,0.8682777399591559
0.014770670400601073,0.8686181075561606
0.01478774632013934,0.8686181075561606
0.01478774632013934,0.8689584751531654
0.014890201837368942,0.8689584751531654
0.014890201837368942,0.8692988427501702
0.015009733274136813,0.8692988427501702
0.015009733274136813,0.869639210347175
0.01502680919367508,0.869639210347175
0.01502680919367508,0.8699795779441797
0.015146340630442949,0.8699795779441797
0.015146340630442949,0.8703199455411845
0.015214644308596018,0.8703199455411845
0.015214644308596018,0.8713410483321987
0.015402479423516956,0.8713410483321987
0.015402479423516956,0.8716814159292036
0.015419555343055223,0.8716814159292036
0.015419555343055223,0.8720217835262083
0.015504934940746559,0.8720217835262083
0.015504934940746559,0.872362151123213
0.015573238618899627,0.872362151123213
0.015573238618899627,0.8727025187202179
0.015726921894744034,0.8727025187202179
0.015726921894744034,0.8730428863172226
0.0157439978142823,0.8730428863172226
0.0157439978142823,0.8733832539142273
0.015761073733820567,0.8733832539142273
0.015761073733820567,0.8737236215112322
0.0157952255728971,0.8737236215112322
0.0157952255728971,0.8740639891082369
0.015914757009664972,0.8740639891082369
0.015914757009664972,0.8744043567052416
0.016068440285509376,0.8744043567052416
0.016068440285509376,0.8747447243022465
0.016119668044124177,0.8747447243022465
0.016119668044124177,0.8750850918992512
0.016170895802738977,0.8750850918992512
0.016170895802738977,0.8754254594962559
0.01620504764181551,0.8754254594962559
0.01620504764181551,0.8757658270932607
0.016222123561353777,0.8757658270932607
0.016222123561353777,0.8764465622872702
0.01634165499812165,0.8764465622872702
0.01634165499812165,0.876786929884275
0.016444110515351253,0.876786929884275
0.016444110515351253,0.8774676650782846
0.016529490113042587,0.8774676650782846
0.016529490113042587,0.8778080326752893
0.01658071787165739,0.8778080326752893
0.01658071787165739,0.8781484002722941
0.01668317338888699,0.8781484002722941
0.01668317338888699,0.8784887678692989
0.01676855298657833,0.8784887678692989
0.01676855298657833,0.8791695030633083
0.016888084423346196,0.8791695030633083
0.016888084423346196,0.8795098706603132
0.016973464021037533,0.8795098706603132
0.016973464021037533,0.8798502382573179
0.0170417676991906,0.8798502382573179
0.0170417676991906,0.8801906058543226
0.01711007137734367,0.8801906058543226
0.01711007137734367,0.8805309734513275
0.017314982411802876,0.8805309734513275
0.017314982411802876,0.8808713410483322
0.017332058331341143,0.8808713410483322
0.017332058331341143,0.8812117086453369
0.017417437929032477,0.8812117086453369
0.017417437929032477,0.8815520762423418
0.017434513848570747,0.8815520762423418
0.017434513848570747,0.8818924438393465
0.017622348963491685,0.8818924438393465
0.017622348963491685,0.8822328114363512
0.017639424883029952,0.8822328114363512
0.017639424883029952,0.8829135466303608
0.01777603223933609,0.8829135466303608
0.01777603223933609,0.8832539142273655
0.017895563676103957,0.8832539142273655
0.017895563676103957,0.8835942818243703
0.017963867354257028,0.8835942818243703
0.017963867354257028,0.8839346494213751
0.017980943273795295,0.8839346494213751
0.017980943273795295,0.8842750170183798
0.01806632287148663,0.8842750170183798
0.01806632287148663,0.8846153846153846
0.018083398791024895,0.8846153846153846
0.018083398791024895,0.8849557522123894
0.018117550630101432,0.8849557522123894
0.018117550630101432,0.8852961198093942
0.0181858543082545,0.8852961198093942
0.0181858543082545,0.8856364874063989
0.018288309825484104,0.8856364874063989
0.018288309825484104,0.8859768550034037
0.018339537584098904,0.8859768550034037
0.018339537584098904,0.8863172226004085
0.018561524538096376,0.8863172226004085
0.018561524538096376,0.8866575901974132
0.018629828216249446,0.8866575901974132
0.018629828216249446,0.8869979577944179
0.018817663331170385,0.8869979577944179
0.018817663331170385,0.8873383253914228
0.019039650285167856,0.8873383253914228
0.019039650285167856,0.8876786929884275
0.019056726204706123,0.8876786929884275
0.019056726204706123,0.8880190605854322
0.01907380212424439,0.8880190605854322
0.01907380212424439,0.8883594281824371
0.019090878043782657,0.8883594281824371
0.019090878043782657,0.8886997957794418
0.01914210580239746,0.8886997957794418
0.01914210580239746,0.8893805309734514
0.019415320515009733,0.8893805309734514
0.019415320515009733,0.8904016337644656
0.019449472354086266,0.8904016337644656
0.019449472354086266,0.8907420013614704
0.01973976298623681,0.8907420013614704
0.01973976298623681,0.8910823689584751
0.01979099074485161,0.8910823689584751
0.01979099074485161,0.8914227365554799
0.01980806666438988,0.8914227365554799
0.01980806666438988,0.8921034717494895
0.019876370342542946,0.8921034717494895
0.019876370342542946,0.8924438393464942
0.01991052218161948,0.8924438393464942
0.01991052218161948,0.892784206943499
0.01997882585977255,0.892784206943499
0.01997882585977255,0.8931245745405038
0.020183736894231755,0.8931245745405038
0.020183736894231755,0.8934649421375085
0.020200812813770022,0.8934649421375085
0.020200812813770022,0.8938053097345132
0.020303268330999623,0.8938053097345132
0.020303268330999623,0.8941456773315181
0.020320344250537893,0.8941456773315181
0.020320344250537893,0.8944860449285228
0.020354496089614427,0.8944860449285228
0.020354496089614427,0.8948264125255275
0.020456951606844027,0.8948264125255275
0.020456951606844027,0.8955071477195371
0.0206277108022267,0.8955071477195371
0.0206277108022267,0.8958475153165418
0.020713090399918036,0.8958475153165418
0.020713090399918036,0.8961878829135467
0.020781394078071103,0.8961878829135467
0.020781394078071103,0.8968686181075561
0.02086677367576244,0.8968686181075561
0.02086677367576244,0.897208985704561
0.02110583654929818,0.897208985704561
0.02110583654929818,0.8975493533015657
0.02139612718144872,0.8975493533015657
0.02139612718144872,0.8982300884955752
0.021481506779140055,0.8982300884955752
0.021481506779140055,0.89857045609258
0.02158396229636966,0.89857045609258
0.02158396229636966,0.8992511912865895
0.02170349373313753,0.8992511912865895
0.02170349373313753,0.899931926480599
0.021737645572214064,0.899931926480599
0.021737645572214064,0.9002722940776038
0.02175472149175233,0.9002722940776038
0.02175472149175233,0.9006126616746086
0.021840101089443665,0.9006126616746086
0.021840101089443665,0.9009530292716134
0.021874252928520202,0.9009530292716134
0.021874252928520202,0.9012933968686181
0.021925480687135002,0.9012933968686181
0.021925480687135002,0.9016337644656228
0.02211331580205594,0.9016337644656228
0.02211331580205594,0.9019741320626277
0.022130391721594207,0.9019741320626277
0.022130391721594207,0.9023144996596324
0.02230115091697688,0.9023144996596324
0.02230115091697688,0.9026548672566371
0.022318226836515145,0.9026548672566371
0.022318226836515145,0.902995234853642
0.02247191011235955,0.902995234853642
0.02247191011235955,0.9033356024506467
0.02252313787097435,0.9033356024506467
0.02252313787097435,0.9040163376446563
0.022745124824971825,0.9040163376446563
0.022745124824971825,0.904356705241661
0.022762200744510092,0.904356705241661
0.022762200744510092,0.9050374404356705
0.022796352583586626,0.9050374404356705
0.022796352583586626,0.9053778080326753
0.02283050442266316,0.9053778080326753
0.02283050442266316,0.90571817562968
0.022847580342201426,0.90571817562968
0.022847580342201426,0.9060585432266848
0.023394009767425977,0.9060585432266848
0.023394009767425977,0.9063989108236896
0.023701376319114783,0.9063989108236896
0.023701376319114783,0.9067392784206944
0.02383798367542092,0.9067392784206944
0.02383798367542092,0.9070796460176991
0.023855059594959187,0.9070796460176991
0.023855059594959187,0.9074200136147039
0.02397459103172706,0.9074200136147039
0.02397459103172706,0.9077603812117087
0.02402581879034186,0.9077603812117087
0.02402581879034186,0.9081007488087134
0.024128274307571463,0.9081007488087134
0.024128274307571463,0.9084411164057182
0.024281957583415868,0.9084411164057182
0.024281957583415868,0.908781484002723
0.024469792698336806,0.908781484002723
0.024469792698336806,0.9091218515997277
0.024589324135104677,0.9091218515997277
0.024589324135104677,0.9094622191967324
0.02462347597418121,0.9094622191967324
0.02462347597418121,0.9098025867937373
0.024879614767255216,0.9098025867937373
0.024879614767255216,0.910142954390742
0.024947918445408286,0.910142954390742
0.024947918445408286,0.9104833219877467
0.025221133158020558,0.9104833219877467
0.025221133158020558,0.9108236895847516
0.025255284997097095,0.9108236895847516
0.025255284997097095,0.9111640571817563
0.02528943683617363,0.9111640571817563
0.02528943683617363,0.911504424778761
0.025306512755711896,0.911504424778761
0.025306512755711896,0.9118447923757659
0.025357740514326696,0.9118447923757659
0.025357740514326696,0.9121851599727706
0.025733410744168572,0.9121851599727706
0.025733410744168572,0.9125255275697753
0.025852942180936443,0.9125255275697753
0.025852942180936443,0.9128658951667801
0.02604077729585738,0.9128658951667801
0.02604077729585738,0.9132062627637849
0.02609200505447218,0.9132062627637849
0.02609200505447218,0.9135466303607896
0.026262764249854853,0.9135466303607896
0.026262764249854853,0.9138869979577944
0.026331067928007924,0.9138869979577944
0.026331067928007924,0.9142273655547992
0.02711656022676821,0.9142273655547992
0.02711656022676821,0.914567733151804
0.027270243502612614,0.914567733151804
0.027270243502612614,0.9149081007488087
0.02730439534168915,0.9149081007488087
0.02730439534168915,0.9152484683458135
0.02759468597383969,0.9152484683458135
0.02759468597383969,0.9155888359428183
0.027611761893377957,0.9155888359428183
0.027611761893377957,0.915929203539823
0.02778252108876063,0.915929203539823
0.02778252108876063,0.9162695711368277
0.027936204364605033,0.9162695711368277
0.027936204364605033,0.9166099387338326
0.0279532802841433,0.9166099387338326
0.0279532802841433,0.9169503063308373
0.02802158396229637,0.9169503063308373
0.02802158396229637,0.917290673927842
0.028055735801372904,0.917290673927842
0.028055735801372904,0.9176310415248469
0.028346026433523446,0.9176310415248469
0.028346026433523446,0.9179714091218516
0.028465557870291314,0.9179714091218516
0.028465557870291314,0.9186521443158612
0.028533861548444384,0.9186521443158612
0.028533861548444384,0.9189925119128659
0.028585089307059185,0.9189925119128659
0.028585089307059185,0.9193328795098706
0.028807076261056656,0.9193328795098706
0.028807076261056656,0.9196732471068755
0.028824152180594927,0.9196732471068755
0.028824152180594927,0.9200136147038802
0.028892455858747994,0.9200136147038802
0.028892455858747994,0.9203539823008849
0.028994911375977598,0.9203539823008849
0.028994911375977598,0.9206943498978897
0.029131518732283732,0.9206943498978897
0.029131518732283732,0.9210347174948945
0.029302277927666404,0.9210347174948945
0.029302277927666404,0.921715452688904
0.02943888528397254,0.921715452688904
0.02943888528397254,0.9220558202859088
0.029882859191967488,0.9220558202859088
0.029882859191967488,0.9223961878829136
0.030002390628735356,0.9223961878829136
0.030002390628735356,0.9227365554799183
0.030070694306888426,0.9227365554799183
0.030070694306888426,0.9230769230769231
0.030087770226426693,0.9230769230769231
0.030087770226426693,0.9234172906739279
0.030309757180424165,0.9234172906739279
0.030309757180424165,0.9237576582709326
0.03070250332980431,0.9237576582709326
0.03070250332980431,0.9240980258679373
0.031146477237799255,0.9240980258679373
0.031146477237799255,0.9244383934649422
0.031214780915952325,0.9244383934649422
0.031214780915952325,0.9247787610619469
0.031505071548102864,0.9247787610619469
0.031505071548102864,0.9254594962559565
0.0315392233871794,0.9254594962559565
0.0315392233871794,0.9257998638529612
0.03198319729517435,0.9257998638529612
0.03198319729517435,0.9261402314499659
0.03210272873194221,0.9261402314499659
0.03210272873194221,0.9264805990469708
0.03213688057101875,0.9264805990469708
0.03213688057101875,0.9268209666439755
0.032358867525016224,0.9268209666439755
0.032358867525016224,0.9278420694349898
0.03241009528363102,0.9278420694349898
0.03241009528363102,0.9281824370319945
0.032444247122707555,0.9281824370319945
0.032478398961784095,0.9281824370319945
0.0327857655134729,0.9281824370319945
0.0327857655134729,0.9285228046289993
0.034117687237457735,0.9285228046289993
0.034117687237457735,0.9288631722260041
0.03420306683514907,0.9288631722260041
0.03420306683514907,0.9292035398230089
0.03427137051330214,0.9292035398230089
0.03427137051330214,0.9295439074200136
0.03478364809945016,0.9295439074200136
0.03478364809945016,0.9298842750170184
0.035278849766059904,0.9298842750170184
0.035278849766059904,0.9302246426140232
0.03573989959359312,0.9302246426140232
0.03573989959359312,0.9305650102110279
0.035927734708514056,0.9305650102110279
0.035927734708514056,0.9309053778080327
0.03594481062805232,0.9309053778080327
0.03594481062805232,0.9312457454050375
0.03613264574297326,0.9312457454050375
0.03613264574297326,0.9315861130020422
0.03625217717974113,0.9315861130020422
0.03625217717974113,0.9319264805990469
0.03696936580034835,0.9319264805990469
0.03696936580034835,0.9322668481960518
0.03714012499573102,0.9322668481960518
0.03714012499573102,0.9326072157930565
0.0376694785014173,0.9326072157930565
0.0376694785014173,0.9329475833900612
0.03775485809910864,0.9329475833900612
0.03775485809910864,0.9332879509870661
0.03792561729449131,0.9332879509870661
0.03792561729449131,0.9336283185840708
0.03857450223694546,0.9336283185840708
0.03857450223694546,0.9339686861810755
0.0387623373518664,0.9339686861810755
0.0387623373518664,0.9343090537780804
0.03877941327140467,0.9343090537780804
0.03877941327140467,0.9346494213750851
0.03900140022540214,0.9346494213750851
0.03900140022540214,0.9349897889720898
0.03905262798401694,0.9349897889720898
0.03905262798401694,0.9353301565690946
0.03975274068508589,0.9353301565690946
0.03975274068508589,0.9356705241660994
0.039769816604624156,0.9356705241660994
0.039769816604624156,0.9363512593601089
0.0402650182712339,0.9363512593601089
0.0402650182712339,0.9366916269571137
0.040930979133226325,0.9366916269571137
0.040930979133226325,0.9370319945541185
0.04098220689184113,0.9370319945541185
0.04098220689184113,0.937712729748128
0.0411529660872238,0.937712729748128
0.0411529660872238,0.9380530973451328
0.04137495304122127,0.9380530973451328
0.04137495304122127,0.9383934649421375
0.04231412861582596,0.9383934649421375
0.04231412861582596,0.9387338325391422
0.04275810252382091,0.9387338325391422
0.04275810252382091,0.9390742001361471
0.04398756873057614,0.9390742001361471
0.04398756873057614,0.9394145677331518
0.04412417608688228,0.9394145677331518
0.04412417608688228,0.9400953029271614
0.044482770397185886,0.9400953029271614
0.044482770397185886,0.9404356705241661
0.0450462757419487,0.9404356705241661
0.0450462757419487,0.9407760381211708
0.04537071821317578,0.9407760381211708
0.04537071821317578,0.9411164057181757
0.04571223660394112,0.9411164057181757
0.04571223660394112,0.9414567733151804
0.04630989378778047,0.9414567733151804
0.04630989378778047,0.9417971409121851
0.046770943615313684,0.9417971409121851
0.046770943615313684,0.94213750850919
0.04724906936238516,0.94213750850919
0.04724906936238516,0.9424778761061947
0.047300297120999965,0.9424778761061947
0.047300297120999965,0.9428182437031994
0.047590587753150504,0.9428182437031994
0.047590587753150504,0.9431586113002042
0.047624739592227044,0.9431586113002042
0.047624739592227044,0.943498978897209
0.048563915166831735,0.943498978897209
0.048563915166831735,0.9438393464942137
0.04861514292544653,0.9438393464942137
0.04861514292544653,0.9441797140912185
0.0487346743622144,0.9441797140912185
0.0487346743622144,0.9445200816882233
0.049264027867900684,0.9445200816882233
0.049264027867900684,0.9452008168822328
0.04989583689081657,0.9452008168822328
0.04989583689081657,0.9455411844792376
0.05037396263788805,0.9455411844792376
0.05037396263788805,0.9458815520762424
0.05080086062634473,0.9458815520762424
0.05080086062634473,0.9462219196732471
0.05197909907448516,0.9462219196732471
0.05197909907448516,0.9465622872702518
0.05278166729278372,0.9465622872702518
0.05278166729278372,0.9469026548672567
0.05300365424678119,0.9469026548672567
0.05300365424678119,0.9472430224642614
0.05310610976401079,0.9472430224642614
0.05310610976401079,0.9475833900612661
0.05312318568354906,0.9475833900612661
0.05312318568354906,0.947923757658271
0.053567159591544004,0.947923757658271
0.053567159591544004,0.9482641252552757
0.05392575390184762,0.9482641252552757
0.05392575390184762,0.9486044928522804
0.05556504217752126,0.9486044928522804
0.05556504217752126,0.94928522804629
0.0559577883269014,0.94928522804629
0.0559577883269014,0.9496255956432947
0.0569994194187357,0.9496255956432947
0.0569994194187357,0.9499659632402995
0.0572043304531949,0.9499659632402995
0.057238482292271436,0.9499659632402995
0.057989822751955196,0.9499659632402995
0.057989822751955196,0.9503063308373043
0.05805812643010826,0.9503063308373043
0.05805812643010826,0.950646698434309
0.05810935418872306,0.950646698434309
0.05810935418872306,0.9509870660313138
0.058399644820873606,0.9509870660313138
0.058399644820873606,0.9513274336283186
0.058570404016256274,0.9513274336283186
0.058570404016256274,0.9516678012253234
0.05986817390116458,0.9516678012253234
0.05986817390116458,0.9520081688223281
0.06111471602745808,0.9520081688223281
0.06111471602745808,0.9523485364193329
0.06176360096991223,0.9523485364193329
0.06176360096991223,0.9526889040163377
0.06261739694682558,0.9526889040163377
0.06261739694682558,0.9530292716133424
0.0630784467743588,0.9530292716133424
0.0630784467743588,0.9533696392103471
0.06360780028004508,0.9533696392103471
0.06360780028004508,0.953710006807352
0.0642225333834227,0.953710006807352
0.0642225333834227,0.9540503744043567
0.06523001263618046,0.9540503744043567
0.06523001263618046,0.9543907420013614
0.0656739865441754,0.9543907420013614
0.0656739865441754,0.9547311095983663
0.06608380861309382,0.9547311095983663
0.06608380861309382,0.955071477195371
0.06628871964755302,0.955071477195371
0.06628871964755302,0.9554118447923757
0.06690345275093064,0.9554118447923757
0.06690345275093064,0.9557522123893806
0.06746695809569345,0.9557522123893806
0.06746695809569345,0.9560925799863853
0.06828660223353028,0.9560925799863853
0.06828660223353028,0.95643294758339
0.06852566510706602,0.95643294758339
0.06852566510706602,0.9567733151803949
0.0703015607390458,0.9567733151803949
0.0703015607390458,0.9571136827773996
0.07036986441719886,0.9571136827773996
0.07036986441719886,0.9574540503744043
0.07151395102626276,0.9574540503744043
0.07151395102626276,0.9577944179714091
0.0719579249342577,0.9577944179714091
0.0719579249342577,0.9581347855684139
0.07212868412964038,0.9581347855684139
0.07212868412964038,0.9584751531654186
0.07236774700317612,0.9584751531654186
0.07236774700317612,0.9588155207624234
0.0725385061985588,0.9588155207624234
0.0725385061985588,0.9591558883594282
0.07286294866978586,0.9591558883594282
0.07286294866978586,0.959496255956433
0.07364844096854616,0.959496255956433
0.07364844096854616,0.9598366235534377
0.07375089648577576,0.9598366235534377
0.07375089648577576,0.9601769911504425
0.0744510091868447,0.9601769911504425
0.0744510091868447,0.9605173587474473
0.0748266794166866,0.9605173587474473
0.0748266794166866,0.960857726344452
0.07704654895666131,0.960857726344452
0.07704654895666131,0.9611980939414567
0.07713192855435265,0.9611980939414567
0.07713192855435265,0.9615384615384616
0.07721730815204399,0.9615384615384616
0.07721730815204399,0.9618788291354663
0.08090570677230968,0.9618788291354663
0.08090570677230968,0.962219196732471
0.08193026194460572,0.962219196732471
0.08193026194460572,0.9625595643294759
0.0839110686110447,0.9625595643294759
0.0839110686110447,0.9628999319264806
0.08534544585225914,0.9628999319264806
0.08534544585225914,0.9632402995234853
0.08573819200163929,0.9632402995234853
0.08573819200163929,0.9635806671204902
0.0864041528636317,0.9635806671204902
0.0864041528636317,0.9639210347174949
0.08787268194392268,0.9639210347174949
0.08787268194392268,0.9642614023144996
0.08840203544960896,0.9642614023144996
0.08840203544960896,0.9646017699115044
0.08876062975991257,0.9646017699115044
0.08876062975991257,0.9649421375085092
0.09012670332297394,0.9649421375085092
0.09012670332297394,0.9652825051055139
0.09089511970219596,0.9652825051055139
0.09089511970219596,0.9656228727025187
0.09255148389740787,0.9656228727025187
0.09255148389740787,0.9659632402995235
0.09369557050647177,0.9659632402995235
0.09369557050647177,0.9663036078965282
0.09424199993169632,0.9663036078965282
0.09424199993169632,0.966643975493533
0.09431030360984939,0.966643975493533
0.09434445544892592,0.966643975493533
0.09516409958676275,0.966643975493533
0.09516409958676275,0.9669843430905378
0.0956080734947577,0.9669843430905378
0.0956080734947577,0.9673247106875426
0.09620573067859704,0.9673247106875426
0.09620573067859704,0.9676650782845473
0.09630818619582665,0.9676650782845473
0.09630818619582665,0.9680054458815521
0.09688876746012773,0.9680054458815521
0.09688876746012773,0.9683458134785569
0.09777671527611762,0.9683458134785569
0.09777671527611762,0.9686861810755616
0.09823776510365083,0.9686861810755616
0.09823776510365083,0.9690265486725663
0.09933062395409993,0.9690265486725663
0.09933062395409993,0.9693669162695712
0.09953553498855913,0.9693669162695712
0.09953553498855913,0.9697072838665759
0.09992828113793928,0.9697072838665759
0.09992828113793928,0.9700476514635806
0.10045763464362556,0.9700476514635806
0.10045763464362556,0.9703880190605855
0.10315562993067176,0.9703880190605855
0.10315562993067176,0.9707283866575902
0.10416310918342953,0.9707283866575902
0.10416310918342953,0.9710687542545949
0.1046924626891158,0.9710687542545949
0.1046924626891158,0.9714091218515998
0.10546087906833783,0.9714091218515998
0.10546087906833783,0.9717494894486045
0.10629759912571292,0.9717494894486045
0.10629759912571292,0.9720898570456092
0.10650251016017212,0.9720898570456092
0.10650251016017212,0.972430224642614
0.10730507837847068,0.972430224642614
0.10730507837847068,0.9727705922396188
0.10964447935521328,0.9727705922396188
0.10964447935521328,0.9731109598366235
0.10995184590690209,0.9731109598366235
0.10995184590690209,0.9734513274336283
0.11068611044704757,0.9734513274336283
0.11068611044704757,0.9737916950306331
0.11340118165363205,0.9737916950306331
0.11340118165363205,0.9741320626276379
0.11348656125132338,0.9741320626276379
0.11348656125132338,0.9744724302246426
0.11355486492947645,0.9744724302246426
0.11355486492947645,0.9748127978216474
0.1161845565383696,0.9748127978216474
0.1161845565383696,0.9751531654186522
0.11726033946928043,0.9751531654186522
0.11726033946928043,0.9754935330156569
0.11953143676786995,0.9754935330156569
0.11953143676786995,0.9758339006126616
0.12181960998599775,0.9758339006126616
0.12181960998599775,0.9761742682096665
0.12427854239950821,0.9761742682096665
0.12427854239950821,0.9765146358066712
0.12654963969809774,0.9765146358066712
0.12654963969809774,0.9768550034036759
0.12998189952528943,0.9768550034036759
0.12998189952528943,0.9771953710006808
0.13005020320344252,0.9771953710006808
0.13005020320344252,0.9775357385976855
0.1306307844677436,0.9775357385976855
0.1306307844677436,0.9778761061946902
0.13155288412281002,0.9778761061946902
0.13155288412281002,0.9782164737916951
0.1328506540077183,0.9782164737916951
0.1328506540077183,0.9785568413886998
0.13397766469724395,0.9785568413886998
0.13397766469724395,0.9788972089857045
0.14494040504081146,0.9788972089857045
0.14494040504081146,0.9792375765827094
0.14598203613264574,0.9792375765827094
0.14598203613264574,0.9795779441797141
0.14669922475325295,0.9795779441797141
0.14669922475325295,0.9799183117767188
0.14919230900583996,0.9799183117767188
0.14919230900583996,0.9802586793737236
0.15107066015504936,0.9802586793737236
0.15107066015504936,0.9809394145677331
0.15752535774051432,0.9809394145677331
0.15752535774051432,0.9812797821647379
0.15784980021174141,0.9812797821647379
0.15784980021174141,0.9816201497617427
0.15870359618865476,0.9816201497617427
0.15870359618865476,0.9819605173587475
0.15890850722311398,0.9819605173587475
0.1589426590621905,0.9819605173587475
0.15967692360233599,0.9819605173587475
0.15967692360233599,0.9823008849557522
0.1610771490044739,0.9823008849557522
0.1610771490044739,0.982641252552757
0.16251152624568832,0.982641252552757
0.16251152624568832,0.9829816201497618
0.16278474095830062,0.9829816201497618
0.16278474095830062,0.9833219877467665
0.16645606365902804,0.9833219877467665
0.16645606365902804,0.9836623553437712
0.17045182883098256,0.9836623553437712
0.17045182883098256,0.9840027229407761
0.1728766094054165,0.9840027229407761
0.1728766094054165,0.9843430905377808
0.17446466992247534,0.9843430905377808
0.17446466992247534,0.9846834581347855
0.17805061302551142,0.9846834581347855
0.17805061302551142,0.9850238257317904
0.17825552405997064,0.9850238257317904
0.17825552405997064,0.9853641933287951
0.1800826474505652,0.9853641933287951
0.1800826474505652,0.9857045609257998
0.1806120009562515,0.9857045609257998
0.1806120009562515,0.9860449285228047
0.1831563129674533,0.9860449285228047
0.1831563129674533,0.9863852961198094
0.184607766128206,0.9863852961198094
0.18464191796728255,0.9863852961198094
0.18682763566818072,0.9863852961198094
0.18682763566818072,0.9867256637168141
0.18985007342645402,0.9867256637168141
0.18988422526553056,0.9867256637168141
0.1929749667019569,0.9867256637168141
0.1929749667019569,0.9870660313138189
0.1951094566442403,0.9870660313138189
0.1951094566442403,0.9874063989108237
0.19903691813804172,0.9874063989108237
0.19907106997711826,0.9874063989108237
0.19980533451726376,0.9874063989108237
0.19980533451726376,0.9877467665078284
0.2003517639424883,0.9877467665078284
0.20038591578156484,0.9877467665078284
0.20183736894231755,0.9877467665078284
0.20183736894231755,0.9880871341048332
0.20851405348177998,0.9880871341048332
0.20851405348177998,0.988427501701838
0.20972644376899696,0.988427501701838
0.20972644376899696,0.9887678692988427
0.21431986612479081,0.9887678692988427
0.21431986612479081,0.9891082368958475
0.2143881698029439,0.9891082368958475
0.2143881698029439,0.9894486044928523
0.24126566715617637,0.9894486044928523
0.24126566715617637,0.989788972089857
0.24568833031658754,0.989788972089857
0.24568833031658754,0.9901293396868618
0.2501792971551518,0.9901293396868618
0.2501792971551518,0.9904697072838666
0.25026467675284314,0.9904697072838666
0.25026467675284314,0.9908100748808714
0.25091356169529727,0.9908100748808714
0.25091356169529727,0.9911504424778761
0.25197226870666983,0.9911504424778761
0.25197226870666983,0.9914908100748808
0.2593661418667395,0.9914908100748808
0.2594002937058161,0.9914908100748808
0.2613981762917933,0.9914908100748808
0.26143232813086986,0.9914908100748808
0.26537686554420953,0.9914908100748808
0.26537686554420953,0.9918311776718857
0.26646972439465866,0.9918311776718857
0.26646972439465866,0.9921715452688904
0.2677333424404904,0.9921715452688904
0.2677333424404904,0.9925119128658951
0.2733513199685803,0.9925119128658951
0.2733854718076568,0.9925119128658951
0.27758614801407056,0.9925119128658951
0.27758614801407056,0.9928522804629
0.28346026433523447,0.9928522804629
0.283494416174311,0.9928522804629
0.2974625183566135,0.9928522804629
0.2974625183566135,0.9931926480599047
0.2995457805402821,0.9931926480599047
0.2995457805402821,0.9935330156569094
0.3018851815170247,0.9935330156569094
0.3019193333561012,0.9935330156569094
0.30504422663160413,0.9935330156569094
0.30504422663160413,0.9938733832539143
0.3124210238721355,0.9938733832539143
0.3124210238721355,0.994213750850919
0.3151873228373348,0.994213750850919
0.3151873228373348,0.9945541184479237
0.3266623407670503,0.9945541184479237
0.3266623407670503,0.9948944860449285
0.3307605614562344,0.9948944860449285
0.3307605614562344,0.9952348536419333
0.3329121273180561,0.9952348536419333
0.3329462791571326,0.9952348536419333
0.33407328984665824,0.9952348536419333
0.33410744168573475,0.9952348536419333
0.33448311191557667,0.9952348536419333
0.33448311191557667,0.995575221238938
0.3358150336395615,0.995575221238938
0.335849185478638,0.995575221238938
0.33694204432908714,0.995575221238938
0.33694204432908714,0.9959155888359428
0.34554830777637374,0.9959155888359428
0.3455824596154503,0.9959155888359428
0.34845121409787916,0.9959155888359428
0.34845121409787916,0.9962559564329476
0.3550425190396503,0.9962559564329476
0.3550766708787268,0.9962559564329476
0.36124107783204124,0.9962559564329476
0.3612752296711178,0.9962559564329476
0.3651685393258427,0.9962559564329476
0.3652026911649192,0.9962559564329476
0.3663126259349066,0.9962559564329476
0.3663467777739831,0.9962559564329476
0.37430415627881564,0.9962559564329476
0.37433830811789215,0.9962559564329476
0.38296164748471706,0.9962559564329476
0.3829957993237936,0.9962559564329476
0.3857279464499163,0.9962559564329476
0.3857620982889929,0.9962559564329476
0.3924046309893788,0.9962559564329476
0.3924387828284553,0.9962559564329476
0.393121819609986,0.9962559564329476
0.393121819609986,0.9965963240299524
0.40012294662067555,0.9965963240299524
0.40015709845975206,0.9965963240299524
0.4142276561592842,0.9965963240299524
0.4142276561592842,0.9969366916269571
0.4159864758717257,0.9969366916269571
0.4160206277108022,0.9969366916269571
0.4161913869061849,0.9969366916269571
0.4161913869061849,0.9972770592239619
0.41653290529695025,0.9972770592239619
0.41656705713602676,0.9972770592239619
0.4180868139749325,0.9972770592239619
0.4181209658140091,0.9972770592239619
0.4189064581127694,0.9972770592239619
0.4189406099518459,0.9972770592239619
0.4211263276527441,0.9972770592239619
0.4211604794918206,0.9972770592239619
0.42261193265257335,0.9972770592239619
0.42261193265257335,0.9976174268209667
0.43640927563949317,0.9976174268209667
0.43644342747856973,0.9976174268209667
0.4391072709265394,0.9976174268209667
0.4391414227656159,0.9976174268209667
0.44510091868447116,0.9976174268209667
0.44513507052354767,0.9976174268209667
0.4503261500631809,0.9976174268209667
0.45036030190225745,0.9976174268209667
0.4508384276493289,0.9976174268209667
0.4508725794884055,0.9976174268209667
0.46475530207301663,0.9976174268209667
0.46478945391209314,0.9976174268209667
0.4679997267852874,0.9976174268209667
0.4680338786243639,0.9976174268209667
0.4692804207506574,0.9976174268209667
0.46931457258973397,0.9976174268209667
0.47119292373894334,0.9976174268209667
0.47122707557801985,0.9976174268209667
0.47202964379631845,0.9976174268209667
0.47202964379631845,0.9979577944179714
0.4748300946005942,0.9979577944179714
0.4748642464396708,0.9979577944179714
0.4794064410368498,0.9979577944179714
0.4794405928759264,0.9979577944179714
0.4850927222430928,0.9979577944179714
0.4851268740821693,0.9979577944179714
0.4872272121853762,0.9979577944179714
0.4872272121853762,0.9982981620149761
0.49200846965609096,0.9982981620149761
0.49204262149516753,0.9982981620149761
0.4971995491957242,0.9982981620149761
0.49723370103480075,0.9982981620149761
0.5013831494825997,0.9982981620149761
0.5014173013216762,0.9982981620149761
0.5030565895973498,0.9982981620149761
0.5030907414364264,0.9982981620149761
0.5078890748266794,0.9982981620149761
0.5078890748266794,0.998638529611981
0.5125166490215498,0.998638529611981
0.5125508008606263,0.998638529611981
0.5141047095386087,0.998638529611981
0.5141388613776852,0.998638529611981
0.5206789385608415,0.998638529611981
0.5207130903999181,0.998638529611981
0.5212595198251426,0.998638529611981
0.5212936716642191,0.998638529611981
0.5239404391926505,0.998638529611981
0.523974591031727,0.998638529611981
0.5258700181004747,0.998638529611981
0.5259041699395512,0.998638529611981
0.5260749291349339,0.998638529611981
0.5261090809740104,0.998638529611981
0.5324954748813223,0.998638529611981
0.5325296267203989,0.998638529611981
0.534971483214371,0.998638529611981
0.5350056350534477,0.998638529611981
0.5444827703971858,0.998638529611981
0.5445169222362625,0.998638529611981
0.5447047573511834,0.998638529611981
0.5447389091902599,0.998638529611981
0.5471636897646939,0.998638529611981
0.5471978416037704,0.998638529611981
0.5515009733274137,0.998638529611981
0.5515351251664902,0.998638529611981
0.552542604419248,0.998638529611981
0.5525767562583245,0.998638529611981
0.5529695024077047,0.998638529611981
0.5530036542467812,0.998638529611981
0.5565895973498173,0.998638529611981
0.5566237491888938,0.998638529611981
0.5583313411427205,0.998638529611981
0.5583313411427205,0.9989788972089857
0.5865919879785526,0.9989788972089857
0.5866261398176292,0.9989788972089857
0.5898022608517469,0.9989788972089857
0.5898022608517469,0.9993192648059904
0.5906389809091219,0.9993192648059904
0.5906731327481984,0.9993192648059904
0.6159284177452956,0.9993192648059904
0.6159625695843721,0.9993192648059904
0.621580547112462,0.9993192648059904
0.6216146989515385,0.9993192648059904
0.6508315972815136,0.9993192648059904
0.6508657491205901,0.9993192648059904
0.6520610634882689,0.9993192648059904
0.6520952153273454,0.9993192648059904
0.66338239814214,0.9993192648059904
0.6634165499812165,0.9993192648059904
0.6637751442915201,0.9993192648059904
0.6638092961305966,0.9993192648059904
0.6639459034869027,0.9993192648059904
0.6639800553259793,0.9993192648059904
0.6645094088316655,0.9993192648059904
0.6645435606707422,0.9993192648059904
0.673679177623715,0.9993192648059904
0.6737133294627916,0.9993192648059904
0.6793996106690345,0.9993192648059904
0.679433762508111,0.9993192648059904
0.6796045217034937,0.9993192648059904
0.6796386735425702,0.9993192648059904
0.7008640415286364,0.9993192648059904
0.7008981933677129,0.9993192648059904
0.7067552337693385,0.9993192648059904
0.706789385608415,0.9993192648059904
0.7086165089990096,0.9993192648059904
0.7086506608380861,0.9993192648059904
0.7439807383627608,0.9993192648059904
0.7440148902018374,0.9993192648059904
0.7491718179023941,0.9993192648059904
0.7492059697414706,0.9993192648059904
0.7669478501417302,0.9993192648059904
0.7669820019808067,0.9993192648059904
0.7696287695092381,0.9993192648059904
0.7696629213483146,0.9993192648059904
0.7757077968648611,0.9993192648059904
0.7757419487039378,0.9993192648059904
0.7821112666917114,0.9993192648059904
0.7821454185307879,0.9993192648059904
0.7838530104846146,0.9993192648059904
0.7838871623236912,0.9993192648059904
0.7886342679553294,0.9993192648059904
0.7886342679553294,0.9996596324029953
0.7909565930125337,0.9996596324029953
0.7909907448516103,0.9996596324029953
0.8105255968033879,0.9996596324029953
0.8105597486424644,0.9996596324029953
0.8170315221474677,0.9996596324029953
0.8170315221474677,1.0
0.8200539599057409,1.0
0.8200881117448174,1.0
0.8389740787541409,1.0
0.8390082305932175,1.0
0.8981421399542365,1.0
0.898176291793313,1.0
0.9049383559304669,1.0
0.9049725077695434,1.0
0.907380212424439,1.0
0.9074143642635156,1.0
0.9278200881117448,1.0
0.9278542399508214,1.0
0.93249889006523,1.0
0.9325330419043065,1.0
0.9580956934530924,1.0
0.9581298452921689,1.0
0.9794235169563881,1.0
0.9794576687954646,1.0
1.0,1.0
