fpr,tpr
0.0,0.0
0.0,0.0003403675970047651
1.7075919538267136e-05,0.0003403675970047651
1.7075919538267136e-05,0.02518720217835262
3.415183907653427e-05,0.02518720217835262
3.415183907653427e-05,0.050714771953710006
3.415183907653427e-05,0.05139550714771954
3.415183907653427e-05,0.10108917631041525
5.1227758614801405e-05,0.10108917631041525
5.1227758614801405e-05,0.10619469026548672
5.1227758614801405e-05,0.10687542545949626
5.1227758614801405e-05,0.11402314499659633
6.830367815306854e-05,0.11436351259360109
6.830367815306854e-05,0.13308373042886318
8.537959769133568e-05,0.13308373042886318
8.537959769133568e-05,0.14601769911504425
0.00010245551722960281,0.14601769911504425
0.00010245551722960281,0.18618107556160654
0.00011953143676786995,0.18618107556160654
0.00011953143676786995,0.19469026548672566
0.0001366073563061371,0.19469026548672566
0.0001366073563061371,0.21102791014295438
0.00015368327584440423,0.21102791014295438
0.00015368327584440423,0.2226004084411164
0.00015368327584440423,0.22328114363512594
0.00015368327584440423,0.2266848196051736
0.00017075919538267137,0.2266848196051736
0.00017075919538267137,0.2678692988427502
0.00018783511492093848,0.2678692988427502
0.00018783511492093848,0.2743362831858407
0.00020491103445920562,0.2743362831858407
0.00020491103445920562,0.28658951667801225
0.00022198695399747276,0.28658951667801225
0.00022198695399747276,0.30837304288631723
0.0002390628735357399,0.30837304288631723
0.0002390628735357399,0.3298162014976174
0.000256138793074007,0.3298162014976174
0.000256138793074007,0.33968686181075564
0.0002732147126122742,0.33968686181075564
0.0002732147126122742,0.3563648740639891
0.0002902906321505413,0.3563648740639891
0.0002902906321505413,0.3635125936010892
0.00030736655168880846,0.3635125936010892
0.00030736655168880846,0.3733832539142274
0.00032444247122707557,0.3733832539142274
0.00032444247122707557,0.3948264125255276
0.00034151839076534274,0.3948264125255276
0.00034151839076534274,0.4053778080326753
0.00035859431030360985,0.4053778080326753
0.00035859431030360985,0.4081007488087134
0.00037567022984187696,0.4081007488087134
0.00037567022984187696,0.4094622191967325
0.00039274614938014413,0.4094622191967325
0.00039274614938014413,0.410142954390742
0.00040982206891841124,0.410142954390742
0.00040982206891841124,0.43533015656909463
0.0004268979884566784,0.43533015656909463
0.0004268979884566784,0.45779441797140913
0.0004439739079949455,0.45779441797140913
0.0004439739079949455,0.4703880190605854
0.0004781257470714798,0.4703880190605854
0.0004781257470714798,0.4714091218515997
0.0004952016666097469,0.4714091218515997
0.0004952016666097469,0.4771953710006807
0.000512277586148014,0.4771953710006807
0.000512277586148014,0.4778761061946903
0.0005293535056862812,0.4778761061946903
0.0005293535056862812,0.4795779441797141
0.0005635053447628155,0.4795779441797141
0.0005635053447628155,0.4931926480599047
0.0005805812643010826,0.4931926480599047
0.0005805812643010826,0.494213750850919
0.0005976571838393497,0.494213750850919
0.0005976571838393497,0.4996596324029952
0.0006147331033776169,0.4996596324029952
0.0006147331033776169,0.5020422055820286
0.000631809022915884,0.5020422055820286
0.000631809022915884,0.510211027910143
0.0006488849424541511,0.510211027910143
0.0006488849424541511,0.5119128658951668
0.0006659608619924183,0.5119128658951668
0.0006659608619924183,0.5125936010891763
0.0006830367815306855,0.5125936010891763
0.0006830367815306855,0.5136147038801906
0.0007001127010689526,0.5136147038801906
0.0007001127010689526,0.5146358066712049
0.0007171886206072197,0.5146358066712049
0.0007171886206072197,0.517358747447243
0.0007342645401454868,0.517358747447243
0.0007342645401454868,0.5194009530292716
0.0007513404596837539,0.5194009530292716
0.0007513404596837539,0.5234853641933288
0.0007684163792220211,0.5234853641933288
0.0007684163792220211,0.5251872021783526
0.0008025682182985554,0.5251872021783526
0.0008025682182985554,0.5299523485364194
0.0008196441378368225,0.5299523485364194
0.0008196441378368225,0.533356024506467
0.0008367200573750896,0.533356024506467
0.0008367200573750896,0.5340367597004765
0.0008537959769133568,0.5340367597004765
0.0008537959769133568,0.5428863172226004
0.0008708718964516239,0.5428863172226004
0.0008708718964516239,0.5466303607896529
0.000887947815989891,0.5466303607896529
0.000887947815989891,0.5473110959836623
0.0009050237355281582,0.5473110959836623
0.0009050237355281582,0.5517358747447243
0.0009220996550664254,0.5517358747447243
0.0009220996550664254,0.5534377127297482
0.0009733274136812267,0.5534377127297482
0.0009733274136812267,0.5558202859087815
0.0009904033332194938,0.5558202859087815
0.0009904033332194938,0.5575221238938053
0.001007479252757761,0.5575221238938053
0.001007479252757761,0.5612661674608578
0.001024555172296028,0.5612661674608578
0.001024555172296028,0.5619469026548672
0.0010416310918342953,0.5619469026548672
0.0010416310918342953,0.5633083730428863
0.0010587070113725625,0.5633083730428863
0.0010587070113725625,0.5646698434309054
0.0010757829309108295,0.5646698434309054
0.0010757829309108295,0.5650102110279102
0.0010928588504490967,0.5650102110279102
0.0010928588504490967,0.5660313138189245
0.001127010689525631,0.5660313138189245
0.001127010689525631,0.5673927842069435
0.0011440866090638982,0.5673927842069435
0.0011440866090638982,0.5718175629680055
0.0011611625286021652,0.5718175629680055
0.0011611625286021652,0.5721579305650102
0.0011782384481404324,0.5721579305650102
0.0011782384481404324,0.5748808713410484
0.0011953143676786994,0.5748808713410484
0.0011953143676786994,0.5769230769230769
0.0012123902872169666,0.5769230769230769
0.0012123902872169666,0.5796460176991151
0.0012294662067552338,0.5796460176991151
0.0012294662067552338,0.5810074880871341
0.0012465421262935008,0.5810074880871341
0.0012465421262935008,0.5813478556841388
0.001263618045831768,0.5813478556841388
0.001263618045831768,0.5816882232811437
0.0012806939653700353,0.5816882232811437
0.0012806939653700353,0.5833900612661674
0.0012977698849083023,0.5833900612661674
0.0012977698849083023,0.5850918992511913
0.0013148458044465695,0.5850918992511913
0.0013148458044465695,0.5888359428182437
0.0013319217239848365,0.5888359428182437
0.0013319217239848365,0.5929203539823009
0.0013489976435231037,0.5929203539823009
0.0013489976435231037,0.59428182437032
0.001366073563061371,0.59428182437032
0.001366073563061371,0.5966643975493533
0.0014173013216761722,0.5966643975493533
0.0014173013216761722,0.5990469707283866
0.0014514531607527066,0.5990469707283866
0.0014514531607527066,0.6004084411164057
0.0014856049998292408,0.6004084411164057
0.0014856049998292408,0.6017699115044248
0.0015026809193675078,0.6017699115044248
0.0015026809193675078,0.6044928522804629
0.0015368327584440423,0.6044928522804629
0.0015368327584440423,0.6048332198774676
0.0015539086779823093,0.6048332198774676
0.0015539086779823093,0.6061946902654868
0.0015709845975205765,0.6061946902654868
0.0015709845975205765,0.6089176310415249
0.0015880605170588435,0.6089176310415249
0.0015880605170588435,0.6095983662355344
0.0016051364365971107,0.6095983662355344
0.0016051364365971107,0.6140231449965963
0.001639288275673645,0.6140231449965963
0.001639288275673645,0.6143635125936011
0.0016563641952119122,0.6143635125936011
0.0016563641952119122,0.6147038801906058
0.0016734401147501792,0.6147038801906058
0.0016734401147501792,0.6167460857726345
0.0016905160342884464,0.6167460857726345
0.0016905160342884464,0.6187882913546631
0.0017075919538267136,0.6187882913546631
0.0017075919538267136,0.6218515997277059
0.0017246678733649806,0.6218515997277059
0.0017246678733649806,0.6238938053097345
0.0017417437929032479,0.6238938053097345
0.0017417437929032479,0.6245745405037441
0.0017929715515180493,0.6245745405037441
0.0017929715515180493,0.6259360108917631
0.0018271233905945835,0.6259360108917631
0.0018271233905945835,0.6266167460857727
0.0018441993101328507,0.6266167460857727
0.0018441993101328507,0.6272974812797821
0.0018612752296711178,0.6272974812797821
0.0018612752296711178,0.6283185840707964
0.001878351149209385,0.6283185840707964
0.001878351149209385,0.6286589516678013
0.001895427068747652,0.6286589516678013
0.001895427068747652,0.628999319264806
0.0019125029882859192,0.628999319264806
0.0019125029882859192,0.6293396868618107
0.0019295789078241864,0.6293396868618107
0.0019295789078241864,0.630360789652825
0.0019466548273624534,0.630360789652825
0.0019466548273624534,0.6313818924438394
0.0019637307469007204,0.6313818924438394
0.0019637307469007204,0.6320626276378489
0.0019808066664389876,0.6320626276378489
0.0019808066664389876,0.6327433628318584
0.001997882585977255,0.6327433628318584
0.001997882585977255,0.6337644656228727
0.002014958505515522,0.6337644656228727
0.002014958505515522,0.6341048332198774
0.0020320344250537893,0.6341048332198774
0.0020320344250537893,0.6354663036078966
0.002049110344592056,0.6354663036078966
0.002049110344592056,0.6368277739959156
0.0020661862641303233,0.6368277739959156
0.0020661862641303233,0.6371681415929203
0.0020832621836685905,0.6371681415929203
0.0020832621836685905,0.6381892443839347
0.002117414022745125,0.6381892443839347
0.002117414022745125,0.639210347174949
0.0021344899422833918,0.639210347174949
0.0021344899422833918,0.640571817562968
0.002168641781359926,0.640571817562968
0.002168641781359926,0.6409121851599727
0.0021857177008981934,0.6409121851599727
0.0021857177008981934,0.6415929203539823
0.0022027936204364607,0.6415929203539823
0.0022027936204364607,0.641933287950987
0.002254021379051262,0.641933287950987
0.002254021379051262,0.6432947583390062
0.002271097298589529,0.6432947583390062
0.002271097298589529,0.6436351259360109
0.002305249137666063,0.6436351259360109
0.002305249137666063,0.6443158611300204
0.0023564768962808648,0.6443158611300204
0.0023564768962808648,0.6446562287270252
0.002373552815819132,0.6446562287270252
0.002373552815819132,0.646358066712049
0.0023906287353573988,0.646358066712049
0.0023906287353573988,0.6466984343090538
0.002407704654895666,0.6466984343090538
0.002407704654895666,0.647719537100068
0.0024247805744339332,0.647719537100068
0.0024247805744339332,0.6497617426820966
0.0024418564939722004,0.6497617426820966
0.0024418564939722004,0.6511232130701157
0.0024589324135104677,0.6511232130701157
0.0024589324135104677,0.6524846834581348
0.002476008333048735,0.6524846834581348
0.002476008333048735,0.6548672566371682
0.0024930842525870017,0.6548672566371682
0.0024930842525870017,0.6552076242341729
0.002527236091663536,0.6552076242341729
0.002527236091663536,0.6562287270251872
0.0025443120112018033,0.6562287270251872
0.0025443120112018033,0.6579305650102111
0.0025784638502783373,0.6579305650102111
0.0025784638502783373,0.6623553437712729
0.002612615689354872,0.6623553437712729
0.002612615689354872,0.6630360789652825
0.002629691608893139,0.6630360789652825
0.002629691608893139,0.6643975493533015
0.0026467675284314062,0.6643975493533015
0.0026467675284314062,0.6657590197413207
0.002663843447969673,0.6657590197413207
0.002663843447969673,0.6667801225323349
0.0026979952870462075,0.6667801225323349
0.0026979952870462075,0.6671204901293397
0.0027150712065844747,0.6671204901293397
0.0027150712065844747,0.6678012253233492
0.0027492230456610087,0.6678012253233492
0.0027492230456610087,0.6705241660993874
0.002766298965199276,0.6705241660993874
0.002766298965199276,0.6708645336963921
0.0028004508042758103,0.6708645336963921
0.0028004508042758103,0.672566371681416
0.0028516785628906116,0.672566371681416
0.0028516785628906116,0.6735874744724302
0.0029029063215054132,0.6735874744724302
0.0029029063215054132,0.6742682096664397
0.00291998224104368,0.6742682096664397
0.00291998224104368,0.6746085772634445
0.0029541340801202145,0.6746085772634445
0.0029541340801202145,0.675289312457454
0.0029712099996584817,0.675289312457454
0.0029712099996584817,0.6756296800544588
0.002988285919196749,0.6756296800544588
0.002988285919196749,0.6766507828454731
0.0030053618387350157,0.6766507828454731
0.0030053618387350157,0.678352620830497
0.00303951367781155,0.678352620830497
0.00303951367781155,0.6786929884275017
0.0030565895973498174,0.6786929884275017
0.0030565895973498174,0.6790333560245064
0.0030736655168880846,0.6790333560245064
0.0030736655168880846,0.679714091218516
0.0031078173559646186,0.679714091218516
0.0031078173559646186,0.6803948264125256
0.003124893275502886,0.6803948264125256
0.003124893275502886,0.681075561606535
0.003141969195041153,0.681075561606535
0.003141969195041153,0.6814159292035398
0.0031590451145794203,0.6814159292035398
0.0031590451145794203,0.6824370319945541
0.003176121034117687,0.6824370319945541
0.003176121034117687,0.6844792375765827
0.0032102728731942215,0.6844792375765827
0.0032102728731942215,0.6848196051735874
0.0032273487927324887,0.6848196051735874
0.0032273487927324887,0.6851599727705923
0.003244424712270756,0.6851599727705923
0.003244424712270756,0.6858407079646017
0.0032615006318090227,0.6858407079646017
0.0032615006318090227,0.6865214431586113
0.00327857655134729,0.6865214431586113
0.00327857655134729,0.6885636487406399
0.003295652470885557,0.6885636487406399
0.003295652470885557,0.6902654867256637
0.0033127283904238244,0.6902654867256637
0.0033127283904238244,0.6906058543226685
0.0033298043099620916,0.6906058543226685
0.0033298043099620916,0.6923076923076923
0.0033639561490386256,0.6923076923076923
0.0033639561490386256,0.6929884275017019
0.0034151839076534273,0.6929884275017019
0.0034151839076534273,0.6933287950987066
0.0034322598271916945,0.6933287950987066
0.0034322598271916945,0.6957113682777399
0.0034493357467299613,0.6957113682777399
0.0034493357467299613,0.6960517358747447
0.0034664116662682285,0.6960517358747447
0.0034664116662682285,0.6963921034717495
0.0034834875858064957,0.6963921034717495
0.0034834875858064957,0.6974132062627638
0.003500563505344763,0.6974132062627638
0.003500563505344763,0.6980939414567733
0.00351763942488303,0.6980939414567733
0.00351763942488303,0.6984343090537781
0.003534715344421297,0.6984343090537781
0.003534715344421297,0.6991150442477876
0.0035688671834978314,0.6991150442477876
0.0035688671834978314,0.6997957794417972
0.0036371708616509,0.6997957794417972
0.0036371708616509,0.7001361470388019
0.003654246781189167,0.7001361470388019
0.003654246781189167,0.7011572498298162
0.0036713227007274343,0.7011572498298162
0.0036713227007274343,0.7028590878148401
0.0036883986202657015,0.7028590878148401
0.0036883986202657015,0.7042205582028591
0.0037396263788805027,0.7042205582028591
0.0037396263788805027,0.7045609257998638
0.00375670229841877,0.7045609257998638
0.00375670229841877,0.7052416609938734
0.003790854137495304,0.7052416609938734
0.003790854137495304,0.7059223961878829
0.0038250059765718384,0.7059223961878829
0.0038250059765718384,0.7062627637848877
0.0038420818961101056,0.7062627637848877
0.0038420818961101056,0.7066031313818925
0.003859157815648373,0.7066031313818925
0.003859157815648373,0.7069434989788972
0.003893309654724907,0.7069434989788972
0.003893309654724907,0.7076242341729068
0.003910385574263174,0.7076242341729068
0.003910385574263174,0.7086453369639211
0.0039445374133397085,0.7086453369639211
0.0039445374133397085,0.7096664397549354
0.003978689252416243,0.7096664397549354
0.003978689252416243,0.7100068073519401
0.0040128410914927765,0.7100068073519401
0.0040128410914927765,0.7110279101429544
0.004029917011031044,0.7110279101429544
0.004029917011031044,0.7113682777399591
0.004046992930569311,0.7113682777399591
0.004046992930569311,0.7134104833219878
0.004064068850107579,0.7134104833219878
0.004064068850107579,0.7140912185159973
0.00411529660872238,0.7140912185159973
0.00411529660872238,0.7151123213070115
0.004132372528260647,0.7151123213070115
0.004132372528260647,0.7171545268890401
0.004149448447798914,0.7171545268890401
0.004149448447798914,0.717494894486045
0.004166524367337181,0.717494894486045
0.004166524367337181,0.7185159972770592
0.004183600286875448,0.7185159972770592
0.004183600286875448,0.718856364874064
0.0042006762064137155,0.718856364874064
0.0042006762064137155,0.720217835262083
0.004217752125951982,0.720217835262083
0.004217752125951982,0.7205582028590878
0.0042689798845667835,0.7205582028590878
0.0042689798845667835,0.7219196732471069
0.004286055804105051,0.7219196732471069
0.004286055804105051,0.7226004084411164
0.004303131723643318,0.7226004084411164
0.004303131723643318,0.7229407760381211
0.004320207643181586,0.7229407760381211
0.004320207643181586,0.7249829816201497
0.004354359482258119,0.7249829816201497
0.004354359482258119,0.7256637168141593
0.004371435401796387,0.7256637168141593
0.004371435401796387,0.726004084411164
0.004388511321334654,0.726004084411164
0.004388511321334654,0.7270251872021783
0.004405587240872921,0.7270251872021783
0.004405587240872921,0.7277059223961879
0.004422663160411188,0.7277059223961879
0.004422663160411188,0.7287270251872022
0.004439739079949455,0.7287270251872022
0.004439739079949455,0.7297481279782164
0.004490966838564257,0.7297481279782164
0.004490966838564257,0.7300884955752213
0.004559270516717325,0.7300884955752213
0.004559270516717325,0.7311095983662356
0.004610498275332126,0.7311095983662356
0.004610498275332126,0.7314499659632403
0.004644650114408661,0.7314499659632403
0.004644650114408661,0.7328114363512593
0.004661726033946928,0.7328114363512593
0.004661726033946928,0.7338325391422736
0.004678801953485195,0.7338325391422736
0.004678801953485195,0.7351940095302927
0.004747105631638264,0.7351940095302927
0.004747105631638264,0.736215112321307
0.004764181551176531,0.736215112321307
0.004764181551176531,0.7365554799183118
0.0047812574707147976,0.7365554799183118
0.0047812574707147976,0.7382573179033356
0.0048495611488678664,0.7382573179033356
0.0048495611488678664,0.7389380530973452
0.004900788907482668,0.7389380530973452
0.004900788907482668,0.7392784206943499
0.0049690925856357366,0.7392784206943499
0.0049690925856357366,0.7396187882913546
0.004986168505174003,0.7396187882913546
0.004986168505174003,0.7406398910823689
0.005003244424712271,0.7406398910823689
0.005003244424712271,0.7409802586793737
0.005088624022403607,0.7409802586793737
0.005088624022403607,0.7413206262763785
0.0051056999419418735,0.7413206262763785
0.0051056999419418735,0.7423417290673928
0.005122775861480141,0.7423417290673928
0.005122775861480141,0.7426820966643976
0.005139851781018408,0.7426820966643976
0.005139851781018408,0.7437031994554119
0.005156927700556675,0.7437031994554119
0.005156927700556675,0.7440435670524166
0.005208155459171477,0.7440435670524166
0.005208155459171477,0.7443839346494214
0.005276459137324545,0.7443839346494214
0.005276459137324545,0.7447243022464262
0.0052935350568628125,0.7447243022464262
0.0052935350568628125,0.7450646698434309
0.005344762815477614,0.7450646698434309
0.005344762815477614,0.7457454050374405
0.005395990574092415,0.7457454050374405
0.005395990574092415,0.7460857726344452
0.005430142413168949,0.7460857726344452
0.005430142413168949,0.7467665078284548
0.0055496738499368195,0.7467665078284548
0.0055496738499368195,0.7471068754254595
0.005583825689013353,0.7471068754254595
0.005583825689013353,0.7481279782164738
0.005600901608551621,0.7481279782164738
0.005600901608551621,0.7484683458134785
0.005669205286704689,0.7484683458134785
0.005669205286704689,0.7501701837985024
0.005686281206242956,0.7501701837985024
0.005686281206242956,0.7508509189925119
0.005720433045319491,0.7508509189925119
0.005720433045319491,0.7511912865895167
0.005754584884396024,0.7511912865895167
0.005754584884396024,0.7515316541865215
0.005771660803934292,0.7515316541865215
0.005771660803934292,0.7518720217835262
0.005788736723472559,0.7518720217835262
0.005788736723472559,0.7525527569775358
0.005857040401625628,0.7525527569775358
0.005857040401625628,0.7528931245745405
0.0058741163211638945,0.7528931245745405
0.0058741163211638945,0.7535738597685501
0.005976571838393498,0.7535738597685501
0.005976571838393498,0.7542545949625595
0.005993647757931765,0.7542545949625595
0.005993647757931765,0.7545949625595644
0.006027799597008299,0.7545949625595644
0.006027799597008299,0.7549353301565691
0.006044875516546566,0.7549353301565691
0.006044875516546566,0.7552756977535738
0.0060619514360848335,0.7552756977535738
0.0060619514360848335,0.7556160653505786
0.006096103275161367,0.7556160653505786
0.006096103275161367,0.7569775357385977
0.0061302551142379015,0.7569775357385977
0.0061302551142379015,0.7573179033356024
0.006147331033776169,0.7573179033356024
0.006147331033776169,0.7576582709326072
0.006181482872852703,0.7576582709326072
0.006181482872852703,0.757998638529612
0.006249786551005772,0.757998638529612
0.006249786551005772,0.7586793737236215
0.006266862470544038,0.7586793737236215
0.006266862470544038,0.7600408441116405
0.006283938390082306,0.7600408441116405
0.006283938390082306,0.7614023144996597
0.006352242068235374,0.7614023144996597
0.006352242068235374,0.7617426820966644
0.0063863939073119085,0.7617426820966644
0.0063863939073119085,0.7620830496936691
0.006403469826850176,0.7620830496936691
0.006403469826850176,0.7631041524846834
0.006420545746388443,0.7631041524846834
0.006420545746388443,0.7634445200816882
0.006471773505003244,0.7634445200816882
0.006471773505003244,0.7644656228727025
0.006488849424541512,0.7644656228727025
0.006488849424541512,0.7648059904697073
0.006540077183156313,0.7648059904697073
0.006540077183156313,0.7654867256637168
0.006625456780847649,0.7654867256637168
0.006625456780847649,0.7658270932607216
0.006659608619924183,0.7658270932607216
0.006659608619924183,0.7661674608577264
0.00667668453946245,0.7661674608577264
0.00667668453946245,0.7668481960517358
0.006693760459000717,0.7668481960517358
0.006693760459000717,0.768209666439755
0.006710836378538984,0.768209666439755
0.006710836378538984,0.7685500340367597
0.006727912298077251,0.7685500340367597
0.006727912298077251,0.7702518720217836
0.0067791400566920524,0.7702518720217836
0.0067791400566920524,0.7705922396187883
0.006847443734845121,0.7705922396187883
0.006847443734845121,0.7722940776038121
0.006881595573921656,0.7722940776038121
0.006881595573921656,0.7729748127978217
0.0068986714934599225,0.7729748127978217
0.0068986714934599225,0.773995915588836
0.00691574741299819,0.773995915588836
0.00691574741299819,0.7743362831858407
0.006932823332536457,0.7743362831858407
0.006932823332536457,0.7746766507828454
0.006984051091151258,0.7746766507828454
0.006984051091151258,0.7760381211708646
0.007052354769304327,0.7760381211708646
0.007052354769304327,0.7763784887678693
0.007103582527919128,0.7763784887678693
0.007103582527919128,0.7780803267528931
0.007120658447457396,0.7780803267528931
0.007120658447457396,0.7784206943498979
0.0071548102865339296,0.7784206943498979
0.0071548102865339296,0.7791014295439074
0.007171886206072197,0.7791014295439074
0.007171886206072197,0.7794417971409122
0.007257265803763533,0.7794417971409122
0.007257265803763533,0.779782164737917
0.007325569481916601,0.779782164737917
0.007325569481916601,0.7801225323349217
0.0073426454014548686,0.7801225323349217
0.0073426454014548686,0.7804628999319265
0.007376797240531403,0.7804628999319265
0.007376797240531403,0.7808032675289313
0.007428024999146204,0.7808032675289313
0.007428024999146204,0.7814840027229408
0.007462176838222739,0.7814840027229408
0.007462176838222739,0.7821647379169503
0.0074792527577610055,0.7821647379169503
0.0074792527577610055,0.7828454731109599
0.007496328677299272,0.7828454731109599
0.007496328677299272,0.7831858407079646
0.00751340459683754,0.7831858407079646
0.00751340459683754,0.7835262083049693
0.007530480516375807,0.7835262083049693
0.007530480516375807,0.7842069434989789
0.007581708274990608,0.7842069434989789
0.007581708274990608,0.7845473110959836
0.007598784194528876,0.7845473110959836
0.007598784194528876,0.7848876786929885
0.007667087872681944,0.7848876786929885
0.007667087872681944,0.7855684138869979
0.007701239711758478,0.7855684138869979
0.007701239711758478,0.7865895166780122
0.007752467470373279,0.7865895166780122
0.007752467470373279,0.786929884275017
0.007769543389911547,0.786929884275017
0.007769543389911547,0.7879509870660313
0.007803695228988081,0.7879509870660313
0.007803695228988081,0.7886317222600409
0.007820771148526348,0.7886317222600409
0.007820771148526348,0.7889720898570456
0.00787199890714115,0.7889720898570456
0.00787199890714115,0.7893124574540503
0.007889074826679417,0.7893124574540503
0.007889074826679417,0.7896528250510552
0.00799153034390902,0.7896528250510552
0.00799153034390902,0.7899931926480599
0.008059834022062088,0.7899931926480599
0.008059834022062088,0.7906739278420695
0.00816228953929169,0.7906739278420695
0.00816228953929169,0.7910142954390742
0.008179365458829958,0.7910142954390742
0.008179365458829958,0.7913546630360789
0.00823059321744476,0.7913546630360789
0.00823059321744476,0.7916950306330838
0.008298896895597829,0.7916950306330838
0.008298896895597829,0.7930565010211028
0.008315972815136095,0.7930565010211028
0.008315972815136095,0.7937372362151123
0.008350124654212629,0.7937372362151123
0.008350124654212629,0.7940776038121171
0.008384276493289164,0.7940776038121171
0.008384276493289164,0.7947583390061266
0.008401352412827431,0.7947583390061266
0.008401352412827431,0.7950987066031314
0.008435504251903965,0.7950987066031314
0.008435504251903965,0.7954390742001362
0.0084696560909805,0.7954390742001362
0.0084696560909805,0.7957794417971409
0.008537959769133567,0.7957794417971409
0.008537959769133567,0.7961198093941457
0.008572111608210102,0.7961198093941457
0.008572111608210102,0.7971409121851599
0.00858918752774837,0.7971409121851599
0.00858918752774837,0.7978216473791695
0.008606263447286636,0.7978216473791695
0.008606263447286636,0.7985023825731791
0.008657491205901438,0.7985023825731791
0.008657491205901438,0.7991831177671885
0.008691643044977972,0.7991831177671885
0.008691643044977972,0.7998638529611981
0.008708718964516238,0.7998638529611981
0.008708718964516238,0.8008849557522124
0.008742870803592774,0.8008849557522124
0.008742870803592774,0.8015656909462219
0.008794098562207574,0.8015656909462219
0.008794098562207574,0.8022464261402315
0.008862402240360643,0.8022464261402315
0.008862402240360643,0.8025867937372362
0.008896554079437178,0.8025867937372362
0.008896554079437178,0.802927161334241
0.008913629998975445,0.802927161334241
0.008913629998975445,0.8032675289312458
0.008930705918513712,0.8032675289312458
0.008930705918513712,0.8042886317222601
0.008964857757590245,0.8042886317222601
0.008964857757590245,0.8046289993192648
0.009084389194358116,0.8046289993192648
0.009084389194358116,0.8053097345132744
0.009101465113896383,0.8053097345132744
0.009101465113896383,0.8059904697072838
0.009135616952972917,0.8059904697072838
0.009135616952972917,0.8070115724982981
0.009169768792049452,0.8070115724982981
0.009169768792049452,0.807351940095303
0.009238072470202521,0.807351940095303
0.009238072470202521,0.8076923076923077
0.009272224309279055,0.8076923076923077
0.009272224309279055,0.8080326752893124
0.009289300228817321,0.8080326752893124
0.009289300228817321,0.8090537780803267
0.009374679826508657,0.8090537780803267
0.009374679826508657,0.8093941456773315
0.009408831665585192,0.8093941456773315
0.009408831665585192,0.8097345132743363
0.009442983504661726,0.8097345132743363
0.009442983504661726,0.810074880871341
0.00947713534373826,0.810074880871341
0.00947713534373826,0.8110959836623554
0.009511287182814795,0.8110959836623554
0.009511287182814795,0.8114363512593601
0.009528363102353062,0.8114363512593601
0.009528363102353062,0.8124574540503744
0.009545439021891328,0.8124574540503744
0.009545439021891328,0.8127978216473791
0.009562514941429595,0.8127978216473791
0.009562514941429595,0.813138189244384
0.009579590860967864,0.813138189244384
0.009579590860967864,0.8141592920353983
0.009613742700044397,0.8141592920353983
0.009613742700044397,0.8148400272294077
0.0096649704586592,0.8148400272294077
0.0096649704586592,0.8151803948264126
0.009699122297735733,0.8151803948264126
0.009699122297735733,0.815861130020422
0.009801577814965335,0.815861130020422
0.009801577814965335,0.8162014976174268
0.009938185171271473,0.8162014976174268
0.009938185171271473,0.8165418652144316
0.010023564768962809,0.8165418652144316
0.010023564768962809,0.8172226004084411
0.010074792527577611,0.8172226004084411
0.010074792527577611,0.8175629680054459
0.010143096205730678,0.8175629680054459
0.010143096205730678,0.8179033356024507
0.010177248044807213,0.8179033356024507
0.010177248044807213,0.8182437031994554
0.010245551722960282,0.8182437031994554
0.010245551722960282,0.818924438393465
0.010296779481575083,0.818924438393465
0.010296779481575083,0.8192648059904697
0.010382159079266418,0.8192648059904697
0.010382159079266418,0.820285908781484
0.010399234998804685,0.820285908781484
0.010399234998804685,0.8206262763784887
0.01043338683788122,0.8206262763784887
0.01043338683788122,0.8209666439754936
0.010450462757419487,0.8209666439754936
0.010450462757419487,0.8213070115724983
0.010535842355110823,0.8213070115724983
0.010535842355110823,0.821647379169503
0.01055291827464909,0.821647379169503
0.01055291827464909,0.8219877467665079
0.010569994194187356,0.8219877467665079
0.010569994194187356,0.8223281143635126
0.010638297872340425,0.8223281143635126
0.010638297872340425,0.8226684819605173
0.010860284826337899,0.8226684819605173
0.010860284826337899,0.8230088495575221
0.010894436665414432,0.8230088495575221
0.010894436665414432,0.8236895847515316
0.010945664424029234,0.8236895847515316
0.010945664424029234,0.8240299523485364
0.011116423619411906,0.8240299523485364
0.011116423619411906,0.8243703199455412
0.011133499538950173,0.8243703199455412
0.011133499538950173,0.824710687542546
0.01115057545848844,0.824710687542546
0.01115057545848844,0.8250510551395507
0.011184727297564975,0.8250510551395507
0.011184727297564975,0.8253914227365555
0.011218879136641508,0.8253914227365555
0.011218879136641508,0.8257317903335603
0.011235955056179775,0.8257317903335603
0.011235955056179775,0.826072157930565
0.01132133465387111,0.826072157930565
0.01132133465387111,0.8264125255275698
0.01138963833202418,0.8264125255275698
0.01138963833202418,0.827433628318584
0.011406714251562446,0.827433628318584
0.011406714251562446,0.8281143635125936
0.011423790171100713,0.8281143635125936
0.011423790171100713,0.8284547311095983
0.011492093849253782,0.8284547311095983
0.011492093849253782,0.8294758339006126
0.011509169768792049,0.8294758339006126
0.011509169768792049,0.8301565690946222
0.011526245688330317,0.8301565690946222
0.011526245688330317,0.8304969366916269
0.011577473446945118,0.8304969366916269
0.011577473446945118,0.8308373042886317
0.011611625286021653,0.8308373042886317
0.011611625286021653,0.8311776718856365
0.011662853044636453,0.8311776718856365
0.011662853044636453,0.831858407079646
0.011714080803251255,0.831858407079646
0.011714080803251255,0.8321987746766508
0.011936067757248727,0.8321987746766508
0.011936067757248727,0.8325391422736556
0.01198729551586353,0.8325391422736556
0.01198729551586353,0.8328795098706603
0.012192206550322734,0.8328795098706603
0.012192206550322734,0.8332198774676651
0.012209282469861003,0.8332198774676651
0.012209282469861003,0.8339006126616746
0.01222635838939927,0.8339006126616746
0.01222635838939927,0.8342409802586793
0.012260510228475803,0.8342409802586793
0.012260510228475803,0.8352620830496936
0.012328813906628872,0.8352620830496936
0.012328813906628872,0.8356024506466985
0.012362965745705405,0.8356024506466985
0.012362965745705405,0.8359428182437032
0.012414193504320208,0.8359428182437032
0.012414193504320208,0.8366235534377128
0.012431269423858474,0.8366235534377128
0.012431269423858474,0.8369639210347175
0.012448345343396741,0.8369639210347175
0.012448345343396741,0.8379850238257318
0.012482497182473276,0.8379850238257318
0.012482497182473276,0.8386657590197413
0.012602028619241146,0.8386657590197413
0.012602028619241146,0.8393464942137508
0.012619104538779412,0.8393464942137508
0.012619104538779412,0.8413886997957795
0.012653256377855948,0.8413886997957795
0.012653256377855948,0.8417290673927842
0.012687408216932481,0.8417290673927842
0.012687408216932481,0.8420694349897889
0.012789863734162084,0.8420694349897889
0.012789863734162084,0.8427501701837985
0.01282401557323862,0.8427501701837985
0.01282401557323862,0.8434309053778081
0.012841091492776886,0.8434309053778081
0.012841091492776886,0.8444520081688224
0.01287524333185342,0.8444520081688224
0.01287524333185342,0.8451327433628318
0.012926471090468222,0.8451327433628318
0.012926471090468222,0.8458134785568414
0.012943547010006488,0.8458134785568414
0.012943547010006488,0.8461538461538461
0.01299477476862129,0.8461538461538461
0.01299477476862129,0.8464942137508509
0.013097230285850893,0.8464942137508509
0.013097230285850893,0.8468345813478557
0.013182609883542229,0.8468345813478557
0.013182609883542229,0.8471749489448605
0.01323383764215703,0.8471749489448605
0.01323383764215703,0.8475153165418652
0.013438748676616236,0.8475153165418652
0.013438748676616236,0.84785568413887
0.01347290051569277,0.84785568413887
0.01347290051569277,0.8481960517358748
0.01359243195246064,0.8481960517358748
0.01359243195246064,0.8485364193328795
0.013626583791537174,0.8485364193328795
0.013626583791537174,0.8488767869298843
0.01371196338922851,0.8488767869298843
0.01371196338922851,0.8492171545268891
0.013729039308766778,0.8492171545268891
0.013729039308766778,0.8498978897208985
0.013746115228305045,0.8498978897208985
0.013746115228305045,0.8502382573179034
0.013763191147843312,0.8502382573179034
0.013763191147843312,0.8505786249149081
0.013814418906458114,0.8505786249149081
0.013814418906458114,0.8509189925119128
0.013848570745534647,0.8509189925119128
0.013848570745534647,0.8519400953029271
0.013933950343225983,0.8519400953029271
0.013933950343225983,0.8526208304969367
0.014087633619070387,0.8526208304969367
0.014087633619070387,0.8533015656909462
0.014121785458146921,0.8533015656909462
0.014121785458146921,0.853641933287951
0.014173013216761723,0.853641933287951
0.014173013216761723,0.8543226684819605
0.01419008913629999,0.8543226684819605
0.01419008913629999,0.85500340367597
0.014275468733991326,0.85500340367597
0.014275468733991326,0.8556841388699796
0.014634063044294935,0.8556841388699796
0.014634063044294935,0.8560245064669844
0.014651138963833202,0.8560245064669844
0.014651138963833202,0.8563648740639891
0.01466821488337147,0.8563648740639891
0.01466821488337147,0.8567052416609938
0.01471944264198627,0.8567052416609938
0.01471944264198627,0.8570456092579987
0.014873125917830675,0.8570456092579987
0.014873125917830675,0.8573859768550034
0.014992657354598544,0.8573859768550034
0.014992657354598544,0.8577263444520081
0.015009733274136813,0.8577263444520081
0.015009733274136813,0.858066712049013
0.015112188791366415,0.858066712049013
0.015112188791366415,0.8584070796460177
0.01526587206721082,0.8584070796460177
0.01526587206721082,0.8587474472430224
0.01531709982582562,0.8587474472430224
0.01531709982582562,0.8590878148400273
0.015334175745363887,0.8590878148400273
0.015334175745363887,0.859428182437032
0.015368327584440422,0.859428182437032
0.015368327584440422,0.8597685500340367
0.015402479423516956,0.8597685500340367
0.015402479423516956,0.8601089176310415
0.015419555343055223,0.8601089176310415
0.015419555343055223,0.860789652825051
0.015436631262593491,0.860789652825051
0.015436631262593491,0.8611300204220558
0.015453707182131758,0.8611300204220558
0.015453707182131758,0.8614703880190606
0.015607390457976163,0.8614703880190606
0.015607390457976163,0.8618107556160653
0.015692770055667497,0.8618107556160653
0.015692770055667497,0.8621511232130701
0.015948908848741505,0.8621511232130701
0.015948908848741505,0.8624914908100749
0.01598306068781804,0.8624914908100749
0.01598306068781804,0.8631722260040844
0.016000136607356306,0.8631722260040844
0.016000136607356306,0.8635125936010892
0.016051364365971106,0.8635125936010892
0.016051364365971106,0.863852961198094
0.01610259212458591,0.863852961198094
0.01610259212458591,0.8641933287950987
0.01634165499812165,0.8641933287950987
0.01634165499812165,0.8645336963921034
0.01651241419350432,0.8645336963921034
0.01651241419350432,0.8648740639891083
0.01668317338888699,0.8648740639891083
0.01668317338888699,0.865214431586113
0.016717325227963525,0.865214431586113
0.016717325227963525,0.8655547991831177
0.01675147706704006,0.8655547991831177
0.01675147706704006,0.8658951667801226
0.016956388101499267,0.8658951667801226
0.016956388101499267,0.8662355343771273
0.017058843618728867,0.8662355343771273
0.017058843618728867,0.866575901974132
0.017212526894573272,0.866575901974132
0.017212526894573272,0.8669162695711369
0.017417437929032477,0.8669162695711369
0.017417437929032477,0.8672566371681416
0.017434513848570747,0.8672566371681416
0.017434513848570747,0.8675970047651463
0.01746866568764728,0.8675970047651463
0.01746866568764728,0.8679373723621511
0.017502817526723814,0.8679373723621511
0.017502817526723814,0.8682777399591559
0.017588197124415148,0.8682777399591559
0.017588197124415148,0.8686181075561606
0.017622348963491685,0.8686181075561606
0.017622348963491685,0.8689584751531654
0.017724804480721286,0.8689584751531654
0.017724804480721286,0.8692988427501702
0.017844335917489157,0.8692988427501702
0.017844335917489157,0.869639210347175
0.017861411837027424,0.869639210347175
0.017861411837027424,0.8703199455411845
0.017912639595642224,0.8703199455411845
0.017912639595642224,0.871000680735194
0.01792971551518049,0.871000680735194
0.01792971551518049,0.8713410483321987
0.01801509511287183,0.8713410483321987
0.01801509511287183,0.8716814159292036
0.01806632287148663,0.8716814159292036
0.01806632287148663,0.8720217835262083
0.018100474710563162,0.8720217835262083
0.018100474710563162,0.872362151123213
0.0182370820668693,0.872362151123213
0.0182370820668693,0.8730428863172226
0.018339537584098904,0.8730428863172226
0.018339537584098904,0.8733832539142273
0.018459069020866775,0.8733832539142273
0.018459069020866775,0.8737236215112322
0.018476144940405042,0.8737236215112322
0.018476144940405042,0.8740639891082369
0.01859567637717291,0.8740639891082369
0.01859567637717291,0.8744043567052416
0.01871520781394078,0.8744043567052416
0.01871520781394078,0.8747447243022465
0.01876643557255558,0.8747447243022465
0.01876643557255558,0.8750850918992512
0.018783511492093848,0.8750850918992512
0.018783511492093848,0.8754254594962559
0.01895427068747652,0.8754254594962559
0.01895427068747652,0.8757658270932607
0.019056726204706123,0.8757658270932607
0.019056726204706123,0.8761061946902655
0.019107953963320923,0.8761061946902655
0.019107953963320923,0.8764465622872702
0.019159181721935727,0.8764465622872702
0.019159181721935727,0.876786929884275
0.019210409480550528,0.876786929884275
0.019210409480550528,0.8771272974812798
0.019227485400088794,0.8771272974812798
0.019227485400088794,0.8774676650782846
0.019261637239165328,0.8774676650782846
0.019261637239165328,0.8778080326752893
0.019466548273624536,0.8778080326752893
0.019466548273624536,0.8781484002722941
0.019620231549468937,0.8781484002722941
0.019620231549468937,0.8784887678692989
0.01979099074485161,0.8784887678692989
0.01979099074485161,0.8788291354663036
0.019876370342542946,0.8788291354663036
0.019876370342542946,0.8791695030633083
0.01997882585977255,0.8791695030633083
0.01997882585977255,0.8795098706603132
0.019995901779310817,0.8795098706603132
0.019995901779310817,0.8798502382573179
0.020012977698849084,0.8798502382573179
0.020012977698849084,0.8801906058543226
0.02033742017007616,0.8801906058543226
0.02033742017007616,0.8805309734513275
0.02038864792869096,0.8805309734513275
0.02038864792869096,0.8808713410483322
0.02050817936545883,0.8808713410483322
0.02050817936545883,0.8812117086453369
0.020593558963150165,0.8812117086453369
0.020593558963150165,0.8818924438393465
0.020610634882688432,0.8818924438393465
0.020610634882688432,0.8822328114363512
0.020644786721764966,0.8822328114363512
0.020644786721764966,0.882573179033356
0.020900925514838974,0.882573179033356
0.020900925514838974,0.8829135466303608
0.02091800143437724,0.8829135466303608
0.02091800143437724,0.8832539142273655
0.020952153273453775,0.8832539142273655
0.020952153273453775,0.8835942818243703
0.020986305112530308,0.8835942818243703
0.020986305112530308,0.8839346494213751
0.02115706430791298,0.8839346494213751
0.02115706430791298,0.8842750170183798
0.02139612718144872,0.8842750170183798
0.02139612718144872,0.8846153846153846
0.021549810457293126,0.8846153846153846
0.021549810457293126,0.8849557522123894
0.021771797411290598,0.8849557522123894
0.021771797411290598,0.8852961198093942
0.021823025169905398,0.8852961198093942
0.021823025169905398,0.8856364874063989
0.021976708445749803,0.8856364874063989
0.021976708445749803,0.8859768550034037
0.022010860284826336,0.8859768550034037
0.022010860284826336,0.8863172226004085
0.02206208804344114,0.8863172226004085
0.02206208804344114,0.8866575901974132
0.022386530514668216,0.8866575901974132
0.022386530514668216,0.8869979577944179
0.022745124824971825,0.8869979577944179
0.022745124824971825,0.8873383253914228
0.022881732181277963,0.8873383253914228
0.022881732181277963,0.8876786929884275
0.022967111778969297,0.8876786929884275
0.022967111778969297,0.8880190605854322
0.02300126361804583,0.8880190605854322
0.02300126361804583,0.8883594281824371
0.023086643215737168,0.8883594281824371
0.023086643215737168,0.8886997957794418
0.023103719135275435,0.8886997957794418
0.023103719135275435,0.8893805309734514
0.02337693384788771,0.8893805309734514
0.02337693384788771,0.8897208985704561
0.023581844882346915,0.8897208985704561
0.023581844882346915,0.8900612661674608
0.023684300399576516,0.8900612661674608
0.023684300399576516,0.8904016337644656
0.024008742870803592,0.8904016337644656
0.024008742870803592,0.8907420013614704
0.02402581879034186,0.8907420013614704
0.02402581879034186,0.8910823689584751
0.0242648816638776,0.8910823689584751
0.0242648816638776,0.8914227365554799
0.024350261261568935,0.8914227365554799
0.024350261261568935,0.8917631041524847
0.024469792698336806,0.8917631041524847
0.024469792698336806,0.8924438393464942
0.02455517229602814,0.8924438393464942
0.02455517229602814,0.892784206943499
0.02462347597418121,0.892784206943499
0.02462347597418121,0.8931245745405038
0.024657627813257744,0.8931245745405038
0.024657627813257744,0.8934649421375085
0.024708855571872544,0.8934649421375085
0.024708855571872544,0.8938053097345132
0.024879614767255216,0.8938053097345132
0.024879614767255216,0.8941456773315181
0.024999146204023086,0.8941456773315181
0.024999146204023086,0.8944860449285228
0.025169905399405758,0.8944860449285228
0.025169905399405758,0.8948264125255275
0.02528943683617363,0.8948264125255275
0.02528943683617363,0.8951667801225324
0.025323588675250162,0.8951667801225324
0.025323588675250162,0.8955071477195371
0.025357740514326696,0.8955071477195371
0.025357740514326696,0.8958475153165418
0.025528499709709367,0.8958475153165418
0.025528499709709367,0.8961878829135467
0.025579727468324168,0.8961878829135467
0.025579727468324168,0.8965282505105514
0.025596803387862438,0.8965282505105514
0.025596803387862438,0.897208985704561
0.025613879307400705,0.897208985704561
0.025613879307400705,0.8975493533015657
0.025784638502783376,0.8975493533015657
0.025784638502783376,0.8982300884955752
0.025904169939551244,0.8982300884955752
0.025904169939551244,0.89857045609258
0.02604077729585738,0.89857045609258
0.02604077729585738,0.8989108236895847
0.026057853215395648,0.8989108236895847
0.026057853215395648,0.8992511912865895
0.026109080974010452,0.8992511912865895
0.026109080974010452,0.8995915588835943
0.026211536491240053,0.8995915588835943
0.026211536491240053,0.899931926480599
0.026331067928007924,0.899931926480599
0.026331067928007924,0.9002722940776038
0.02646767528431406,0.9002722940776038
0.02646767528431406,0.9006126616746086
0.026518903042928862,0.9006126616746086
0.026518903042928862,0.9009530292716134
0.026792117755541137,0.9009530292716134
0.026792117755541137,0.9012933968686181
0.02694580103138554,0.9012933968686181
0.02694580103138554,0.9016337644656228
0.027048256548615143,0.9016337644656228
0.027048256548615143,0.9019741320626277
0.02706533246815341,0.9019741320626277
0.02706533246815341,0.9023144996596324
0.027509306376148356,0.9023144996596324
0.027509306376148356,0.9026548672566371
0.0277995970082989,0.9026548672566371
0.0277995970082989,0.902995234853642
0.027987432123219837,0.902995234853642
0.027987432123219837,0.9033356024506467
0.02802158396229637,0.9033356024506467
0.02802158396229637,0.9036759700476514
0.028106963559987704,0.9036759700476514
0.028106963559987704,0.9040163376446563
0.02855093746798265,0.9040163376446563
0.02855093746798265,0.904356705241661
0.028568013387520918,0.904356705241661
0.028568013387520918,0.9046970728386657
0.028721696663365322,0.9046970728386657
0.028721696663365322,0.9050374404356705
0.028875379939209727,0.9050374404356705
0.028875379939209727,0.9053778080326753
0.029063215054130665,0.9053778080326753
0.029063215054130665,0.90571817562968
0.029080290973668932,0.90571817562968
0.029080290973668932,0.9060585432266848
0.029353505686281207,0.9060585432266848
0.029353505686281207,0.9063989108236896
0.02979747959427615,0.9063989108236896
0.02979747959427615,0.9067392784206944
0.03041221269765377,0.9067392784206944
0.03041221269765377,0.9070796460176991
0.03111232539872272,0.9070796460176991
0.03111232539872272,0.9074200136147039
0.031129401318260988,0.9074200136147039
0.031129401318260988,0.9077603812117087
0.03141969195041153,0.9077603812117087
0.03141969195041153,0.9081007488087134
0.03145384378948807,0.9081007488087134
0.03145384378948807,0.9084411164057182
0.03147091970902633,0.9084411164057182
0.03147091970902633,0.908781484002723
0.032171032410095286,0.908781484002723
0.032171032410095286,0.9091218515997277
0.03242717120316929,0.9091218515997277
0.03242717120316929,0.9094622191967324
0.03270038591578157,0.9094622191967324
0.03270038591578157,0.9098025867937373
0.0327857655134729,0.9098025867937373
0.0327857655134729,0.910142954390742
0.032888221030702505,0.910142954390742
0.032888221030702505,0.9104833219877467
0.03311020798469998,0.9104833219877467
0.03311020798469998,0.9108236895847516
0.03314435982377651,0.9108236895847516
0.03314435982377651,0.9111640571817563
0.033178511662853044,0.9111640571817563
0.033178511662853044,0.9118447923757659
0.03321266350192958,0.9118447923757659
0.03321266350192958,0.9121851599727706
0.033298043099620915,0.9121851599727706
0.033298043099620915,0.9125255275697753
0.03346880229500358,0.9125255275697753
0.03346880229500358,0.9128658951667801
0.03369078924900106,0.9128658951667801
0.03369078924900106,0.9132062627637849
0.03379324476623066,0.9132062627637849
0.03379324476623066,0.9135466303607896
0.033844472524845466,0.9135466303607896
0.033844472524845466,0.9138869979577944
0.0339810798811516,0.9138869979577944
0.0339810798811516,0.9142273655547992
0.03430552235237867,0.9142273655547992
0.03430552235237867,0.914567733151804
0.034869027697141494,0.914567733151804
0.034869027697141494,0.9152484683458135
0.03492025545575629,0.9152484683458135
0.03492025545575629,0.9155888359428183
0.03493733137529456,0.9155888359428183
0.03493733137529456,0.915929203539823
0.03529592568559817,0.915929203539823
0.03529592568559817,0.9162695711368277
0.035381305283289505,0.9162695711368277
0.035381305283289505,0.9166099387338326
0.03541545712236604,0.9166099387338326
0.03541545712236604,0.917290673927842
0.036115569823434994,0.917290673927842
0.036115569823434994,0.9176310415248469
0.03625217717974113,0.9176310415248469
0.03625217717974113,0.9179714091218516
0.03628632901881766,0.9179714091218516
0.03628632901881766,0.9183117767188563
0.036508315972815134,0.9183117767188563
0.036508315972815134,0.9186521443158612
0.03691813804173355,0.9186521443158612
0.03691813804173355,0.9189925119128659
0.03700351763942488,0.9189925119128659
0.03700351763942488,0.9193328795098706
0.03725965643249889,0.9193328795098706
0.03725965643249889,0.9196732471068755
0.03732796011065196,0.9196732471068755
0.03732796011065196,0.9200136147038802
0.03737918786926676,0.9200136147038802
0.03737918786926676,0.9203539823008849
0.0374133397083433,0.9203539823008849
0.0374133397083433,0.9206943498978897
0.037567022984187695,0.9206943498978897
0.037567022984187695,0.9210347174948945
0.037703630340493836,0.9210347174948945
0.037703630340493836,0.9213750850918992
0.03795976913356784,0.9213750850918992
0.03795976913356784,0.921715452688904
0.03797684505310611,0.921715452688904
0.03797684505310611,0.9220558202859088
0.03804514873125918,0.9220558202859088
0.03804514873125918,0.9223961878829136
0.03814760424848878,0.9223961878829136
0.03814760424848878,0.9227365554799183
0.038523274478330656,0.9227365554799183
0.038523274478330656,0.9230769230769231
0.0388135651104812,0.9230769230769231
0.0388135651104812,0.9234172906739279
0.03934291861616748,0.9234172906739279
0.03934291861616748,0.9240980258679373
0.03951367781155015,0.9240980258679373
0.03951367781155015,0.9244383934649422
0.039803968443700696,0.9244383934649422
0.039803968443700696,0.9247787610619469
0.04012841091492777,0.9247787610619469
0.04012841091492777,0.9251191286589516
0.040640688501075786,0.9251191286589516
0.040640688501075786,0.9261402314499659
0.04076021993784365,0.9261402314499659
0.04076021993784365,0.9264805990469708
0.04098220689184113,0.9264805990469708
0.04098220689184113,0.9268209666439755
0.04108466240907073,0.9268209666439755
0.04108466240907073,0.9271613342409802
0.041238345684915134,0.9271613342409802
0.041238345684915134,0.927501701837985
0.04154571223660394,0.927501701837985
0.04154571223660394,0.9278420694349898
0.04183600286875448,0.9278420694349898
0.04183600286875448,0.9281824370319945
0.04198968614459889,0.9281824370319945
0.04198968614459889,0.9285228046289993
0.04294593763874185,0.9285228046289993
0.04294593763874185,0.9288631722260041
0.04298008947781838,0.9288631722260041
0.04298008947781838,0.9292035398230089
0.042997165397356645,0.9292035398230089
0.042997165397356645,0.9295439074200136
0.04309962091458625,0.9295439074200136
0.04309962091458625,0.9298842750170184
0.04316792459273932,0.9298842750170184
0.04316792459273932,0.9302246426140232
0.04368020217888733,0.9302246426140232
0.04368020217888733,0.9305650102110279
0.04388511321334654,0.9305650102110279
0.04388511321334654,0.9309053778080327
0.04422663160411188,0.9309053778080327
0.04422663160411188,0.9312457454050375
0.04431201120180322,0.9312457454050375
0.04431201120180322,0.9315861130020422
0.044363238960418015,0.9315861130020422
0.044363238960418015,0.9319264805990469
0.044670605512106824,0.9319264805990469
0.044670605512106824,0.9322668481960518
0.04549024964994365,0.9322668481960518
0.04549024964994365,0.9326072157930565
0.045524401489020185,0.9326072157930565
0.045524401489020185,0.9329475833900612
0.04555855332809672,0.9329475833900612
0.04555855332809672,0.9332879509870661
0.045729312523479386,0.9332879509870661
0.045729312523479386,0.9336283185840708
0.04581469212117072,0.9336283185840708
0.04581469212117072,0.9339686861810755
0.045934223557938594,0.9339686861810755
0.045934223557938594,0.9343090537780804
0.04632696970731874,0.9343090537780804
0.04632696970731874,0.9346494213750851
0.04668556401762235,0.9346494213750851
0.04668556401762235,0.9349897889720898
0.04694170281069636,0.9349897889720898
0.04694170281069636,0.9353301565690946
0.04695877873023462,0.9353301565690946
0.04695877873023462,0.9356705241660994
0.047095386086540764,0.9356705241660994
0.047095386086540764,0.9360108917631041
0.0471295379256173,0.9360108917631041
0.0471295379256173,0.9363512593601089
0.047607663672688774,0.9363512593601089
0.047607663672688774,0.9366916269571137
0.04765889143130358,0.9366916269571137
0.04765889143130358,0.9370319945541185
0.048154093097913325,0.9370319945541185
0.048154093097913325,0.9373723621511232
0.04924695194836242,0.9373723621511232
0.04924695194836242,0.937712729748128
0.05071548102865339,0.937712729748128
0.05071548102865339,0.9380530973451328
0.050937467982650864,0.9380530973451328
0.050937467982650864,0.9383934649421375
0.051074075338957005,0.9383934649421375
0.051074075338957005,0.9387338325391422
0.05110822717803354,0.9387338325391422
0.05110822717803354,0.9390742001361471
0.051603428844643286,0.9390742001361471
0.051603428844643286,0.9394145677331518
0.05167173252279635,0.9394145677331518
0.05167173252279635,0.9397549353301565
0.052423072982480105,0.9397549353301565
0.052423072982480105,0.9400953029271614
0.05308903384447253,0.9400953029271614
0.05308903384447253,0.9404356705241661
0.05320856528124039,0.9404356705241661
0.05320856528124039,0.9407760381211708
0.05426727229261296,0.9407760381211708
0.05426727229261296,0.9411164057181757
0.05582118097059527,0.9411164057181757
0.05582118097059527,0.9414567733151804
0.055872408729210066,0.9414567733151804
0.055872408729210066,0.9417971409121851
0.05602609200505447,0.9417971409121851
0.05602609200505447,0.94213750850919
0.056179775280898875,0.94213750850919
0.056179775280898875,0.9428182437031994
0.05628223079812848,0.9428182437031994
0.05628223079812848,0.9431586113002042
0.056316382637205016,0.9431586113002042
0.056316382637205016,0.943498978897209
0.05633345855674328,0.943498978897209
0.05633345855674328,0.9438393464942137
0.0570506471773505,0.9438393464942137
0.0570506471773505,0.9441797140912185
0.05855332809671801,0.9441797140912185
0.05855332809671801,0.944860449285228
0.058587479935794544,0.944860449285228
0.058587479935794544,0.9452008168822328
0.05928759263686349,0.9452008168822328
0.05928759263686349,0.9455411844792376
0.060602438441310066,0.9455411844792376
0.060602438441310066,0.9458815520762424
0.06248078959051945,0.9458815520762424
0.06248078959051945,0.9462219196732471
0.06352242068235374,0.9462219196732471
0.06352242068235374,0.9465622872702518
0.06369317987773641,0.9465622872702518
0.06369317987773641,0.9469026548672567
0.06604965677401728,0.9469026548672567
0.06604965677401728,0.9472430224642614
0.06744988217615519,0.9472430224642614
0.06744988217615519,0.9475833900612661
0.06782555240599707,0.9475833900612661
0.06782555240599707,0.947923757658271
0.06813291895768588,0.947923757658271
0.06813291895768588,0.9482641252552757
0.06833782999214508,0.9482641252552757
0.06833782999214508,0.9486044928522804
0.06835490591168335,0.9486044928522804
0.06835490591168335,0.9489448604492853
0.06903794269321403,0.9489448604492853
0.06903794269321403,0.94928522804629
0.0691574741299819,0.94928522804629
0.0691574741299819,0.9496255956432947
0.06953314435982377,0.9496255956432947
0.06953314435982377,0.9499659632402995
0.06996004234828046,0.9499659632402995
0.06996004234828046,0.9503063308373043
0.07100167344011475,0.9503063308373043
0.07100167344011475,0.950646698434309
0.07113828079642089,0.950646698434309
0.07113828079642089,0.9509870660313138
0.07202622861241077,0.9509870660313138
0.07202622861241077,0.9513274336283186
0.07240189884225265,0.9513274336283186
0.07240189884225265,0.9516678012253234
0.07535603292237288,0.9516678012253234
0.07535603292237288,0.9520081688223281
0.07564632355452341,0.9520081688223281
0.07564632355452341,0.9523485364193329
0.07610737338205663,0.9523485364193329
0.07610737338205663,0.9526889040163377
0.07687578976127865,0.9526889040163377
0.07687578976127865,0.9530292716133424
0.07740514326696493,0.9530292716133424
0.07740514326696493,0.9533696392103471
0.0778320412554216,0.9533696392103471
0.0778320412554216,0.9540503744043567
0.07795157269218947,0.9540503744043567
0.07795157269218947,0.9543907420013614
0.07812233188757214,0.9543907420013614
0.07812233188757214,0.9547311095983663
0.0786687613127967,0.9547311095983663
0.0786687613127967,0.955071477195371
0.07868583723233497,0.955071477195371
0.07868583723233497,0.9554118447923757
0.07885659642771763,0.9554118447923757
0.07885659642771763,0.9557522123893806
0.0814179843584577,0.9557522123893806
0.0814179843584577,0.9560925799863853
0.08198148970322051,0.9560925799863853
0.08198148970322051,0.95643294758339
0.08298896895597828,0.95643294758339
0.08298896895597828,0.9567733151803949
0.08367200573750896,0.9567733151803949
0.08367200573750896,0.9571136827773996
0.08572111608210102,0.9571136827773996
0.08572111608210102,0.9574540503744043
0.08666029165670572,0.9574540503744043
0.08666029165670572,0.9577944179714091
0.08732625251869813,0.9577944179714091
0.08732625251869813,0.9581347855684139
0.08747993579454254,0.9581347855684139
0.08747993579454254,0.9584751531654186
0.08876062975991257,0.9584751531654186
0.08876062975991257,0.9588155207624234
0.08946074246098153,0.9588155207624234
0.08946074246098153,0.9591558883594282
0.09055360131143061,0.9591558883594282
0.09055360131143061,0.959496255956433
0.09120248625388477,0.959496255956433
0.09120248625388477,0.9601769911504425
0.09226119326525734,0.9601769911504425
0.09226119326525734,0.9605173587474473
0.09258563573648441,0.9605173587474473
0.09258563573648441,0.960857726344452
0.09292715412724975,0.960857726344452
0.09292715412724975,0.9611980939414567
0.09374679826508657,0.9611980939414567
0.09374679826508657,0.9615384615384616
0.09543731429937502,0.9615384615384616
0.09543731429937502,0.9618788291354663
0.09618865475905877,0.9618788291354663
0.09618865475905877,0.962219196732471
0.09666678050613026,0.962219196732471
0.09666678050613026,0.9625595643294759
0.09676923602335986,0.9625595643294759
0.09676923602335986,0.9628999319264806
0.0981011577473447,0.9628999319264806
0.0981011577473447,0.9632402995234853
0.09883542228749018,0.9632402995234853
0.09883542228749018,0.9635806671204902
0.09933062395409993,0.9635806671204902
0.09933062395409993,0.9639210347174949
0.10009904033332195,0.9639210347174949
0.10009904033332195,0.9642614023144996
0.10023564768962809,0.9642614023144996
0.10023564768962809,0.9646017699115044
0.10038933096547249,0.9646017699115044
0.10038933096547249,0.9649421375085092
0.10103821590792664,0.9649421375085092
0.10103821590792664,0.9652825051055139
0.10107236774700318,0.9652825051055139
0.10107236774700318,0.9656228727025187
0.10248966906867935,0.9656228727025187
0.10248966906867935,0.9659632402995235
0.10394112222943205,0.9659632402995235
0.10394112222943205,0.9663036078965282
0.10459000717188621,0.9663036078965282
0.10459000717188621,0.966643975493533
0.10462415901096274,0.966643975493533
0.10462415901096274,0.9669843430905378
0.10482907004542194,0.9669843430905378
0.10482907004542194,0.9673247106875426
0.10564871418325877,0.9673247106875426
0.10564871418325877,0.9676650782845473
0.10645128240155732,0.9676650782845473
0.10645128240155732,0.9680054458815521
0.10870530378060858,0.9680054458815521
0.10870530378060858,0.9683458134785569
0.10914927768860354,0.9683458134785569
0.10914927768860354,0.9686861810755616
0.1103616679758205,0.9686861810755616
0.1103616679758205,0.9690265486725663
0.11126669171134866,0.9690265486725663
0.11126669171134866,0.9693669162695712
0.1116594378607288,0.9693669162695712
0.1116594378607288,0.9697072838665759
0.1130596632628667,0.9697072838665759
0.1130596632628667,0.9700476514635806
0.11391345923978007,0.9700476514635806
0.11391345923978007,0.9703880190605855
0.11620163245790786,0.9703880190605855
0.11620163245790786,0.9707283866575902
0.11881424814726273,0.9707283866575902
0.11881424814726273,0.9710687542545949
0.11966804412417609,0.9710687542545949
0.11970219596325263,0.9710687542545949
0.12081213073323999,0.9710687542545949
0.12081213073323999,0.9714091218515998
0.1228270892387555,0.9714091218515998
0.1228270892387555,0.9717494894486045
0.12351012602028619,0.9717494894486045
0.12351012602028619,0.9720898570456092
0.12463713670981183,0.9720898570456092
0.12463713670981183,0.972430224642614
0.12513233837642157,0.972430224642614
0.12513233837642157,0.9727705922396188
0.12530309757180425,0.9727705922396188
0.12533724941088079,0.9727705922396188
0.1279840169393122,0.9727705922396188
0.1279840169393122,0.9731109598366235
0.12878658515761074,0.9731109598366235
0.12878658515761074,0.9734513274336283
0.13281650216864177,0.9734513274336283
0.13281650216864177,0.9737916950306331
0.13529251050169053,0.9737916950306331
0.13529251050169053,0.9741320626276379
0.13559987705337934,0.9741320626276379
0.13559987705337934,0.9744724302246426
0.13583893992691506,0.9744724302246426
0.1358730917659916,0.9744724302246426
0.13606092688091254,0.9744724302246426
0.13606092688091254,0.9748127978216474
0.13659028038659882,0.9748127978216474
0.13659028038659882,0.9751531654186522
0.13688057101874937,0.9751531654186522
0.13688057101874937,0.9754935330156569
0.13787097435196885,0.9754935330156569
0.1379051261910454,0.9754935330156569
0.13799050578873673,0.9754935330156569
0.13799050578873673,0.9758339006126616
0.13932242751272156,0.9758339006126616
0.13932242751272156,0.9761742682096665
0.1419521191216147,0.9761742682096665
0.14198627096069125,0.9761742682096665
0.1435743314777501,0.9761742682096665
0.1435743314777501,0.9765146358066712
0.1446501144086609,0.9765146358066712
0.1446501144086609,0.9768550034036759
0.14560636590280387,0.9768550034036759
0.14560636590280387,0.9771953710006808
0.14647723779925548,0.9771953710006808
0.14647723779925548,0.9775357385976855
0.14751886889108978,0.9775357385976855
0.14751886889108978,0.9778761061946902
0.14985826986783238,0.9778761061946902
0.14985826986783238,0.9782164737916951
0.15026809193675078,0.9782164737916951
0.15026809193675078,0.9785568413886998
0.150729141764284,0.9785568413886998
0.150729141764284,0.9788972089857045
0.1511389638332024,0.9788972089857045
0.1511389638332024,0.9792375765827094
0.1511560397527407,0.9792375765827094
0.1511560397527407,0.9795779441797141
0.15332468153410062,0.9795779441797141
0.15332468153410062,0.9799183117767188
0.15492981797069771,0.9799183117767188
0.15492981797069771,0.9802586793737236
0.15648372664868004,0.9802586793737236
0.15648372664868004,0.9805990469707284
0.15938663297018543,0.9805990469707284
0.15938663297018543,0.9809394145677331
0.1656364195211912,0.9809394145677331
0.1656364195211912,0.9812797821647379
0.16619992486595403,0.9812797821647379
0.16619992486595403,0.9816201497617427
0.17034937331375294,0.9816201497617427
0.17034937331375294,0.9819605173587475
0.17422560704893958,0.9819605173587475
0.17422560704893958,0.9823008849557522
0.17533554181892694,0.9823008849557522
0.17533554181892694,0.982641252552757
0.17719681704859808,0.982641252552757
0.17719681704859808,0.9829816201497618
0.17736757624398075,0.9829816201497618
0.17736757624398075,0.9833219877467665
0.17878487756565692,0.9833219877467665
0.17881902940473343,0.9833219877467665
0.17910932003688398,0.9833219877467665
0.17910932003688398,0.9836623553437712
0.18030463440456268,0.9836623553437712
0.18030463440456268,0.9840027229407761
0.18271233905945836,0.9840027229407761
0.1827464908985349,0.9840027229407761
0.19181380417335472,0.9840027229407761
0.19181380417335472,0.9843430905377808
0.19275297974795944,0.9843430905377808
0.19275297974795944,0.9846834581347855
0.1929237389433421,0.9846834581347855
0.1929237389433421,0.9850238257317904
0.19492162152931936,0.9850238257317904
0.1949557733683959,0.9850238257317904
0.2002493084252587,0.9850238257317904
0.2002493084252587,0.9853641933287951
0.2018544448618558,0.9853641933287951
0.20188859670093234,0.9853641933287951
0.20422799767767494,0.9853641933287951
0.20422799767767494,0.9857045609257998
0.20603804514873125,0.9857045609257998
0.20603804514873125,0.9860449285228047
0.20731873911410129,0.9860449285228047
0.20731873911410129,0.9863852961198094
0.2076261056657901,0.9863852961198094
0.2076261056657901,0.9867256637168141
0.20972644376899696,0.9867256637168141
0.20972644376899696,0.9870660313138189
0.22813428503124894,0.9870660313138189
0.22813428503124894,0.9874063989108237
0.22922714388169804,0.9874063989108237
0.22922714388169804,0.9877467665078284
0.23134455790444317,0.9877467665078284
0.23134455790444317,0.9880871341048332
0.23213005020320343,0.9880871341048332
0.23213005020320343,0.988427501701838
0.23400840135241283,0.988427501701838
0.23400840135241283,0.9887678692988427
0.23520371572009152,0.9887678692988427
0.23520371572009152,0.9891082368958475
0.24396366244322257,0.9891082368958475
0.2439978142822991,0.9891082368958475
0.2459273931901233,0.9891082368958475
0.2459273931901233,0.9894486044928523
0.2595369010621222,0.9894486044928523
0.2595369010621222,0.989788972089857
0.26121034117687236,0.989788972089857
0.26121034117687236,0.9901293396868618
0.26339605887777057,0.9901293396868618
0.2634302107168471,0.9901293396868618
0.2704142618079984,0.9901293396868618
0.2704142618079984,0.9904697072838666
0.27847409583006044,0.9904697072838666
0.278508247669137,0.9904697072838666
0.27883269014036405,0.9904697072838666
0.27883269014036405,0.9908100748808714
0.282538164680168,0.9908100748808714
0.282538164680168,0.9911504424778761
0.28631194289812506,0.9911504424778761
0.2863460947372016,0.9911504424778761
0.28948806393224275,0.9911504424778761
0.28948806393224275,0.9914908100748808
0.2950548137017178,0.9914908100748808
0.2950548137017178,0.9918311776718857
0.29525972473617706,0.9918311776718857
0.29525972473617706,0.9921715452688904
0.29749667019569004,0.9921715452688904
0.29749667019569004,0.9925119128658951
0.29778696082784056,0.9925119128658951
0.29782111266691713,0.9925119128658951
0.29814555513814417,0.9925119128658951
0.2981626310576825,0.9928522804629
0.2981626310576825,0.9931926480599047
0.30612000956251495,0.9931926480599047
0.30615416140159146,0.9931926480599047
0.30658105939004815,0.9931926480599047
0.30658105939004815,0.9935330156569094
0.30762269048188245,0.9935330156569094
0.30765684232095897,0.9935330156569094
0.3080154366312626,0.9935330156569094
0.3080154366312626,0.9938733832539143
0.3195075304805164,0.9938733832539143
0.3195416823195929,0.9938733832539143
0.3285236159967214,0.9938733832539143
0.32855776783579793,0.9938733832539143
0.33047027082408387,0.9938733832539143
0.33050442266316044,0.9938733832539143
0.3480413920289608,0.9938733832539143
0.3480413920289608,0.994213750850919
0.348502441856494,0.994213750850919
0.3485365936955705,0.994213750850919
0.3559133909361019,0.994213750850919
0.3559475427751784,0.994213750850919
0.3560158464533315,0.994213750850919
0.356049998292408,0.994213750850919
0.3589187527748369,0.994213750850919
0.3589187527748369,0.9945541184479237
0.3628462142686384,0.9945541184479237
0.3628803661077149,0.9945541184479237
0.3696765820839452,0.9945541184479237
0.36971073392302173,0.9945541184479237
0.3778388716232369,0.9945541184479237
0.37787302346231344,0.9945541184479237
0.37797547897954303,0.9945541184479237
0.3780096308186196,0.9945541184479237
0.38016119668044124,0.9945541184479237
0.38016119668044124,0.9948944860449285
0.381937092312421,0.9948944860449285
0.3819712441514976,0.9948944860449285
0.38571087053037806,0.9948944860449285
0.38574502236945457,0.9948944860449285
0.3858645538062225,0.9948944860449285
0.3858645538062225,0.9952348536419333
0.3880844233461972,0.9952348536419333
0.3881185751852737,0.9952348536419333
0.3929510604146033,0.9952348536419333
0.3929852122536799,0.9952348536419333
0.4023086643215737,0.9952348536419333
0.40234281616065026,0.9952348536419333
0.42478057443393324,0.9952348536419333
0.4248147262730098,0.9952348536419333
0.44303473242034086,0.9952348536419333
0.4430688842594174,0.9952348536419333
0.444964311328165,0.9952348536419333
0.44499846316724156,0.9952348536419333
0.44832826747720367,0.9952348536419333
0.4483624193162802,0.9952348536419333
0.4483965711553567,0.9952348536419333
0.4483965711553567,0.995575221238938
0.45186298282162496,0.995575221238938
0.45189713466070147,0.995575221238938
0.45206789385608415,0.995575221238938
0.45210204569516066,0.995575221238938
0.45903486902769713,0.995575221238938
0.4590690208667737,0.995575221238938
0.46282572316519244,0.995575221238938
0.46282572316519244,0.9959155888359428
0.4628427990847307,0.9959155888359428
0.46287695092380726,0.9959155888359428
0.4632013933950343,0.9959155888359428
0.4632013933950343,0.9962559564329476
0.4679997267852874,0.9962559564329476
0.4680338786243639,0.9962559564329476
0.46844370069328234,0.9962559564329476
0.46844370069328234,0.9965963240299524
0.4724053140261603,0.9965963240299524
0.4724053140261603,0.9969366916269571
0.47416413373860183,0.9969366916269571
0.47419828557767835,0.9969366916269571
0.47684505310610975,0.9969366916269571
0.4768792049451863,0.9969366916269571
0.48857620982889927,0.9969366916269571
0.48857620982889927,0.9972770592239619
0.4906936238516444,0.9972770592239619
0.49072777569072096,0.9972770592239619
0.4953211980465148,0.9972770592239619
0.4953553498855913,0.9972770592239619
0.4971824732761859,0.9972770592239619
0.49721662511526243,0.9972770592239619
0.4990779003449336,0.9972770592239619
0.4991120521840101,0.9972770592239619
0.5051056999419419,0.9972770592239619
0.5051398517810184,0.9972770592239619
0.5068645196543834,0.9972770592239619
0.5068645196543834,0.9976174268209667
0.508503807930057,0.9976174268209667
0.5085379597691335,0.9976174268209667
0.5086916430449779,0.9976174268209667
0.5087257948840546,0.9976174268209667
0.5135753560329224,0.9976174268209667
0.5135753560329224,0.9979577944179714
0.5167002493084253,0.9979577944179714
0.5167344011475018,0.9979577944179714
0.520644786721765,0.9979577944179714
0.5206789385608415,0.9979577944179714
0.5207643181585329,0.9979577944179714
0.5207984699976094,0.9979577944179714
0.5251016017212526,0.9979577944179714
0.5251357535603293,0.9979577944179714
0.5266896622383115,0.9979577944179714
0.5267238140773881,0.9979577944179714
0.5293535056862813,0.9979577944179714
0.5293876575253578,0.9979577944179714
0.531385540111335,0.9979577944179714
0.531385540111335,0.9982981620149761
0.5330760561456235,0.9982981620149761
0.5331102079847,0.9982981620149761
0.5378743895358765,0.9982981620149761
0.537908541374953,0.9982981620149761
0.5456610088453263,0.9982981620149761
0.5456951606844028,0.9982981620149761
0.5560943956832075,0.9982981620149761
0.556128547522284,0.9982981620149761
0.5863870769440934,0.9982981620149761
0.5863870769440934,0.998638529611981
0.5868481267716267,0.998638529611981
0.5868822786107032,0.998638529611981
0.5896144257368259,0.998638529611981
0.5896485775759025,0.998638529611981
0.5909804992998873,0.998638529611981
0.5910146511389638,0.998638529611981
0.5967009323452068,0.998638529611981
0.5967009323452068,0.9989788972089857
0.599911205218401,0.9989788972089857
0.599911205218401,0.9993192648059904
0.6035654519995902,0.9993192648059904
0.6035996038386667,0.9993192648059904
0.6112154639527339,0.9993192648059904
0.6112496157918104,0.9993192648059904
0.634489942283392,0.9993192648059904
0.634489942283392,0.9996596324029953
0.6372050134899765,0.9996596324029953
0.637239165329053,0.9996596324029953
0.637939278030122,0.9996596324029953
0.6379734298691985,0.9996596324029953
0.6540418701547078,0.9996596324029953
0.6540760219937843,0.9996596324029953
0.6654144325671938,0.9996596324029953
0.6654485844062703,0.9996596324029953
0.6746183531983198,0.9996596324029953
0.6746525050373963,0.9996596324029953
0.6880058741163212,0.9996596324029953
0.6880400259553977,0.9996596324029953
0.6938629145179468,0.9996596324029953
0.6938970663570233,0.9996596324029953
0.7093678494586934,0.9996596324029953
0.7094020012977699,0.9996596324029953
0.7208428673884089,0.9996596324029953
0.7208770192274854,0.9996596324029953
0.7285611830197056,0.9996596324029953
0.7285953348587821,0.9996596324029953
0.7339400976742597,0.9996596324029953
0.7339742495133363,0.9996596324029953
0.737150370547454,0.9996596324029953
0.7371845223865305,0.9996596324029953
0.7494962603736212,0.9996596324029953
0.7495304122126977,0.9996596324029953
0.7736586865202691,0.9996596324029953
0.7736928383593457,0.9996596324029953
0.7751613674396366,0.9996596324029953
0.7751955192787131,0.9996596324029953
0.7789863734162085,0.9996596324029953
0.779020525255285,0.9996596324029953
0.8007240189884225,0.9996596324029953
0.8007581708274991,0.9996596324029953
0.8176633311703835,0.9996596324029953
0.8176633311703835,1.0
0.8386325603633755,1.0
0.8386667122024521,1.0
0.8389228509955261,1.0
0.8389570028346026,1.0
0.8455483077763738,1.0
0.8455824596154503,1.0
0.8552474300741095,1.0
0.855281581913186,1.0
0.862692530992794,1.0
0.8627266828318705,1.0
0.8683958881185752,1.0
0.8684300399576517,1.0
0.8719135275434582,1.0
0.8719476793825347,1.0
0.8777364161060073,1.0
0.8777705679450838,1.0
0.8781803900140023,1.0
0.8782145418530788,1.0
0.882705508691643,1.0
0.8827396605307196,1.0
0.8834739250708651,1.0
0.8835080769099416,1.0
0.8950684744373485,1.0
0.895102626276425,1.0
0.9081657047231994,1.0
0.9081998565622759,1.0
0.921501997882586,1.0
0.9215361497216625,1.0
0.9334209897202964,1.0
0.9334551415593729,1.0
0.9476964584542877,1.0
0.9477306102933643,1.0
0.9654724906936238,1.0
0.9655066425327004,1.0
1.0,1.0
