fpr,tpr
0.0,0.0
0.0,0.0006405563689604685
0.0,0.0008235724743777453
0.0,0.0010980966325036604
0.0,0.002013177159590044
0.0,0.0021961932650073207
0.0,0.0026537335285505125
0.0,0.0028367496339677892
0.0,0.003294289897510981
0.0,0.003477306002928258
0.0,0.004117862371888726
0.0,0.004300878477306003
5.037732617303604e-06,0.004300878477306003
5.037732617303604e-06,0.006039531478770132
1.0075465234607208e-05,0.006039531478770132
1.0075465234607208e-05,0.012445095168374817
1.0075465234607208e-05,0.012628111273792094
1.0075465234607208e-05,0.01281112737920937
1.0075465234607208e-05,0.012994143484626648
1.0075465234607208e-05,0.014092240117130308
1.5113197851910811e-05,0.014092240117130308
1.5113197851910811e-05,0.016471449487554905
2.0150930469214415e-05,0.016471449487554905
2.0150930469214415e-05,0.01903367496339678
2.518866308651802e-05,0.01903367496339678
2.518866308651802e-05,0.020223279648609076
3.0226395703821623e-05,0.020223279648609076
3.0226395703821623e-05,0.0212298682284041
3.526412832112523e-05,0.0212298682284041
3.526412832112523e-05,0.022693997071742314
3.526412832112523e-05,0.02287701317715959
3.526412832112523e-05,0.023060029282576867
4.030186093842883e-05,0.023060029282576867
4.030186093842883e-05,0.02955710102489019
4.533959355573244e-05,0.02955710102489019
4.533959355573244e-05,0.03678623718887262
5.037732617303604e-05,0.03678623718887262
5.037732617303604e-05,0.03834187408491947
5.037732617303604e-05,0.03852489019033675
5.037732617303604e-05,0.03916544655929722
5.5415058790339646e-05,0.03916544655929722
5.5415058790339646e-05,0.04566251830161054
6.0452791407643246e-05,0.04566251830161054
6.0452791407643246e-05,0.05206808199121523
6.549052402494685e-05,0.05206808199121523
6.549052402494685e-05,0.05801610541727672
7.052825664225046e-05,0.05801610541727672
7.052825664225046e-05,0.058748169838945825
7.052825664225046e-05,0.058931185944363106
7.052825664225046e-05,0.07027818448023426
7.052825664225046e-05,0.07046120058565154
7.052825664225046e-05,0.07805636896046853
7.556598925955406e-05,0.07805636896046853
7.556598925955406e-05,0.07952049780380674
8.060372187685766e-05,0.07952049780380674
8.060372187685766e-05,0.08199121522693997
8.060372187685766e-05,0.08217423133235725
8.060372187685766e-05,0.08263177159590043
8.564145449416126e-05,0.08263177159590043
8.564145449416126e-05,0.08318081991215227
9.067918711146488e-05,0.08318081991215227
9.067918711146488e-05,0.08647510980966325
9.571691972876848e-05,0.08647510980966325
9.571691972876848e-05,0.08766471449487555
9.571691972876848e-05,0.08784773060029283
9.571691972876848e-05,0.08830527086383602
0.00010075465234607208,0.08830527086383602
0.00010075465234607208,0.09013543191800878
0.00010579238496337569,0.09013543191800878
0.00010579238496337569,0.10111639824304539
0.00011083011758067929,0.10111639824304539
0.00011083011758067929,0.11264641288433382
0.00011586785019798289,0.11264641288433382
0.00011586785019798289,0.11795387994143484
0.00012090558281528649,0.11795387994143484
0.00012090558281528649,0.11850292825768667
0.00012090558281528649,0.11868594436310395
0.00012090558281528649,0.13360175695461202
0.0001259433154325901,0.13360175695461202
0.0001259433154325901,0.14485724743777453
0.0001259433154325901,0.1450402635431918
0.0001259433154325901,0.14723645680819913
0.0001309810480498937,0.14723645680819913
0.0001309810480498937,0.14842606149341142
0.00013601878066719732,0.14842606149341142
0.00013601878066719732,0.1600475841874085
0.00013601878066719732,0.16023060029282576
0.00013601878066719732,0.16206076134699854
0.00013601878066719732,0.1622437774524158
0.00013601878066719732,0.16260980966325037
0.00014105651328450092,0.16260980966325037
0.00014105651328450092,0.16691068814055637
0.00014609424590180452,0.16691068814055637
0.00014609424590180452,0.17230966325036604
0.00015113197851910812,0.17230966325036604
0.00015113197851910812,0.18118594436310395
0.00015113197851910812,0.18136896046852122
0.00015113197851910812,0.18374816983894582
0.00015616971113641172,0.18374816983894582
0.00015616971113641172,0.19262445095168373
0.00016624517637101892,0.19262445095168373
0.00016624517637101892,0.19408857979502195
0.00016624517637101892,0.19427159590043924
0.00016624517637101892,0.19646778916544655
0.00017128290898832252,0.19646778916544655
0.00017128290898832252,0.20067715959004392
0.00017632064160562615,0.20067715959004392
0.00017632064160562615,0.2066251830161054
0.00017632064160562615,0.2068081991215227
0.00017632064160562615,0.21010248901903367
0.00018135837422292975,0.21010248901903367
0.00018135837422292975,0.21220717423133237
0.00018639610684023335,0.21220717423133237
0.00018639610684023335,0.21550146412884333
0.00019143383945753695,0.21550146412884333
0.00019143383945753695,0.23362005856515372
0.00019647157207484055,0.23362005856515372
0.00019647157207484055,0.2342606149341142
0.00019647157207484055,0.23444363103953147
0.00019647157207484055,0.23728038067349927
0.00020150930469214415,0.23728038067349927
0.00020150930469214415,0.23965959004392387
0.00020150930469214415,0.23984260614934114
0.00020150930469214415,0.24030014641288433
0.00020654703730944775,0.24030014641288433
0.00020654703730944775,0.24231332357247437
0.00021158476992675138,0.24231332357247437
0.00021158476992675138,0.24350292825768668
0.00021662250254405498,0.24350292825768668
0.00021662250254405498,0.24359443631039532
0.00022166023516135858,0.24359443631039532
0.00022166023516135858,0.24615666178623719
0.00022669796777866218,0.24615666178623719
0.00022669796777866218,0.2523792093704246
0.00023173570039596578,0.2523792093704246
0.00023173570039596578,0.2572291361639824
0.00023173570039596578,0.25741215226939973
0.00023173570039596578,0.2619875549048316
0.00023677343301326938,0.2619875549048316
0.00023677343301326938,0.26299414348462663
0.00024181116563057298,0.26299414348462663
0.00024181116563057298,0.2633601756954612
0.0002468488982478766,0.2633601756954612
0.0002468488982478766,0.26418374816983897
0.0002518866308651802,0.26418374816983897
0.0002518866308651802,0.26464128843338214
0.0002518866308651802,0.2648243045387994
0.0002518866308651802,0.26912518301610544
0.0002569243634824838,0.26912518301610544
0.0002569243634824838,0.27736090775988287
0.0002619620960997874,0.27736090775988287
0.0002619620960997874,0.27781844802342603
0.0002619620960997874,0.27800146412884336
0.0002619620960997874,0.2800146412884334
0.000266999828717091,0.2800146412884334
0.000266999828717091,0.28138726207906295
0.00027203756133439464,0.28138726207906295
0.00027203756133439464,0.2850475841874085
0.0002770752939516982,0.2850475841874085
0.0002770752939516982,0.28550512445095166
0.00028211302656900184,0.28550512445095166
0.00028211302656900184,0.287701317715959
0.0002871507591863054,0.287701317715959
0.0002871507591863054,0.2894399707174231
0.00029218849180360904,0.2894399707174231
0.00029218849180360904,0.2948389458272328
0.0002972262244209126,0.2948389458272328
0.0002972262244209126,0.3046303074670571
0.0002972262244209126,0.30481332357247437
0.0002972262244209126,0.30856515373352855
0.00030226395703821624,0.30856515373352855
0.00030226395703821624,0.30975475841874084
0.00030226395703821624,0.3099377745241581
0.00030226395703821624,0.3108528550512445
0.0003073016896555198,0.3108528550512445
0.0003073016896555198,0.3150622254758419
0.0003073016896555198,0.31524524158125916
0.0003073016896555198,0.3196376281112738
0.00031233942227282344,0.3196376281112738
0.00031233942227282344,0.3257686676427526
0.00031737715489012707,0.3257686676427526
0.00031737715489012707,0.32668374816983897
0.00032241488750743065,0.32668374816983897
0.00032241488750743065,0.3279648609077599
0.00032745262012473427,0.3279648609077599
0.00032745262012473427,0.3368411420204978
0.00033249035274203785,0.3368411420204978
0.00033249035274203785,0.3380307467057101
0.0003375280853593415,0.3380307467057101
0.0003375280853593415,0.34864568081991215
0.00034256581797664505,0.34864568081991215
0.00034256581797664505,0.3494692532942899
0.0003476035505939487,0.3494692532942899
0.0003476035505939487,0.3512994143484627
0.0003526412832112523,0.3512994143484627
0.0003526412832112523,0.35340409956076135
0.0003576790158285559,0.35340409956076135
0.0003576790158285559,0.3552342606149341
0.0003627167484458595,0.3552342606149341
0.0003627167484458595,0.3564238653001464
0.0003677544810631631,0.3564238653001464
0.0003677544810631631,0.3566983894582723
0.0003727922136804667,0.3566983894582723
0.0003727922136804667,0.3579795021961933
0.0003778299462977703,0.3579795021961933
0.0003778299462977703,0.36191434846266474
0.00038790541153237753,0.36191434846266474
0.00038790541153237753,0.3652086383601757
0.0003929431441496811,0.3652086383601757
0.0003929431441496811,0.3687774524158126
0.00039798087676698473,0.3687774524158126
0.00039798087676698473,0.37015007320644217
0.0004030186093842883,0.37015007320644217
0.0004030186093842883,0.37271229868228406
0.0004130940746188955,0.37271229868228406
0.0004130940746188955,0.3730783308931186
0.0004130940746188955,0.37326134699853586
0.0004130940746188955,0.3733528550512445
0.00041813180723619913,0.3733528550512445
0.00041813180723619913,0.37445095168374815
0.00042316953985350276,0.37445095168374815
0.00042316953985350276,0.3759150805270864
0.00042820727247080634,0.3759150805270864
0.00042820727247080634,0.379300878477306
0.00043324500508810996,0.379300878477306
0.00043324500508810996,0.3793923865300146
0.00043828273770541354,0.3793923865300146
0.00043828273770541354,0.38012445095168373
0.00044332047032271716,0.38012445095168373
0.00044332047032271716,0.3818631039531479
0.00044332047032271716,0.38204612005856514
0.00044332047032271716,0.3850658857979502
0.00044835820294002074,0.3850658857979502
0.00044835820294002074,0.3857979502196193
0.00045843366817462794,0.3857979502196193
0.00045843366817462794,0.3859809663250366
0.00046347140079193157,0.3859809663250366
0.00046347140079193157,0.38680453879941434
0.0004685091334092352,0.38680453879941434
0.0004685091334092352,0.3873535871156662
0.00047354686602653877,0.3873535871156662
0.00047354686602653877,0.38771961932650073
0.0004785845986438424,0.38771961932650073
0.0004785845986438424,0.3911054172767203
0.00048362233126114597,0.3911054172767203
0.00048362233126114597,0.3919289897510981
0.0004886600638784495,0.3919289897510981
0.0004886600638784495,0.39375915080527085
0.0004936977964957532,0.39375915080527085
0.0004936977964957532,0.39723645680819913
0.0004987355291130568,0.39723645680819913
0.0004987355291130568,0.40208638360175697
0.0005037732617303604,0.40208638360175697
0.0005037732617303604,0.403092972181552
0.000508810994347664,0.403092972181552
0.000508810994347664,0.4065702781844802
0.0005138487269649676,0.4065702781844802
0.0005138487269649676,0.4088579795021962
0.0005188864595822712,0.4088579795021962
0.0005188864595822712,0.4090409956076135
0.0005239241921995748,0.4090409956076135
0.0005239241921995748,0.4095900439238653
0.0005289619248168785,0.4095900439238653
0.0005289619248168785,0.4107796486090776
0.000533999657434182,0.4107796486090776
0.000533999657434182,0.4113286969253294
0.0005390373900514856,0.4113286969253294
0.0005390373900514856,0.41206076134699854
0.0005440751226687893,0.41206076134699854
0.0005440751226687893,0.41233528550512444
0.0005491128552860929,0.41233528550512444
0.0005491128552860929,0.4148060029282577
0.0005491128552860929,0.41498901903367497
0.0005491128552860929,0.4153550512445095
0.0005491128552860929,0.4155380673499268
0.0005491128552860929,0.4167276720351391
0.0005541505879033964,0.4167276720351391
0.0005541505879033964,0.41709370424597364
0.0005591883205207,0.41709370424597364
0.0005591883205207,0.4176427525622255
0.0005642260531380037,0.4176427525622255
0.0005642260531380037,0.4193814055636896
0.0005692637857553073,0.4193814055636896
0.0005692637857553073,0.41974743777452417
0.0005743015183726108,0.41974743777452417
0.0005743015183726108,0.42002196193265007
0.0005793392509899145,0.42002196193265007
0.0005793392509899145,0.4204795021961933
0.0005843769836072181,0.4204795021961933
0.0005843769836072181,0.4217606149341142
0.0005894147162245217,0.4217606149341142
0.0005894147162245217,0.42185212298682284
0.0005944524488418252,0.42185212298682284
0.0005944524488418252,0.42313323572474376
0.0005994901814591289,0.42313323572474376
0.0005994901814591289,0.424597364568082
0.0006045279140764325,0.424597364568082
0.0006045279140764325,0.4248718887262079
0.0006095656466937361,0.4248718887262079
0.0006095656466937361,0.42734260614934116
0.0006146033793110396,0.42734260614934116
0.0006146033793110396,0.42761713030746706
0.0006196411119283433,0.42761713030746706
0.0006196411119283433,0.4320095168374817
0.0006246788445456469,0.4320095168374817
0.0006246788445456469,0.432192532942899
0.0006297165771629505,0.432192532942899
0.0006297165771629505,0.4375
0.0006347543097802541,0.4375
0.0006347543097802541,0.4389641288433382
0.0006397920423975577,0.4389641288433382
0.0006397920423975577,0.4432650073206442
0.0006448297750148613,0.4432650073206442
0.0006448297750148613,0.44491215226939973
0.0006498675076321649,0.44491215226939973
0.0006498675076321649,0.44555270863836016
0.0006549052402494685,0.44555270863836016
0.0006549052402494685,0.44683382137628114
0.0006599429728667721,0.44683382137628114
0.0006599429728667721,0.4475658857979502
0.0006649807054840757,0.4475658857979502
0.0006649807054840757,0.4485724743777452
0.0006700184381013794,0.4485724743777452
0.0006700184381013794,0.44875549048316254
0.000675056170718683,0.44875549048316254
0.000675056170718683,0.44903001464128844
0.0006800939033359865,0.44903001464128844
0.0006800939033359865,0.449396046852123
0.0006851316359532901,0.449396046852123
0.0006851316359532901,0.45095168374816985
0.0006901693685705938,0.45095168374816985
0.0006901693685705938,0.45150073206442165
0.0006952071011878973,0.45150073206442165
0.0006952071011878973,0.4542459736456808
0.0007002448338052009,0.4542459736456808
0.0007002448338052009,0.4544289897510981
0.0007002448338052009,0.4546120058565154
0.0007002448338052009,0.4554355783308931
0.0007103202990398082,0.4554355783308931
0.0007103202990398082,0.4556185944363104
0.0007153580316571118,0.4556185944363104
0.0007153580316571118,0.4577232796486091
0.0007203957642744153,0.4577232796486091
0.0007203957642744153,0.457997803806735
0.000725433496891719,0.457997803806735
0.000725433496891719,0.4601939970717423
0.0007304712295090226,0.4601939970717423
0.0007304712295090226,0.46284773060029283
0.0007355089621263262,0.46284773060029283
0.0007355089621263262,0.4658674963396779
0.0007405466947436298,0.4658674963396779
0.0007405466947436298,0.4659590043923865
0.0007455844273609334,0.4659590043923865
0.0007455844273609334,0.4662335285505124
0.000750622159978237,0.4662335285505124
0.000750622159978237,0.466599560761347
0.0007556598925955406,0.46669106881405564
0.0007556598925955406,0.4667825768667643
0.0007606976252128442,0.4667825768667643
0.0007606976252128442,0.46916178623718885
0.0007657353578301478,0.46916178623718885
0.0007657353578301478,0.47053440702781846
0.0007707730904474514,0.47053440702781846
0.0007707730904474514,0.47172401171303074
0.0007758108230647551,0.47172401171303074
0.0007758108230647551,0.47300512445095166
0.0007808485556820586,0.47300512445095166
0.0007808485556820586,0.474194729136164
0.0007858862882993622,0.474194729136164
0.0007858862882993622,0.47492679355783307
0.0007909240209166658,0.47492679355783307
0.0007909240209166658,0.4750183016105417
0.0007959617535339695,0.4750183016105417
0.0007959617535339695,0.4751098096632504
0.000800999486151273,0.4751098096632504
0.000800999486151273,0.4759333821376281
0.0008060372187685766,0.4759333821376281
0.0008060372187685766,0.4761163982430454
0.0008161126840031839,0.4761163982430454
0.0008161126840031839,0.47620790629575405
0.0008211504166204874,0.47620790629575405
0.0008211504166204874,0.47648243045387995
0.000826188149237791,0.47648243045387995
0.000826188149237791,0.4765739385065886
0.0008312258818550947,0.4765739385065886
0.0008312258818550947,0.48005124450951686
0.0008362636144723983,0.48005124450951686
0.0008362636144723983,0.48087481698389456
0.0008413013470897018,0.48087481698389456
0.0008413013470897018,0.48279648609077597
0.0008463390797070055,0.48279648609077597
0.0008463390797070055,0.4838945827232797
0.0008513768123243091,0.4838945827232797
0.0008513768123243091,0.48407759882869694
0.0008564145449416127,0.48407759882869694
0.0008564145449416127,0.48435212298682284
0.0008614522775589162,0.48435212298682284
0.0008614522775589162,0.4847181551976574
0.0008664900101762199,0.4847181551976574
0.0008664900101762199,0.488103953147877
0.0008715277427935235,0.488103953147877
0.0008715277427935235,0.4892935578330893
0.0008765654754108271,0.4892935578330893
0.0008765654754108271,0.49057467057101023
0.0008816032080281306,0.49057467057101023
0.0008816032080281306,0.49066617862371886
0.0008866409406454343,0.49066617862371886
0.0008866409406454343,0.4914897510980966
0.0008916786732627379,0.4914897510980966
0.0008916786732627379,0.4921303074670571
0.0008967164058800415,0.4921303074670571
0.0008967164058800415,0.4928623718887262
0.0009017541384973452,0.4928623718887262
0.0009017541384973452,0.49478404099560763
0.0009067918711146487,0.49478404099560763
0.0009067918711146487,0.49606515373352855
0.0009118296037319523,0.49606515373352855
0.0009118296037319523,0.4967972181551977
0.0009168673363492559,0.4967972181551977
0.0009168673363492559,0.49725475841874084
0.0009219050689665596,0.49725475841874084
0.0009219050689665596,0.4988103953147877
0.0009269428015838631,0.4988103953147877
0.0009269428015838631,0.4997254758418741
0.0009319805342011667,0.4997254758418741
0.0009319805342011667,0.5005490483162518
0.0009370182668184704,0.5005490483162518
0.0009370182668184704,0.5021046852122987
0.000942055999435774,0.5021046852122987
0.000942055999435774,0.5030197657393851
0.0009470937320530775,0.5030197657393851
0.0009470937320530775,0.503294289897511
0.0009521314646703811,0.503294289897511
0.0009521314646703811,0.5036603221083455
0.0009571691972876848,0.5036603221083455
0.0009571691972876848,0.5041178623718887
0.0009622069299049884,0.5041178623718887
0.0009622069299049884,0.5049414348462665
0.0009672446625222919,0.5049414348462665
0.0009672446625222919,0.5051244509516838
0.0009722823951395956,0.5051244509516838
0.0009722823951395956,0.5054904831625183
0.0009873955929915064,0.5054904831625183
0.0009873955929915064,0.5061310395314788
0.0009974710582261136,0.5061310395314788
0.0009974710582261136,0.5069546120058566
0.0010025087908434173,0.5069546120058566
0.0010025087908434173,0.5080527086383602
0.0010075465234607207,0.5080527086383602
0.0010075465234607207,0.5081442166910688
0.001017621988695328,0.5081442166910688
0.001017621988695328,0.5086932650073206
0.0010226597213126316,0.5086932650073206
0.0010226597213126316,0.509608345534407
0.0010276974539299352,0.509608345534407
0.0010276974539299352,0.5100658857979502
0.0010327351865472387,0.5100658857979502
0.0010327351865472387,0.5105234260614934
0.0010377729191645424,0.5105234260614934
0.0010377729191645424,0.5124450951683748
0.001042810651781846,0.5124450951683748
0.001042810651781846,0.5140922401171303
0.0010478483843991495,0.5140922401171303
0.0010478483843991495,0.5144582723279648
0.0010528861170164532,0.5144582723279648
0.0010528861170164532,0.5148243045387995
0.001057923849633757,0.5148243045387995
0.001057923849633757,0.5150073206442167
0.001067999314868364,0.5150073206442167
0.001067999314868364,0.515190336749634
0.0010730370474856677,0.515190336749634
0.0010730370474856677,0.5156478770131772
0.0010780747801029712,0.5156478770131772
0.0010780747801029712,0.5160139092240117
0.0010831125127202749,0.5160139092240117
0.0010831125127202749,0.5170204978038068
0.0010881502453375786,0.5170204978038068
0.0010881502453375786,0.5172950219619327
0.001093187977954882,0.5172950219619327
0.001093187977954882,0.5179355783308931
0.0011032634431894892,0.5179355783308931
0.0011032634431894892,0.5180270863836017
0.0011083011758067929,0.5180270863836017
0.0011083011758067929,0.5181185944363104
0.0011133389084240965,0.5181185944363104
0.0011133389084240965,0.5187591508052709
0.0011183766410414,0.5187591508052709
0.0011183766410414,0.5190336749633968
0.0011234143736587037,0.5190336749633968
0.0011234143736587037,0.5196742313323572
0.0011284521062760074,0.5196742313323572
0.0011284521062760074,0.5201317715959004
0.0011385275715106145,0.5201317715959004
0.0011385275715106145,0.5210468521229868
0.0011486030367452217,0.5210468521229868
0.0011486030367452217,0.52150439238653
0.0011536407693625253,0.52150439238653
0.0011536407693625253,0.5230600292825769
0.001158678501979829,0.5230600292825769
0.001158678501979829,0.5232430453879942
0.0011637162345971325,0.5232430453879942
0.0011637162345971325,0.5253477306002928
0.0011687539672144362,0.5253477306002928
0.0011687539672144362,0.5260797950219619
0.0011737916998317396,0.5260797950219619
0.0011737916998317396,0.5268118594436311
0.0011788294324490433,0.5268118594436311
0.0011788294324490433,0.527086383601757
0.001183867165066347,0.527086383601757
0.001183867165066347,0.5297401171303074
0.0011889048976836505,0.5297401171303074
0.0011889048976836505,0.5299231332357247
0.0011939426303009541,0.5299231332357247
0.0011939426303009541,0.5306551976573939
0.0011989803629182578,0.5306551976573939
0.0011989803629182578,0.531112737920937
0.0012040180955355613,0.531112737920937
0.0012040180955355613,0.5312957540263543
0.001209055828152865,0.5312957540263543
0.001209055828152865,0.531387262079063
0.0012140935607701687,0.531387262079063
0.0012140935607701687,0.532119326500732
0.0012241690260047758,0.532119326500732
0.0012241690260047758,0.5327598828696926
0.0012292067586220793,0.5327598828696926
0.0012292067586220793,0.5345900439238653
0.001234244491239383,0.5345900439238653
0.001234244491239383,0.5347730600292826
0.0012392822238566866,0.5347730600292826
0.0012392822238566866,0.5351390922401171
0.00124431995647399,0.5351390922401171
0.00124431995647399,0.535413616398243
0.0012493576890912938,0.535413616398243
0.0012493576890912938,0.5358711566617862
0.0012543954217085975,0.5358711566617862
0.0012543954217085975,0.5364202049780381
0.0012695086195605083,0.5364202049780381
0.0012695086195605083,0.536694729136164
0.0012745463521778118,0.536694729136164
0.0012745463521778118,0.5368777452415813
0.0012795840847951154,0.5368777452415813
0.0012795840847951154,0.5375183016105417
0.0012846218174124191,0.5375183016105417
0.0012846218174124191,0.5378843338213762
0.0012896595500297226,0.5378843338213762
0.0012896595500297226,0.5386163982430454
0.0012997350152643297,0.5386163982430454
0.0012997350152643297,0.5399890190336749
0.0013047727478816334,0.5399890190336749
0.0013047727478816334,0.5402635431918009
0.0013148482131162406,0.5402635431918009
0.0013148482131162406,0.5420937042459737
0.001324923678350848,0.5420937042459737
0.001324923678350848,0.5431002928257687
0.0013299614109681514,0.5431002928257687
0.0013299614109681514,0.5433748169838946
0.001334999143585455,0.5433748169838946
0.001334999143585455,0.5435578330893118
0.0013450746088200622,0.5435578330893118
0.0013450746088200622,0.5438323572474377
0.001350112341437366,0.5438323572474377
0.001350112341437366,0.5440153733528551
0.0013551500740546696,0.5440153733528551
0.0013551500740546696,0.5446559297218155
0.001360187806671973,0.5446559297218155
0.001360187806671973,0.5450219619326501
0.0013702632719065802,0.5450219619326501
0.0013702632719065802,0.5453879941434846
0.0013753010045238839,0.5453879941434846
0.0013753010045238839,0.5456625183016105
0.0013803387371411876,0.5456625183016105
0.0013803387371411876,0.5459370424597365
0.001385376469758491,0.5459370424597365
0.001385376469758491,0.5462115666178624
0.0013954519349930984,0.5462115666178624
0.0013954519349930984,0.5464860907759883
0.0014004896676104018,0.5464860907759883
0.0014004896676104018,0.5467606149341142
0.0014055274002277055,0.5467606149341142
0.0014055274002277055,0.5477672035139092
0.0014156028654623127,0.5477672035139092
0.0014156028654623127,0.5480417276720352
0.0014206405980796164,0.5480417276720352
0.0014206405980796164,0.5483162518301611
0.00142567833069692,0.5483162518301611
0.00142567833069692,0.548590775988287
0.0014307160633142235,0.548590775988287
0.0014307160633142235,0.5487737920937042
0.0014357537959315272,0.5487737920937042
0.0014357537959315272,0.5488653001464129
0.0014407915285488306,0.5488653001464129
0.0014407915285488306,0.5503294289897511
0.0014458292611661343,0.5503294289897511
0.0014458292611661343,0.5504209370424598
0.001450866993783438,0.5504209370424598
0.001450866993783438,0.5513360175695461
0.0014559047264007415,0.5513360175695461
0.0014559047264007415,0.5514275256222547
0.0014609424590180452,0.5514275256222547
0.0014609424590180452,0.553898243045388
0.0014659801916353488,0.553898243045388
0.0014659801916353488,0.5546303074670571
0.0014710179242526523,0.5546303074670571
0.0014710179242526523,0.5553623718887262
0.001476055656869956,0.5553623718887262
0.001476055656869956,0.5560944363103953
0.0014810933894872597,0.5560944363103953
0.0014810933894872597,0.5562774524158126
0.0014861311221045631,0.5562774524158126
0.0014861311221045631,0.5565519765739385
0.0014911688547218668,0.5565519765739385
0.0014911688547218668,0.556918008784773
0.0014962065873391703,0.556918008784773
0.0014962065873391703,0.5570095168374817
0.0015163575178083848,0.5570095168374817
0.0015163575178083848,0.5573755490483162
0.0015213952504256885,0.5573755490483162
0.0015213952504256885,0.5579245973645681
0.001526432983042992,0.5579245973645681
0.001526432983042992,0.5586566617862372
0.0015314707156602956,0.5586566617862372
0.0015314707156602956,0.5588396778916545
0.0015365084482775993,0.5588396778916545
0.0015365084482775993,0.5594802342606149
0.0015415461808949028,0.5594802342606149
0.0015415461808949028,0.5595717423133236
0.0015465839135122064,0.5595717423133236
0.0015465839135122064,0.5603038067349927
0.0015516216461295101,0.5603038067349927
0.0015516216461295101,0.5603953147877013
0.0015566593787468136,0.5603953147877013
0.0015566593787468136,0.5609443631039531
0.0015616971113641173,0.5609443631039531
0.0015616971113641173,0.5610358711566618
0.0015667348439814207,0.5610358711566618
0.0015667348439814207,0.5611273792093704
0.0015717725765987244,0.5611273792093704
0.0015717725765987244,0.5613103953147877
0.001576810309216028,0.5613103953147877
0.001576810309216028,0.5620424597364568
0.0015868857744506353,0.5620424597364568
0.0015868857744506353,0.5625
0.0015969612396852424,0.5625
0.0015969612396852424,0.5628660322108345
0.0016070367049198498,0.5628660322108345
0.0016070367049198498,0.5634150805270863
0.0016120744375371532,0.5634150805270863
0.0016120744375371532,0.5635065885797951
0.001617112170154457,0.5635065885797951
0.001617112170154457,0.563781112737921
0.001617112170154457,0.5639641288433382
0.001617112170154457,0.56451317715959
0.001627187635389064,0.56451317715959
0.001627187635389064,0.5652452415812591
0.0016322253680063677,0.5652452415812591
0.0016322253680063677,0.5653367496339677
0.0016423008332409749,0.5653367496339677
0.0016423008332409749,0.5654282576866764
0.0016473385658582786,0.5654282576866764
0.0016473385658582786,0.5668923865300146
0.0016624517637101894,0.5668923865300146
0.0016624517637101894,0.5682650073206442
0.0016674894963274929,0.5682650073206442
0.0016674894963274929,0.5686310395314788
0.0016725272289447965,0.5686310395314788
0.0016725272289447965,0.5694546120058566
0.0016775649615621002,0.5694546120058566
0.0016775649615621002,0.5695461200585652
0.0016826026941794037,0.5695461200585652
0.0016826026941794037,0.570095168374817
0.0016876404267967074,0.570095168374817
0.0016876404267967074,0.5707357247437774
0.001692678159414011,0.5707357247437774
0.001692678159414011,0.571101756954612
0.0016977158920313145,0.571101756954612
0.0016977158920313145,0.5719253294289898
0.0017027536246486182,0.5719253294289898
0.0017027536246486182,0.5722913616398243
0.0017077913572659217,0.5722913616398243
0.0017077913572659217,0.5732064421669106
0.0017128290898832253,0.5732064421669106
0.0017128290898832253,0.5732979502196194
0.0017279422877351362,0.5732979502196194
0.0017279422877351362,0.573389458272328
0.0017329800203524399,0.573389458272328
0.0017329800203524399,0.5741215226939971
0.0017380177529697433,0.5741215226939971
0.0017380177529697433,0.574396046852123
0.001743055485587047,0.574396046852123
0.001743055485587047,0.5750366032210834
0.0017480932182043507,0.5750366032210834
0.0017480932182043507,0.5753111273792094
0.0017531309508216541,0.5753111273792094
0.0017531309508216541,0.5754941434846267
0.0017581686834389578,0.5754941434846267
0.0017581686834389578,0.5759516837481699
0.0017632064160562613,0.5759516837481699
0.0017632064160562613,0.5761346998535871
0.001768244148673565,0.5761346998535871
0.001768244148673565,0.5771412884333821
0.0017732818812908687,0.5771412884333821
0.0017732818812908687,0.5772327964860908
0.0017783196139081721,0.5772327964860908
0.0017783196139081721,0.5774158125915081
0.0017833573465254758,0.5774158125915081
0.0017833573465254758,0.5775073206442167
0.0017883950791427795,0.5775073206442167
0.0017883950791427795,0.5784224011713031
0.0017984705443773866,0.5784224011713031
0.0017984705443773866,0.5786054172767203
0.0018035082769946903,0.5786054172767203
0.0018035082769946903,0.5794289897510981
0.0018085460096119938,0.5794289897510981
0.0018085460096119938,0.5808016105417276
0.0018135837422292975,0.5808016105417276
0.0018135837422292975,0.5814421669106882
0.0018186214748466011,0.5814421669106882
0.0018186214748466011,0.5816251830161054
0.0018236592074639046,0.5816251830161054
0.0018236592074639046,0.5818081991215227
0.0018286969400812083,0.5818081991215227
0.0018286969400812083,0.5821742313323572
0.0018337346726985118,0.5821742313323572
0.0018337346726985118,0.5823572474377745
0.0018387724053158154,0.5823572474377745
0.0018387724053158154,0.5833638360175696
0.0018488478705504226,0.5833638360175696
0.0018488478705504226,0.585285505124451
0.00185892333578503,0.585285505124451
0.00185892333578503,0.5853770131771596
0.0018639610684023334,0.5853770131771596
0.0018639610684023334,0.5854685212298683
0.001868998801019637,0.5854685212298683
0.001868998801019637,0.5863836017569546
0.0018790742662542442,0.5863836017569546
0.0018790742662542442,0.5867496339677891
0.0018891497314888516,0.5867496339677891
0.0018891497314888516,0.5868411420204978
0.001894187464106155,0.5868411420204978
0.001894187464106155,0.5874816983894583
0.0018992251967234587,0.5874816983894583
0.0018992251967234587,0.5886713030746705
0.0019042629293407622,0.5886713030746705
0.0019042629293407622,0.5891288433382138
0.001909300661958066,0.5891288433382138
0.001909300661958066,0.5896778916544656
0.0019143383945753696,0.5896778916544656
0.0019143383945753696,0.5897693997071742
0.001919376127192673,0.5897693997071742
0.001919376127192673,0.5898609077598829
0.0019244138598099767,0.5898609077598829
0.0019244138598099767,0.5901354319180088
0.0019294515924272804,0.5901354319180088
0.0019294515924272804,0.590318448023426
0.0019344893250445839,0.590318448023426
0.0019344893250445839,0.5907759882869692
0.0019395270576618876,0.5907759882869692
0.0019395270576618876,0.5911420204978038
0.0019445647902791912,0.5911420204978038
0.0019445647902791912,0.5917825768667643
0.001954640255513798,0.5917825768667643
0.001954640255513798,0.5919655929721815
0.0019647157207484055,0.5919655929721815
0.0019647157207484055,0.5920571010248902
0.001969753453365709,0.5920571010248902
0.001969753453365709,0.5926976573938506
0.001974791185983013,0.5926976573938506
0.001974791185983013,0.5929721815519766
0.0019798289186003164,0.5929721815519766
0.0019798289186003164,0.5939787701317716
0.00198486665121762,0.5939787701317716
0.00198486665121762,0.5953513909224012
0.0019899043838349237,0.5953513909224012
0.0019899043838349237,0.5954428989751098
0.001994942116452227,0.5954428989751098
0.001994942116452227,0.5963579795021962
0.0019999798490695306,0.5963579795021962
0.0019999798490695306,0.5964494875549048
0.0020050175816868345,0.5964494875549048
0.0020050175816868345,0.5969070278184481
0.002010055314304138,0.5969070278184481
0.002010055314304138,0.5972730600292826
0.0020150930469214415,0.5972730600292826
0.0020150930469214415,0.5975475841874085
0.0020201307795387454,0.5975475841874085
0.0020201307795387454,0.5978221083455344
0.002025168512156049,0.5978221083455344
0.002025168512156049,0.5980051244509517
0.002045319442625263,0.5980051244509517
0.002045319442625263,0.5981881405563689
0.002050357175242567,0.5981881405563689
0.002050357175242567,0.5984626647144948
0.0020553949078598705,0.5984626647144948
0.0020553949078598705,0.5985541727672035
0.0020654703730944774,0.5985541727672035
0.0020654703730944774,0.5987371888726208
0.0020705081057117813,0.5987371888726208
0.0020705081057117813,0.599194729136164
0.002075545838329085,0.599194729136164
0.002075545838329085,0.5995607613469985
0.002085621303563692,0.5995607613469985
0.002085621303563692,0.5996522693997072
0.002100734501415603,0.5996522693997072
0.002100734501415603,0.5999267935578331
0.0021057722340329064,0.5999267935578331
0.0021057722340329064,0.6010248901903368
0.002115847699267514,0.6010248901903368
0.002115847699267514,0.6016654465592972
0.0021208854318848173,0.6016654465592972
0.0021208854318848173,0.6017569546120058
0.0021259231645021207,0.6017569546120058
0.0021259231645021207,0.6023060029282576
0.0021309608971194246,0.6023060029282576
0.0021309608971194246,0.6024890190336749
0.002135998629736728,0.6024890190336749
0.002135998629736728,0.6033125915080527
0.0021410363623540316,0.6033125915080527
0.0021410363623540316,0.6035871156661786
0.0021460740949713355,0.6035871156661786
0.0021460740949713355,0.6037701317715959
0.002151111827588639,0.6037701317715959
0.002151111827588639,0.6039531478770132
0.0021561495602059424,0.6039531478770132
0.0021561495602059424,0.6046852122986823
0.0021662250254405498,0.6046852122986823
0.0021662250254405498,0.6052342606149341
0.002176300490675157,0.6052342606149341
0.002176300490675157,0.60550878477306
0.0021813382232924606,0.60550878477306
0.0021813382232924606,0.6063323572474377
0.0021964514211443714,0.6063323572474377
0.0021964514211443714,0.6065153733528551
0.002201489153761675,0.6065153733528551
0.002201489153761675,0.6066983894582724
0.0022115646189962822,0.6066983894582724
0.0022115646189962822,0.6068814055636896
0.0022166023516135857,0.6068814055636896
0.0022166023516135857,0.6075219619326501
0.002221640084230889,0.6075219619326501
0.002221640084230889,0.6077049780380673
0.0022317155494654965,0.6077049780380673
0.0022317155494654965,0.6078879941434846
0.002241791014700104,0.6078879941434846
0.002241791014700104,0.6085285505124451
0.002251866479934711,0.6085285505124451
0.002251866479934711,0.6090775988286969
0.0022569042125520147,0.6090775988286969
0.0022569042125520147,0.6091691068814056
0.0022669796777866217,0.6091691068814056
0.0022669796777866217,0.6094436310395315
0.0022720174104039256,0.6094436310395315
0.0022720174104039256,0.6095351390922401
0.002277055143021229,0.6095351390922401
0.002277055143021229,0.6096266471449487
0.0022820928756385325,0.6096266471449487
0.0022820928756385325,0.6099011713030746
0.0022871306082558364,0.6099011713030746
0.0022871306082558364,0.6099926793557833
0.00229216834087314,0.6099926793557833
0.00229216834087314,0.6100841874084919
0.0022972060734904433,0.6100841874084919
0.0022972060734904433,0.6104502196193266
0.0023022438061077472,0.6104502196193266
0.0023022438061077472,0.6105417276720352
0.0023072815387250507,0.6105417276720352
0.0023072815387250507,0.6109992679355783
0.002312319271342354,0.6109992679355783
0.002312319271342354,0.6112737920937042
0.002327432469194265,0.6112737920937042
0.002327432469194265,0.6115483162518301
0.002342545667046176,0.6115483162518301
0.002342545667046176,0.6124633967789166
0.0023475833996634793,0.6124633967789166
0.0023475833996634793,0.6125549048316252
0.002352621132280783,0.6125549048316252
0.002352621132280783,0.613103953147877
0.0023576588648980866,0.613103953147877
0.0023576588648980866,0.6133784773060029
0.00236269659751539,0.6133784773060029
0.00236269659751539,0.6135614934114202
0.002367734330132694,0.6135614934114202
0.002367734330132694,0.6136530014641288
0.0023727720627499975,0.6136530014641288
0.0023727720627499975,0.6139275256222547
0.002377809795367301,0.6139275256222547
0.002377809795367301,0.614110541727672
0.002382847527984605,0.614110541727672
0.002382847527984605,0.6142020497803806
0.0023878852606019083,0.6142020497803806
0.0023878852606019083,0.6145680819912153
0.0023979607258365157,0.6145680819912153
0.0023979607258365157,0.6154831625183016
0.002402998458453819,0.6154831625183016
0.002402998458453819,0.6155746705710102
0.0024080361910711226,0.6155746705710102
0.0024080361910711226,0.6159407027818448
0.00241811165630573,0.6159407027818448
0.00241811165630573,0.6163067349926794
0.0024281871215403373,0.6163067349926794
0.0024281871215403373,0.6173133235724744
0.0024332248541576408,0.6173133235724744
0.0024332248541576408,0.6179538799414348
0.0024382625867749442,0.6179538799414348
0.0024382625867749442,0.6184114202049781
0.002443300319392248,0.6184114202049781
0.002443300319392248,0.618685944363104
0.0024483380520095516,0.618685944363104
0.0024483380520095516,0.6187774524158126
0.002453375784626855,0.6187774524158126
0.002453375784626855,0.6205161054172768
0.0024584135172441585,0.6205161054172768
0.0024584135172441585,0.6206076134699854
0.0024634512498614624,0.6206076134699854
0.0024634512498614624,0.6211566617862372
0.002468488982478766,0.6211566617862372
0.002468488982478766,0.6216142020497804
0.0024785644477133733,0.6216142020497804
0.0024785644477133733,0.6222547584187409
0.00248863991294798,0.6222547584187409
0.00248863991294798,0.6223462664714495
0.002493677645565284,0.6223462664714495
0.002493677645565284,0.6225292825768668
0.0024987153781825876,0.6225292825768668
0.0024987153781825876,0.6226207906295754
0.002503753110799891,0.6226207906295754
0.002503753110799891,0.6228038067349927
0.002508790843417195,0.6228038067349927
0.002508790843417195,0.6230783308931186
0.0025138285760344984,0.6230783308931186
0.0025138285760344984,0.6233528550512445
0.002518866308651802,0.6233528550512445
0.002518866308651802,0.6236273792093704
0.0025239040412691057,0.6236273792093704
0.0025239040412691057,0.623718887262079
0.002528941773886409,0.623718887262079
0.002528941773886409,0.6239019033674963
0.0025339795065037127,0.6239019033674963
0.0025339795065037127,0.6241764275256223
0.0025390172391210166,0.6241764275256223
0.0025390172391210166,0.6244509516837482
0.00254405497173832,0.6244509516837482
0.00254405497173832,0.6245424597364568
0.0025490927043556235,0.6245424597364568
0.0025490927043556235,0.6247254758418741
0.0025541304369729274,0.6247254758418741
0.0025541304369729274,0.6248169838945827
0.002559168169590231,0.6248169838945827
0.002559168169590231,0.6249084919472914
0.0025642059022075343,0.6249084919472914
0.0025642059022075343,0.6260980966325037
0.0025742813674421417,0.6260980966325037
0.0025742813674421417,0.6261896046852123
0.002579319100059445,0.6261896046852123
0.002579319100059445,0.6266471449487555
0.002584356832676749,0.6266471449487555
0.002584356832676749,0.6268301610541728
0.0025893945652940525,0.6268301610541728
0.0025893945652940525,0.62701317715959
0.002594432297911356,0.62701317715959
0.002594432297911356,0.6272877013177159
0.002609545495763267,0.6272877013177159
0.002609545495763267,0.6276537335285505
0.002619620960997874,0.6276537335285505
0.002619620960997874,0.6282027818448024
0.0026246586936151776,0.6282027818448024
0.0026246586936151776,0.6283857979502196
0.002634734158849785,0.6283857979502196
0.002634734158849785,0.6291178623718887
0.002649847356701696,0.6291178623718887
0.002649847356701696,0.6292093704245973
0.0026548850893189993,0.6292093704245973
0.0026548850893189993,0.6298499267935578
0.00266999828717091,0.6298499267935578
0.00266999828717091,0.6299414348462665
0.0026750360197882136,0.6299414348462665
0.0026750360197882136,0.6302159590043924
0.0026800737524055175,0.6302159590043924
0.0026800737524055175,0.6311310395314788
0.0026951869502574283,0.6311310395314788
0.0026951869502574283,0.631314055636896
0.0027052624154920353,0.631314055636896
0.0027052624154920353,0.6318631039531479
0.0027153378807266426,0.6318631039531479
0.0027153378807266426,0.6320461200585652
0.002720375613343946,0.6320461200585652
0.002720375613343946,0.6326866764275256
0.0027304510785785534,0.6326866764275256
0.0027304510785785534,0.6327781844802343
0.002735488811195857,0.6327781844802343
0.002735488811195857,0.6332357247437774
0.0027405265438131604,0.6332357247437774
0.0027405265438131604,0.6334187408491947
0.002755639741665071,0.6334187408491947
0.002755639741665071,0.633601756954612
0.002760677474282375,0.633601756954612
0.002760677474282375,0.6336932650073206
0.0027657152068996786,0.6336932650073206
0.0027657152068996786,0.6341508052708639
0.002770752939516982,0.6341508052708639
0.002770752939516982,0.6347913616398243
0.002775790672134286,0.6347913616398243
0.002775790672134286,0.6351573938506588
0.0027808284047515894,0.6351573938506588
0.0027808284047515894,0.635614934114202
0.002785866137368893,0.635614934114202
0.002785866137368893,0.6362554904831625
0.0027909038699861968,0.6362554904831625
0.0027909038699861968,0.6364385065885798
0.0027959416026035002,0.6364385065885798
0.0027959416026035002,0.6366215226939971
0.0028009793352208037,0.6366215226939971
0.0028009793352208037,0.6367130307467057
0.0028060170678381076,0.6367130307467057
0.0028060170678381076,0.6372620790629575
0.002811054800455411,0.6372620790629575
0.002811054800455411,0.6373535871156661
0.0028211302656900184,0.6373535871156661
0.0028211302656900184,0.637628111273792
0.002826167998307322,0.637628111273792
0.002826167998307322,0.637902635431918
0.0028362434635419292,0.637902635431918
0.0028362434635419292,0.6383601756954612
0.0028412811961592327,0.6383601756954612
0.0028412811961592327,0.6390007320644217
0.002846318928776536,0.6390007320644217
0.002846318928776536,0.6391837481698389
0.00285135666139384,0.6391837481698389
0.00285135666139384,0.6393667642752562
0.0028563943940111435,0.6393667642752562
0.0028563943940111435,0.6397327964860908
0.002861432126628447,0.6397327964860908
0.002861432126628447,0.6406478770131772
0.0028664698592457505,0.6406478770131772
0.0028664698592457505,0.6410139092240117
0.002876545324480358,0.6410139092240117
0.002876545324480358,0.6413799414348462
0.002896696254949572,0.6413799414348462
0.002896696254949572,0.6416544655929722
0.002901733987566876,0.6416544655929722
0.002901733987566876,0.6417459736456809
0.0029067717201841795,0.6417459736456809
0.0029067717201841795,0.6420204978038068
0.002911809452801483,0.6420204978038068
0.002911809452801483,0.6424780380673499
0.002916847185418787,0.6424780380673499
0.002916847185418787,0.6426610541727672
0.0029269226506533938,0.6426610541727672
0.0029269226506533938,0.6427525622254758
0.0029319603832706977,0.6427525622254758
0.0029319603832706977,0.6430270863836017
0.0029470735811226085,0.6430270863836017
0.0029470735811226085,0.6431185944363104
0.002952111313739912,0.6431185944363104
0.002952111313739912,0.6433016105417276
0.0029571490463572154,0.6433016105417276
0.0029571490463572154,0.6433931185944363
0.0029621867789745193,0.6433931185944363
0.0029621867789745193,0.6434846266471449
0.0029722622442091263,0.6434846266471449
0.0029722622442091263,0.6436676427525623
0.00297729997682643,0.6436676427525623
0.00297729997682643,0.6437591508052709
0.002987375442061037,0.6437591508052709
0.002987375442061037,0.6438506588579795
0.0029924131746783406,0.6438506588579795
0.0029924131746783406,0.6443081991215227
0.0029974509072956445,0.6443081991215227
0.0029974509072956445,0.6446742313323572
0.0030176018377648588,0.6446742313323572
0.0030176018377648588,0.6448572474377745
0.003022639570382162,0.6448572474377745
0.003022639570382162,0.6449487554904831
0.003027677302999466,0.6449487554904831
0.003027677302999466,0.6454062957540263
0.003037752768234073,0.6454062957540263
0.003037752768234073,0.6460468521229868
0.003042790500851377,0.6460468521229868
0.003042790500851377,0.6461383601756955
0.0030478282334686804,0.6461383601756955
0.0030478282334686804,0.64650439238653
0.003052865966085984,0.64650439238653
0.003052865966085984,0.6465959004392386
0.0030629414313205912,0.6465959004392386
0.0030629414313205912,0.6470534407027818
0.0030679791639378947,0.6470534407027818
0.0030679791639378947,0.6471449487554904
0.0030730168965551986,0.6471449487554904
0.0030730168965551986,0.6472364568081991
0.003078054629172502,0.6472364568081991
0.003078054629172502,0.6474194729136163
0.0030830923617898055,0.6474194729136163
0.0030830923617898055,0.6476939970717424
0.0030881300944071094,0.6476939970717424
0.0030881300944071094,0.6479685212298683
0.003093167827024413,0.6479685212298683
0.003093167827024413,0.6480600292825769
0.0030982055596417164,0.6480600292825769
0.0030982055596417164,0.6483345534407028
0.0031032432922590203,0.6483345534407028
0.0031032432922590203,0.6486090775988287
0.0031082810248763237,0.6486090775988287
0.0031082810248763237,0.6487005856515373
0.003113318757493627,0.6487005856515373
0.003113318757493627,0.6488836017569546
0.003118356490110931,0.6488836017569546
0.003118356490110931,0.6491581259150805
0.0031233942227282346,0.6491581259150805
0.0031233942227282346,0.649798682284041
0.0031334696879628415,0.649798682284041
0.0031334696879628415,0.6498901903367497
0.0031385074205801454,0.6498901903367497
0.0031385074205801454,0.6501647144948756
0.003143545153197449,0.6501647144948756
0.003143545153197449,0.6502562225475842
0.0031485828858147523,0.6502562225475842
0.0031485828858147523,0.6504392386530015
0.003153620618432056,0.6504392386530015
0.003153620618432056,0.6506222547584187
0.0031586583510493597,0.6506222547584187
0.0031586583510493597,0.6510797950219619
0.003163696083666663,0.6510797950219619
0.003163696083666663,0.6511713030746705
0.0031737715489012705,0.6511713030746705
0.0031737715489012705,0.6513543191800878
0.003178809281518574,0.6513543191800878
0.003178809281518574,0.6515373352855052
0.003183847014135878,0.6515373352855052
0.003183847014135878,0.6516288433382138
0.0031888847467531813,0.6516288433382138
0.0031888847467531813,0.6517203513909224
0.003193922479370485,0.6517203513909224
0.003193922479370485,0.6519033674963397
0.003203997944605092,0.6519033674963397
0.003203997944605092,0.6524524158125915
0.0032140734098396995,0.6524524158125915
0.0032140734098396995,0.6526354319180088
0.003219111142457003,0.6526354319180088
0.003219111142457003,0.6530014641288433
0.0032291866076916103,0.6530014641288433
0.0032291866076916103,0.6533674963396779
0.0032392620729262173,0.6533674963396779
0.0032392620729262173,0.6536420204978038
0.003244299805543521,0.6536420204978038
0.003244299805543521,0.6537335285505125
0.0032493375381608246,0.6537335285505125
0.0032493375381608246,0.6541910688140556
0.003254375270778128,0.6541910688140556
0.003254375270778128,0.6547401171303074
0.0032644507360127355,0.6547401171303074
0.0032644507360127355,0.6552891654465594
0.003269488468630039,0.6552891654465594
0.003269488468630039,0.655380673499268
0.0032745262012473424,0.655380673499268
0.0032745262012473424,0.6564787701317716
0.0032846016664819498,0.6564787701317716
0.0032846016664819498,0.6565702781844802
0.0032896393990992532,0.6565702781844802
0.0032896393990992532,0.6569363103953147
0.003304752596951164,0.6569363103953147
0.003304752596951164,0.657119326500732
0.003309790329568468,0.657119326500732
0.003309790329568468,0.6572108345534406
0.003319865794803075,0.6572108345534406
0.003319865794803075,0.6573023426061494
0.003324903527420379,0.6573023426061494
0.003324903527420379,0.6575768667642753
0.0033299412600376822,0.6575768667642753
0.0033299412600376822,0.6576683748169839
0.0033551299231242004,0.6576683748169839
0.0033551299231242004,0.6579428989751098
0.003360167655741504,0.6579428989751098
0.003360167655741504,0.6580344070278185
0.0033652053883588074,0.6580344070278185
0.0033652053883588074,0.6585834553440703
0.0033702431209761113,0.6585834553440703
0.0033702431209761113,0.6586749633967789
0.0033752808535934147,0.6586749633967789
0.0033752808535934147,0.6591325036603221
0.003380318586210718,0.6591325036603221
0.003380318586210718,0.6593155197657394
0.003385356318828022,0.6593155197657394
0.003385356318828022,0.6594070278184481
0.003395431784062629,0.6594070278184481
0.003395431784062629,0.6597730600292826
0.0034004695166799325,0.6597730600292826
0.0034004695166799325,0.6598645680819912
0.0034055072492972364,0.6598645680819912
0.0034055072492972364,0.6603221083455344
0.0034155827145318433,0.6603221083455344
0.0034155827145318433,0.660413616398243
0.0034206204471491472,0.660413616398243
0.0034206204471491472,0.6605966325036603
0.0034256581797664507,0.6605966325036603
0.0034256581797664507,0.6607796486090776
0.003430695912383754,0.6607796486090776
0.003430695912383754,0.6610541727672035
0.0034407713776183615,0.6610541727672035
0.0034407713776183615,0.6611456808199122
0.003445809110235665,0.6611456808199122
0.003445809110235665,0.6617862371888726
0.003450846842852969,0.6617862371888726
0.003450846842852969,0.6622437774524158
0.0034558845754702723,0.6622437774524158
0.0034558845754702723,0.6623352855051244
0.0034659600407048797,0.6623352855051244
0.0034659600407048797,0.6624267935578331
0.003470997773322183,0.6624267935578331
0.003470997773322183,0.6626098096632503
0.0034810732385567905,0.6626098096632503
0.0034810732385567905,0.6631588579795022
0.003486110971174094,0.6631588579795022
0.003486110971174094,0.6632503660322109
0.0034911487037913975,0.6632503660322109
0.0034911487037913975,0.6636163982430454
0.003501224169026005,0.6636163982430454
0.003501224169026005,0.6638909224011713
0.0035163373668779157,0.6638909224011713
0.0035163373668779157,0.6642569546120058
0.003521375099495219,0.6642569546120058
0.003521375099495219,0.6644399707174231
0.0035264128321125226,0.6644399707174231
0.0035264128321125226,0.6645314787701317
0.0035314505647298265,0.6645314787701317
0.0035314505647298265,0.6648060029282576
0.0035465637625817373,0.6648060029282576
0.0035465637625817373,0.6649890190336749
0.0035516014951990408,0.6649890190336749
0.0035516014951990408,0.6659040995607614
0.003561676960433648,0.6659040995607614
0.003561676960433648,0.66599560761347
0.0035667146930509516,0.66599560761347
0.0035667146930509516,0.6663616398243045
0.003571752425668255,0.6663616398243045
0.003571752425668255,0.6665446559297218
0.003576790158285559,0.6665446559297218
0.003576790158285559,0.6666361639824304
0.003586865623520166,0.6666361639824304
0.003586865623520166,0.666727672035139
0.0035969410887547733,0.666727672035139
0.0035969410887547733,0.6668191800878477
0.0036019788213720767,0.6668191800878477
0.0036019788213720767,0.6670021961932651
0.003612054286606684,0.6670021961932651
0.003612054286606684,0.6678257686676428
0.0036170920192239876,0.6678257686676428
0.0036170920192239876,0.66800878477306
0.0036221297518412915,0.66800878477306
0.0036221297518412915,0.6689238653001464
0.003627167484458595,0.6689238653001464
0.003627167484458595,0.6694729136163983
0.0036322052170758984,0.6694729136163983
0.0036322052170758984,0.6701134699853587
0.0036372429496932023,0.6701134699853587
0.0036372429496932023,0.670296486090776
0.0036422806823105057,0.670296486090776
0.0036422806823105057,0.6704795021961932
0.003647318414927809,0.6704795021961932
0.003647318414927809,0.6705710102489019
0.003652356147545113,0.6705710102489019
0.003652356147545113,0.6707540263543191
0.0036725070780143274,0.6707540263543191
0.0036725070780143274,0.6708455344070278
0.003677544810631631,0.6708455344070278
0.003677544810631631,0.6709370424597365
0.0036825825432489343,0.6709370424597365
0.0036825825432489343,0.6710285505124451
0.0036876202758662382,0.6710285505124451
0.0036876202758662382,0.6711200585651538
0.0036926580084835417,0.6711200585651538
0.0036926580084835417,0.6712115666178624
0.003712808938952756,0.6712115666178624
0.003712808938952756,0.671303074670571
0.00371784667157006,0.671303074670571
0.00371784667157006,0.6713945827232797
0.0037228844041873634,0.6713945827232797
0.0037228844041873634,0.6714860907759883
0.003727922136804667,0.6714860907759883
0.003727922136804667,0.6722181551976574
0.0037430353346565776,0.6722181551976574
0.0037430353346565776,0.6733162518301611
0.0037480730672738815,0.6733162518301611
0.0037480730672738815,0.6740483162518301
0.003753110799891185,0.6740483162518301
0.003753110799891185,0.6746888726207906
0.0037631862651257924,0.6746888726207906
0.0037631862651257924,0.674871888726208
0.003768223997743096,0.674871888726208
0.003768223997743096,0.6749633967789166
0.003778299462977703,0.6749633967789166
0.003778299462977703,0.6750549048316252
0.0037833371955950067,0.6750549048316252
0.0037833371955950067,0.6751464128843339
0.00378837492821231,0.6751464128843339
0.00378837492821231,0.6753294289897511
0.0037934126608296136,0.6753294289897511
0.0037934126608296136,0.6756954612005857
0.0037984503934469175,0.6756954612005857
0.0037984503934469175,0.6761530014641288
0.003803488126064221,0.6761530014641288
0.003803488126064221,0.6763360175695461
0.0038135635912988283,0.6763360175695461
0.0038135635912988283,0.6773426061493412
0.003818601323916132,0.6773426061493412
0.003818601323916132,0.6776171303074671
0.0038236390565334353,0.6776171303074671
0.0038236390565334353,0.6778001464128843
0.003838752254385346,0.6778001464128843
0.003838752254385346,0.6779831625183016
0.00384378998700265,0.6779831625183016
0.00384378998700265,0.678898243045388
0.003853865452237257,0.678898243045388
0.003853865452237257,0.6791727672035139
0.003858903184854561,0.6791727672035139
0.003858903184854561,0.6793557833089312
0.0038689786500891677,0.6793557833089312
0.0038689786500891677,0.6794472913616398
0.0038740163827064716,0.6794472913616398
0.0038740163827064716,0.6797218155197657
0.0038891295805583825,0.6797218155197657
0.0038891295805583825,0.6802708638360175
0.003909280511027596,0.6802708638360175
0.003909280511027596,0.6803623718887262
0.0039143182436449,0.6803623718887262
0.0039143182436449,0.6805453879941434
0.003924393708879507,0.6805453879941434
0.003924393708879507,0.681918008784773
0.003929431441496811,0.681918008784773
0.003929431441496811,0.6821010248901903
0.003934469174114115,0.6821010248901903
0.003934469174114115,0.6822840409956076
0.003939506906731418,0.6822840409956076
0.003939506906731418,0.6823755490483162
0.003944544639348722,0.6823755490483162
0.003944544639348722,0.6831076134699854
0.003954620104583329,0.6831076134699854
0.003954620104583329,0.6832906295754027
0.003959657837200633,0.6832906295754027
0.003959657837200633,0.6833821376281113
0.003964695569817937,0.6833821376281113
0.003964695569817937,0.6835651537335286
0.00396973330243524,0.6835651537335286
0.00396973330243524,0.6838396778916545
0.0039798087676698474,0.6838396778916545
0.0039798087676698474,0.6841142020497804
0.0039848465002871505,0.6841142020497804
0.0039848465002871505,0.6842972181551976
0.003989884232904454,0.6842972181551976
0.003989884232904454,0.6846632503660323
0.004004997430756365,0.6846632503660323
0.004004997430756365,0.6847547584187409
0.004010035163373669,0.6847547584187409
0.004010035163373669,0.6848462664714495
0.004020110628608276,0.6848462664714495
0.004020110628608276,0.6851207906295754
0.00402514836122558,0.6851207906295754
0.00402514836122558,0.6853953147877013
0.004030186093842883,0.6853953147877013
0.004030186093842883,0.6855783308931186
0.004040261559077491,0.6855783308931186
0.004040261559077491,0.6856698389458272
0.004050337024312098,0.6856698389458272
0.004050337024312098,0.6860358711566618
0.004055374756929402,0.6860358711566618
0.004055374756929402,0.6861273792093704
0.004060412489546705,0.6861273792093704
0.004060412489546705,0.686218887262079
0.0040654502221640085,0.686218887262079
0.0040654502221640085,0.6863103953147877
0.0040755256873986154,0.6863103953147877
0.0040755256873986154,0.6864019033674963
0.004080563420015919,0.6864019033674963
0.004080563420015919,0.6867679355783309
0.004085601152633223,0.6867679355783309
0.004085601152633223,0.6868594436310396
0.00409567661786783,0.6868594436310396
0.00409567661786783,0.6870424597364568
0.004100714350485134,0.6870424597364568
0.004100714350485134,0.6875
0.004105752083102437,0.6875
0.004105752083102437,0.6875915080527086
0.004115827548337045,0.6875915080527086
0.004115827548337045,0.6876830161054173
0.004125903013571652,0.6876830161054173
0.004125903013571652,0.6880490483162518
0.004141016211423563,0.6880490483162518
0.004141016211423563,0.6881405563689604
0.004146053944040866,0.6881405563689604
0.004146053944040866,0.6884150805270863
0.00415109167665817,0.6884150805270863
0.00415109167665817,0.6885980966325037
0.0041561294092754735,0.6885980966325037
0.0041561294092754735,0.688781112737921
0.00416620487451008,0.688781112737921
0.00416620487451008,0.6888726207906296
0.004171242607127384,0.6888726207906296
0.004171242607127384,0.6891471449487555
0.004176280339744687,0.6891471449487555
0.004176280339744687,0.6893301610541728
0.004181318072361991,0.6893301610541728
0.004181318072361991,0.6897877013177159
0.004186355804979295,0.6897877013177159
0.004186355804979295,0.6899707174231332
0.004196431270213902,0.6899707174231332
0.004196431270213902,0.6900622254758418
0.004211544468065813,0.6900622254758418
0.004211544468065813,0.6904282576866764
0.004216582200683117,0.6904282576866764
0.004216582200683117,0.6913433382137628
0.00422161993330042,0.6913433382137628
0.00422161993330042,0.6914348462664714
0.004226657665917724,0.6914348462664714
0.004226657665917724,0.6916178623718887
0.004231695398535028,0.6916178623718887
0.004231695398535028,0.691800878477306
0.0042518463290042415,0.691800878477306
0.0042518463290042415,0.6918923865300146
0.004256884061621545,0.6918923865300146
0.004256884061621545,0.6919838945827232
0.004261921794238849,0.6919838945827232
0.004261921794238849,0.6923499267935578
0.004266959526856152,0.6923499267935578
0.004266959526856152,0.6927159590043924
0.004271997259473456,0.6927159590043924
0.004271997259473456,0.6928989751098097
0.004282072724708063,0.6928989751098097
0.004282072724708063,0.6929904831625183
0.004287110457325367,0.6929904831625183
0.004287110457325367,0.6934480234260615
0.004292148189942671,0.6934480234260615
0.004292148189942671,0.6935395314787701
0.004297185922559974,0.6935395314787701
0.004297185922559974,0.6937225475841874
0.004307261387794582,0.6937225475841874
0.004307261387794582,0.6940885797950219
0.004312299120411885,0.6940885797950219
0.004312299120411885,0.6941800878477306
0.004322374585646493,0.6941800878477306
0.004322374585646493,0.6948206442166911
0.004327412318263796,0.6948206442166911
0.004327412318263796,0.6949121522693997
0.0043425255161157065,0.6949121522693997
0.0043425255161157065,0.6950036603221084
0.004352600981350314,0.6950036603221084
0.004352600981350314,0.695095168374817
0.004357638713967617,0.695095168374817
0.004357638713967617,0.6952781844802343
0.004362676446584921,0.6952781844802343
0.004362676446584921,0.6956442166910688
0.004367714179202225,0.6956442166910688
0.004367714179202225,0.6957357247437774
0.004372751911819528,0.6957357247437774
0.004372751911819528,0.6958272327964861
0.004382827377054136,0.6958272327964861
0.004382827377054136,0.6959187408491947
0.004392902842288743,0.6959187408491947
0.004392902842288743,0.6960102489019033
0.00440297830752335,0.6960102489019033
0.00440297830752335,0.6962847730600292
0.004413053772757957,0.6962847730600292
0.004413053772757957,0.6968338213762811
0.0044231292379925645,0.6968338213762811
0.0044231292379925645,0.6969253294289898
0.0044281669706098675,0.6969253294289898
0.0044281669706098675,0.6971998535871157
0.004438242435844475,0.6971998535871157
0.004438242435844475,0.6972913616398243
0.004443280168461778,0.6972913616398243
0.004443280168461778,0.6974743777452416
0.004458393366313689,0.6974743777452416
0.004458393366313689,0.6975658857979502
0.004468468831548297,0.6975658857979502
0.004468468831548297,0.6978404099560761
0.0044735065641656,0.6978404099560761
0.0044735065641656,0.6979319180087847
0.004478544296782904,0.6979319180087847
0.004478544296782904,0.6982064421669106
0.004483582029400208,0.6982064421669106
0.004483582029400208,0.6982979502196194
0.004503732959869422,0.6982979502196194
0.004503732959869422,0.6989385065885798
0.0045087706924867256,0.6989385065885798
0.0045087706924867256,0.6990300146412884
0.0045138084251040295,0.6990300146412884
0.0045138084251040295,0.6992130307467057
0.0045188461577213325,0.6992130307467057
0.0045188461577213325,0.6993045387994143
0.004533959355573243,0.6993045387994143
0.004533959355573243,0.699396046852123
0.004538997088190547,0.699396046852123
0.004538997088190547,0.6994875549048316
0.004544034820807851,0.6994875549048316
0.004544034820807851,0.6999450951683748
0.004549072553425154,0.6999450951683748
0.004549072553425154,0.700128111273792
0.004559148018659762,0.700128111273792
0.004559148018659762,0.7003111273792094
0.004564185751277065,0.7003111273792094
0.004564185751277065,0.700402635431918
0.004579298949128976,0.700402635431918
0.004579298949128976,0.7004941434846267
0.004589374414363584,0.7004941434846267
0.004589374414363584,0.7009516837481699
0.004594412146980887,0.7009516837481699
0.004594412146980887,0.7011346998535871
0.0045994498795981905,0.7011346998535871
0.0045994498795981905,0.701409224011713
0.0046044876122154944,0.701409224011713
0.0046044876122154944,0.7015922401171303
0.004614563077450101,0.7015922401171303
0.004614563077450101,0.7019582723279648
0.004629676275302012,0.7019582723279648
0.004629676275302012,0.7020497803806734
0.004639751740536619,0.7020497803806734
0.004639751740536619,0.7022327964860908
0.004644789473153923,0.7022327964860908
0.004644789473153923,0.7025988286969254
0.004649827205771226,0.7025988286969254
0.004649827205771226,0.7027818448023426
0.004675015868857745,0.7027818448023426
0.004675015868857745,0.7028733528550513
0.004680053601475048,0.7028733528550513
0.004680053601475048,0.7037884333821376
0.0046951667993269585,0.7037884333821376
0.0046951667993269585,0.7039714494875549
0.0047002045319442624,0.7039714494875549
0.0047002045319442624,0.7040629575402635
0.004705242264561566,0.7040629575402635
0.004705242264561566,0.7042459736456809
0.00472539319503078,0.7042459736456809
0.00472539319503078,0.7044289897510981
0.004730430927648084,0.7044289897510981
0.004730430927648084,0.7046120058565154
0.004740506392882691,0.7046120058565154
0.004740506392882691,0.7050695461200586
0.004745544125499995,0.7050695461200586
0.004745544125499995,0.7051610541727672
0.004750581858117299,0.7051610541727672
0.004750581858117299,0.7052525622254758
0.004770732788586513,0.7052525622254758
0.004770732788586513,0.7054355783308931
0.004775770521203817,0.7054355783308931
0.004775770521203817,0.7056185944363104
0.0047858459864384235,0.7056185944363104
0.0047858459864384235,0.705710102489019
0.004790883719055727,0.705710102489019
0.004790883719055727,0.7058016105417276
0.004805996916907638,0.7058016105417276
0.004805996916907638,0.7061676427525623
0.004811034649524942,0.7061676427525623
0.004811034649524942,0.7062591508052709
0.004816072382142245,0.7062591508052709
0.004816072382142245,0.7063506588579795
0.004831185579994156,0.7063506588579795
0.004831185579994156,0.7066251830161054
0.00483622331261146,0.7066251830161054
0.00483622331261146,0.7068081991215227
0.004846298777846067,0.7068081991215227
0.004846298777846067,0.7071742313323572
0.0048714874409325854,0.7071742313323572
0.0048714874409325854,0.7073572474377745
0.0048765251735498885,0.7073572474377745
0.0048765251735498885,0.7074487554904831
0.004881562906167192,0.7074487554904831
0.004881562906167192,0.7076317715959004
0.004886600638784496,0.7076317715959004
0.004886600638784496,0.7079062957540263
0.004891638371401799,0.7079062957540263
0.004891638371401799,0.7080893118594437
0.004901713836636407,0.7080893118594437
0.004901713836636407,0.7084553440702782
0.00490675156925371,0.7084553440702782
0.00490675156925371,0.7086383601756955
0.004921864767105621,0.7086383601756955
0.004921864767105621,0.7087298682284041
0.004926902499722925,0.7087298682284041
0.004926902499722925,0.7088213762811127
0.004931940232340228,0.7088213762811127
0.004931940232340228,0.70900439238653
0.004936977964957532,0.70900439238653
0.004936977964957532,0.7090959004392386
0.004972242093278657,0.7090959004392386
0.004972242093278657,0.7091874084919473
0.00497727982589596,0.7091874084919473
0.00497727982589596,0.7092789165446559
0.004997430756365175,0.7092789165446559
0.004997430756365175,0.7094619326500732
0.005002468488982479,0.7094619326500732
0.005002468488982479,0.7097364568081991
0.005027657152068997,0.7097364568081991
0.005027657152068997,0.7099194729136163
0.005032694884686301,0.7099194729136163
0.005032694884686301,0.7100109809663251
0.005037732617303604,0.7100109809663251
0.005037732617303604,0.7103770131771596
0.0050528458151555145,0.7103770131771596
0.0050528458151555145,0.7104685212298683
0.005057883547772818,0.7104685212298683
0.005057883547772818,0.7106515373352855
0.005062921280390122,0.7106515373352855
0.005062921280390122,0.71101756954612
0.005098185408711247,0.71101756954612
0.005098185408711247,0.7112005856515373
0.005103223141328551,0.7112005856515373
0.005103223141328551,0.7114751098096632
0.005108260873945855,0.7114751098096632
0.005108260873945855,0.7115666178623719
0.005113298606563158,0.7115666178623719
0.005113298606563158,0.7116581259150805
0.005123374071797766,0.7116581259150805
0.005123374071797766,0.7118411420204978
0.005128411804415069,0.7118411420204978
0.005128411804415069,0.7121156661786238
0.0051334495370323726,0.7121156661786238
0.0051334495370323726,0.7122071742313324
0.0051384872696496765,0.7122071742313324
0.0051384872696496765,0.712298682284041
0.0051435250022669795,0.712298682284041
0.0051435250022669795,0.7129392386530015
0.005153600467501587,0.7129392386530015
0.005153600467501587,0.7130307467057101
0.005163675932736194,0.7130307467057101
0.005163675932736194,0.7131222547584187
0.005168713665353498,0.7131222547584187
0.005168713665353498,0.713305270863836
0.005173751397970801,0.713305270863836
0.005173751397970801,0.7133967789165446
0.005193902328440016,0.7133967789165446
0.005193902328440016,0.7136713030746705
0.005198940061057319,0.7136713030746705
0.005198940061057319,0.7139458272327965
0.00521405325890923,0.7139458272327965
0.00521405325890923,0.7141288433382138
0.005219090991526534,0.7141288433382138
0.005219090991526534,0.7144033674963397
0.005244279654613051,0.7144033674963397
0.005244279654613051,0.7144948755490483
0.005249317387230355,0.7144948755490483
0.005249317387230355,0.7146778916544656
0.005254355119847659,0.7146778916544656
0.005254355119847659,0.7147693997071742
0.005264430585082266,0.7147693997071742
0.005264430585082266,0.7154099560761347
0.00526946831769957,0.7154099560761347
0.00526946831769957,0.7155014641288433
0.005274506050316873,0.7155014641288433
0.005274506050316873,0.7157759882869692
0.005284581515551481,0.7157759882869692
0.005284581515551481,0.7160505124450952
0.005289619248168784,0.7160505124450952
0.005289619248168784,0.716599560761347
0.005304732446020695,0.716599560761347
0.005304732446020695,0.7166910688140556
0.005309770178637999,0.7166910688140556
0.005309770178637999,0.7168740849194729
0.0053148079112553025,0.7168740849194729
0.0053148079112553025,0.7170571010248902
0.0053248833764899094,0.7170571010248902
0.0053248833764899094,0.7171486090775988
0.005329921109107213,0.7171486090775988
0.005329921109107213,0.7172401171303074
0.005334958841724516,0.7172401171303074
0.005334958841724516,0.717606149341142
0.00533999657434182,0.717606149341142
0.00533999657434182,0.7180636896046853
0.005345034306959124,0.7180636896046853
0.005345034306959124,0.7187042459736457
0.005360147504811035,0.7187042459736457
0.005360147504811035,0.7187957540263543
0.005375260702662946,0.7187957540263543
0.005375260702662946,0.718887262079063
0.005385336167897553,0.718887262079063
0.005385336167897553,0.7191617862371888
0.005390373900514857,0.7191617862371888
0.005390373900514857,0.7192532942898975
0.00539541163313216,0.7192532942898975
0.00539541163313216,0.7194363103953147
0.0054105248309840705,0.7194363103953147
0.0054105248309840705,0.7197108345534406
0.005415562563601374,0.7197108345534406
0.005415562563601374,0.719893850658858
0.005420600296218678,0.719893850658858
0.005420600296218678,0.7200768667642753
0.005425638028835981,0.7200768667642753
0.005425638028835981,0.7202598828696926
0.005445788959305196,0.7202598828696926
0.005445788959305196,0.7204428989751098
0.005450826691922499,0.7204428989751098
0.005450826691922499,0.7214494875549048
0.005455864424539803,0.7214494875549048
0.005455864424539803,0.7215409956076134
0.005460902157157107,0.7215409956076134
0.005460902157157107,0.7217240117130308
0.00546593988977441,0.7217240117130308
0.00546593988977441,0.7220900439238653
0.005481053087626321,0.7220900439238653
0.005481053087626321,0.7223645680819912
0.005486090820243625,0.7223645680819912
0.005486090820243625,0.7224560761346999
0.0055012040180955355,0.7224560761346999
0.0055012040180955355,0.7225475841874085
0.005506241750712839,0.7225475841874085
0.005506241750712839,0.7226390922401171
0.005511279483330142,0.7226390922401171
0.005511279483330142,0.7227306002928258
0.005526392681182053,0.7227306002928258
0.005526392681182053,0.7228221083455344
0.005531430413799357,0.7228221083455344
0.005531430413799357,0.7237371888726208
0.005541505879033964,0.7237371888726208
0.005541505879033964,0.7241032210834554
0.005551581344268572,0.7241032210834554
0.005551581344268572,0.7242862371888726
0.005556619076885875,0.7242862371888726
0.005556619076885875,0.7243777452415813
0.005566694542120483,0.7243777452415813
0.005566694542120483,0.7246522693997072
0.0055818077399723935,0.7246522693997072
0.0055818077399723935,0.7247437774524158
0.0055868454725896965,0.7247437774524158
0.0055868454725896965,0.7248352855051244
0.0055918832052070004,0.7248352855051244
0.0055918832052070004,0.7249267935578331
0.005596920937824304,0.7249267935578331
0.005596920937824304,0.7253843338213762
0.005606996403058911,0.7253843338213762
0.005606996403058911,0.7255673499267935
0.005617071868293518,0.7255673499267935
0.005617071868293518,0.7259333821376281
0.005627147333528126,0.7259333821376281
0.005627147333528126,0.726207906295754
0.005652335996614644,0.726207906295754
0.005652335996614644,0.7262994143484627
0.005657373729231948,0.7262994143484627
0.005657373729231948,0.72648243045388
0.005662411461849251,0.72648243045388
0.005662411461849251,0.7265739385065886
0.0056775246597011615,0.7265739385065886
0.0056775246597011615,0.7268484626647145
0.005687600124935769,0.7268484626647145
0.005687600124935769,0.7274890190336749
0.005692637857553072,0.7274890190336749
0.005692637857553072,0.7276720351390923
0.005697675590170376,0.7276720351390923
0.005697675590170376,0.7277635431918009
0.00571782652063959,0.7277635431918009
0.00571782652063959,0.7278550512445096
0.005722864253256894,0.7278550512445096
0.005722864253256894,0.7280380673499268
0.005727901985874198,0.7280380673499268
0.005727901985874198,0.7281295754026355
0.005743015183726109,0.7281295754026355
0.005743015183726109,0.7283125915080527
0.005748052916343412,0.7283125915080527
0.005748052916343412,0.7284040995607614
0.005763166114195323,0.7284040995607614
0.005763166114195323,0.72849560761347
0.0057682038468126265,0.72849560761347
0.0057682038468126265,0.7285871156661786
0.00577324157942993,0.7285871156661786
0.00577324157942993,0.7289531478770132
0.005778279312047233,0.7289531478770132
0.005778279312047233,0.7291361639824304
0.005798430242516448,0.7291361639824304
0.005798430242516448,0.729227672035139
0.005808505707751055,0.729227672035139
0.005808505707751055,0.7295021961932651
0.005813543440368359,0.7295021961932651
0.005813543440368359,0.7295937042459737
0.005818581172985663,0.7295937042459737
0.005818581172985663,0.729776720351391
0.005823618905602966,0.729776720351391
0.005823618905602966,0.7301427525622255
0.005833694370837574,0.7301427525622255
0.005833694370837574,0.7302342606149341
0.005838732103454877,0.7302342606149341
0.005838732103454877,0.7306002928257687
0.0058488075686894845,0.7306002928257687
0.0058488075686894845,0.7306918008784773
0.0058588830339240915,0.7306918008784773
0.0058588830339240915,0.7308748169838946
0.005879033964393306,0.7308748169838946
0.005879033964393306,0.7314238653001464
0.005889109429627913,0.7314238653001464
0.005889109429627913,0.7315153733528551
0.005919335825331735,0.7315153733528551
0.005919335825331735,0.7316068814055637
0.005924373557949039,0.7316068814055637
0.005924373557949039,0.7320644216691069
0.005929411290566342,0.7320644216691069
0.005929411290566342,0.7323389458272328
0.005934449023183646,0.7323389458272328
0.005934449023183646,0.7327049780380673
0.0059445244884182525,0.7327049780380673
0.0059445244884182525,0.7331625183016105
0.005949562221035556,0.7331625183016105
0.005949562221035556,0.7332540263543191
0.00595459995365286,0.7332540263543191
0.00595459995365286,0.7333455344070278
0.005974750884122074,0.7333455344070278
0.005974750884122074,0.7336200585651538
0.005979788616739378,0.7336200585651538
0.005979788616739378,0.7337115666178624
0.006030165942912414,0.7337115666178624
0.006030165942912414,0.733803074670571
0.0060352036755297175,0.733803074670571
0.0060352036755297175,0.7338945827232797
0.006040241408147021,0.7338945827232797
0.006040241408147021,0.7343521229868228
0.006060392338616235,0.7343521229868228
0.006060392338616235,0.7346266471449487
0.006065430071233539,0.7346266471449487
0.006065430071233539,0.7347181551976574
0.006070467803850843,0.7347181551976574
0.006070467803850843,0.7355417276720352
0.006075505536468146,0.7355417276720352
0.006075505536468146,0.7356332357247438
0.006085581001702754,0.7356332357247438
0.006085581001702754,0.7357247437774525
0.006095656466937361,0.7357247437774525
0.006095656466937361,0.7358162518301611
0.006100694199554665,0.7358162518301611
0.006100694199554665,0.7359077598828697
0.006105731932171968,0.7359077598828697
0.006105731932171968,0.7363653001464129
0.006110769664789272,0.7363653001464129
0.006110769664789272,0.7365483162518301
0.006130920595258486,0.7365483162518301
0.006130920595258486,0.7366398243045388
0.006146033793110397,0.7366398243045388
0.006146033793110397,0.7370058565153733
0.006166184723579611,0.7370058565153733
0.006166184723579611,0.737371888726208
0.006171222456196915,0.737371888726208
0.006171222456196915,0.7374633967789166
0.006176260188814219,0.7374633967789166
0.006176260188814219,0.7376464128843339
0.006181297921431522,0.7376464128843339
0.006181297921431522,0.7377379209370425
0.006186335654048826,0.7377379209370425
0.006186335654048826,0.7378294289897511
0.00619137338666613,0.7378294289897511
0.00619137338666613,0.738103953147877
0.006196411119283433,0.738103953147877
0.006196411119283433,0.7383784773060029
0.0062064865845180405,0.7383784773060029
0.0062064865845180405,0.7384699853587116
0.006221599782369951,0.7384699853587116
0.006221599782369951,0.7387445095168375
0.006231675247604558,0.7387445095168375
0.006231675247604558,0.7390190336749634
0.00626190164330838,0.7390190336749634
0.00626190164330838,0.739110541727672
0.006266939375925683,0.739110541727672
0.006266939375925683,0.7396595900439239
0.006287090306394898,0.7396595900439239
0.006287090306394898,0.7401171303074671
0.006297165771629505,0.7401171303074671
0.006297165771629505,0.7404831625183016
0.006307241236864112,0.7404831625183016
0.006307241236864112,0.7405746705710102
0.006317316702098719,0.7405746705710102
0.006317316702098719,0.7413067349926794
0.006322354434716023,0.7413067349926794
0.006322354434716023,0.741398243045388
0.006347543097802541,0.741398243045388
0.006347543097802541,0.7414897510980967
0.006352580830419845,0.7414897510980967
0.006352580830419845,0.7415812591508053
0.006357618563037148,0.7415812591508053
0.006357618563037148,0.7417642752562226
0.006367694028271756,0.7417642752562226
0.006367694028271756,0.7420387994143485
0.006377769493506363,0.7420387994143485
0.006377769493506363,0.7421303074670571
0.0063928826913582735,0.7421303074670571
0.0063928826913582735,0.7424963396778916
0.006397920423975577,0.7424963396778916
0.006397920423975577,0.7428623718887262
0.006423109087062095,0.7428623718887262
0.006423109087062095,0.7429538799414348
0.006428146819679399,0.7429538799414348
0.006428146819679399,0.7431368960468521
0.006433184552296702,0.7431368960468521
0.006433184552296702,0.7434114202049781
0.006438222284914006,0.7434114202049781
0.006438222284914006,0.7435029282576867
0.006448297750148613,0.7435029282576867
0.006448297750148613,0.7435944363103953
0.006453335482765917,0.7435944363103953
0.006453335482765917,0.7437774524158126
0.0064734864132351315,0.7437774524158126
0.0064734864132351315,0.7438689604685212
0.006493637343704345,0.7438689604685212
0.006493637343704345,0.7441434846266471
0.006498675076321649,0.7441434846266471
0.006498675076321649,0.7442349926793558
0.00651378827417356,0.7442349926793558
0.00651378827417356,0.7445095168374817
0.006518826006790863,0.7445095168374817
0.006518826006790863,0.7449670571010248
0.006523863739408167,0.7449670571010248
0.006523863739408167,0.7451500732064422
0.006528901472025471,0.7451500732064422
0.006528901472025471,0.7452415812591509
0.006538976937260078,0.7452415812591509
0.006538976937260078,0.7453330893118595
0.006559127867729293,0.7453330893118595
0.006559127867729293,0.7456076134699854
0.0065792787981985065,0.7456076134699854
0.0065792787981985065,0.7459736456808199
0.00658431653081581,0.7459736456808199
0.00658431653081581,0.7462481698389458
0.006589354263433114,0.7462481698389458
0.006589354263433114,0.7463396778916545
0.006599429728667721,0.7463396778916545
0.006599429728667721,0.7464311859443631
0.006604467461285025,0.7464311859443631
0.006604467461285025,0.746705710102489
0.006609505193902328,0.746705710102489
0.006609505193902328,0.7468887262079063
0.006614542926519632,0.7468887262079063
0.006614542926519632,0.7477122986822841
0.006619580659136936,0.7477122986822841
0.006619580659136936,0.7478038067349927
0.006624618391754239,0.7478038067349927
0.006624618391754239,0.74798682284041
0.006629656124371543,0.74798682284041
0.006629656124371543,0.7482613469985359
0.006644769322223454,0.7482613469985359
0.006644769322223454,0.7483528550512445
0.006654844787458061,0.7483528550512445
0.006654844787458061,0.7484443631039531
0.006669957985309971,0.7484443631039531
0.006669957985309971,0.7486273792093704
0.006674995717927275,0.7486273792093704
0.006674995717927275,0.7488103953147877
0.00669514664839649,0.7488103953147877
0.00669514664839649,0.7489019033674963
0.006700184381013793,0.7489019033674963
0.006700184381013793,0.7491764275256223
0.006705222113631097,0.7491764275256223
0.006705222113631097,0.7494509516837482
0.006730410776717615,0.7494509516837482
0.006730410776717615,0.7497254758418741
0.0067404862419522225,0.7497254758418741
0.0067404862419522225,0.75
0.0067505617071868295,0.75
0.0067505617071868295,0.7505490483162518
0.006760637172421436,0.7505490483162518
0.006760637172421436,0.7508235724743777
0.006785825835507954,0.7508235724743777
0.006785825835507954,0.7510065885797951
0.006790863568125258,0.7510065885797951
0.006790863568125258,0.7510980966325037
0.006800939033359865,0.7510980966325037
0.006800939033359865,0.751281112737921
0.006816052231211776,0.751281112737921
0.006816052231211776,0.7514641288433382
0.00682108996382908,0.7514641288433382
0.00682108996382908,0.7515556368960469
0.006826127696446384,0.7515556368960469
0.006826127696446384,0.7516471449487555
0.0068412408942982944,0.7516471449487555
0.0068412408942982944,0.7519216691068814
0.006851316359532901,0.7519216691068814
0.006851316359532901,0.75201317715959
0.006856354092150205,0.75201317715959
0.006856354092150205,0.7521046852122987
0.006861391824767508,0.7521046852122987
0.006861391824767508,0.7521961932650073
0.00689161822047133,0.7521961932650073
0.00689161822047133,0.7524707174231332
0.006896655953088634,0.7524707174231332
0.006896655953088634,0.7526537335285505
0.006901693685705938,0.7526537335285505
0.006901693685705938,0.7528367496339677
0.00694703327926167,0.7528367496339677
0.00694703327926167,0.7532027818448024
0.006952071011878973,0.7532027818448024
0.006952071011878973,0.753294289897511
0.006957108744496277,0.753294289897511
0.006957108744496277,0.7533857979502196
0.006962146477113581,0.7533857979502196
0.006962146477113581,0.7537518301610542
0.006987335140200099,0.7537518301610542
0.006987335140200099,0.7538433382137628
0.006992372872817403,0.7538433382137628
0.006992372872817403,0.7540263543191801
0.006997410605434706,0.7540263543191801
0.006997410605434706,0.7545754026354319
0.00700244833805201,0.7545754026354319
0.00700244833805201,0.7546669106881405
0.007022599268521224,0.7546669106881405
0.007022599268521224,0.7547584187408491
0.007027637001138527,0.7547584187408491
0.007027637001138527,0.7549414348462665
0.007042750198990438,0.7549414348462665
0.007042750198990438,0.7551244509516838
0.007057863396842349,0.7551244509516838
0.007057863396842349,0.7553074670571011
0.007062901129459653,0.7553074670571011
0.007062901129459653,0.7553989751098097
0.00707297659469426,0.7553989751098097
0.00707297659469426,0.7554904831625183
0.007088089792546171,0.7554904831625183
0.007088089792546171,0.7560395314787701
0.0071082407230153855,0.7560395314787701
0.0071082407230153855,0.7561310395314788
0.0071132784556326885,0.7561310395314788
0.0071132784556326885,0.756314055636896
0.00714350485133651,0.756314055636896
0.00714350485133651,0.7564055636896047
0.007148542583953814,0.7564055636896047
0.007148542583953814,0.7564970717423133
0.007153580316571118,0.7564970717423133
0.007153580316571118,0.7565885797950219
0.007163655781805725,0.7565885797950219
0.007163655781805725,0.7566800878477306
0.007173731247040332,0.7566800878477306
0.007173731247040332,0.7568631039531479
0.007178768979657636,0.7568631039531479
0.007178768979657636,0.7569546120058566
0.007188844444892243,0.7569546120058566
0.007188844444892243,0.7571376281112738
0.0071938821775095465,0.7571376281112738
0.0071938821775095465,0.7574121522693997
0.00719891991012685,0.7574121522693997
0.00719891991012685,0.7577781844802343
0.007208995375361457,0.7577781844802343
0.007208995375361457,0.7578696925329429
0.007229146305830672,0.7578696925329429
0.007229146305830672,0.7579612005856515
0.007234184038447975,0.7579612005856515
0.007234184038447975,0.7580527086383602
0.007239221771065279,0.7580527086383602
0.007239221771065279,0.7581442166910688
0.007259372701534494,0.7581442166910688
0.007259372701534494,0.7583272327964861
0.007264410434151797,0.7583272327964861
0.007264410434151797,0.7584187408491947
0.007274485899386405,0.7584187408491947
0.007274485899386405,0.7585102489019033
0.007279523632003708,0.7585102489019033
0.007279523632003708,0.758601756954612
0.007299674562472922,0.758601756954612
0.007299674562472922,0.7590592972181552
0.007314787760324833,0.7590592972181552
0.007314787760324833,0.7591508052708639
0.007319825492942136,0.7591508052708639
0.007319825492942136,0.7592423133235725
0.00732486322555944,0.7592423133235725
0.00732486322555944,0.7593338213762811
0.007334938690794047,0.7593338213762811
0.007334938690794047,0.7596998535871157
0.007345014156028655,0.7596998535871157
0.007345014156028655,0.7599743777452416
0.007355089621263262,0.7599743777452416
0.007355089621263262,0.7601573938506588
0.007365165086497869,0.7601573938506588
0.007365165086497869,0.760614934114202
0.007370202819115173,0.760614934114202
0.007370202819115173,0.7607064421669106
0.0073802782843497795,0.7607064421669106
0.0073802782843497795,0.7607979502196194
0.00739539148220169,0.7607979502196194
0.00739539148220169,0.7609809663250366
0.007400429214818994,0.7609809663250366
0.007400429214818994,0.7612554904831625
0.007450806540992031,0.7612554904831625
0.007450806540992031,0.7613469985358712
0.007455844273609334,0.7613469985358712
0.007455844273609334,0.7617130307467057
0.0074659197388439414,0.7617130307467057
0.0074659197388439414,0.7618045387994143
0.007475995204078548,0.7618045387994143
0.007475995204078548,0.761896046852123
0.007491108401930459,0.761896046852123
0.007491108401930459,0.7620790629575402
0.007511259332399674,0.7620790629575402
0.007511259332399674,0.7624450951683748
0.007526372530251585,0.7624450951683748
0.007526372530251585,0.7625366032210834
0.007536447995486192,0.7625366032210834
0.007536447995486192,0.762628111273792
0.00757674985642462,0.762628111273792
0.00757674985642462,0.7627196193265008
0.007612013984745746,0.7627196193265008
0.007612013984745746,0.7629941434846267
0.007637202647832264,0.7629941434846267
0.007637202647832264,0.7630856515373353
0.0076422403804495675,0.7630856515373353
0.0076422403804495675,0.763177159590044
0.007652315845684174,0.763177159590044
0.007652315845684174,0.7632686676427526
0.007667429043536085,0.7632686676427526
0.007667429043536085,0.7633601756954612
0.007677504508770692,0.7633601756954612
0.007677504508770692,0.7636346998535871
0.007682542241387996,0.7636346998535871
0.007682542241387996,0.7637262079062958
0.007702693171857211,0.7637262079062958
0.007702693171857211,0.7638177159590044
0.007712768637091818,0.7638177159590044
0.007712768637091818,0.7640007320644217
0.007742995032795639,0.7640007320644217
0.007742995032795639,0.7640922401171303
0.007748032765412943,0.7640922401171303
0.007748032765412943,0.7641837481698389
0.00775810823064755,0.7641837481698389
0.00775810823064755,0.7643667642752562
0.007773221428499461,0.7643667642752562
0.007773221428499461,0.7646412884333821
0.007783296893734068,0.7646412884333821
0.007783296893734068,0.7650073206442167
0.007793372358968676,0.7650073206442167
0.007793372358968676,0.7650988286969254
0.007803447824203283,0.7650988286969254
0.007803447824203283,0.765190336749634
0.007808485556820587,0.765190336749634
0.007808485556820587,0.7652818448023426
0.007823598754672497,0.7652818448023426
0.007823598754672497,0.7653733528550513
0.0078286364872898,0.7653733528550513
0.0078286364872898,0.7654648609077599
0.007833674219907103,0.7654648609077599
0.007833674219907103,0.7655563689604685
0.007838711952524408,0.7655563689604685
0.007838711952524408,0.7657393850658858
0.007848787417759014,0.7657393850658858
0.007848787417759014,0.7659224011713031
0.007889089278697444,0.7659224011713031
0.007889089278697444,0.7660139092240117
0.007894127011314747,0.7660139092240117
0.007894127011314747,0.766196925329429
0.007904202476549355,0.766196925329429
0.007904202476549355,0.7663799414348462
0.007929391139635873,0.7663799414348462
0.007929391139635873,0.7664714494875549
0.00793946660487048,0.7664714494875549
0.00793946660487048,0.7666544655929722
0.007944504337487784,0.7666544655929722
0.007944504337487784,0.7668374816983895
0.007949542070105087,0.7668374816983895
0.007949542070105087,0.7669289897510981
0.007959617535339695,0.7669289897510981
0.007959617535339695,0.7670204978038068
0.007969693000574301,0.7670204978038068
0.007969693000574301,0.7673865300146413
0.007984806198426212,0.7673865300146413
0.007984806198426212,0.7679355783308931
0.007989843931043517,0.7679355783308931
0.007989843931043517,0.7680270863836017
0.00799488166366082,0.7680270863836017
0.00799488166366082,0.7683016105417276
0.008020070326747338,0.7683016105417276
0.008020070326747338,0.7683931185944363
0.008025108059364641,0.7683931185944363
0.008025108059364641,0.7684846266471449
0.008030145791981944,0.7684846266471449
0.008030145791981944,0.7686676427525623
0.008035183524599249,0.7686676427525623
0.008035183524599249,0.7687591508052709
0.00805029672245116,0.7687591508052709
0.00805029672245116,0.7689421669106882
0.008080523118154982,0.7689421669106882
0.008080523118154982,0.7691251830161054
0.008085560850772285,0.7691251830161054
0.008085560850772285,0.7693997071742313
0.008090598583389588,0.7693997071742313
0.008090598583389588,0.76949121522694
0.008105711781241498,0.76949121522694
0.008105711781241498,0.7696742313323572
0.008110749513858803,0.7696742313323572
0.008110749513858803,0.7697657393850659
0.008115787246476106,0.7697657393850659
0.008115787246476106,0.7698572474377745
0.00813593817694532,0.7698572474377745
0.00813593817694532,0.7699487554904831
0.008140975909562625,0.7699487554904831
0.008140975909562625,0.7701317715959004
0.008151051374797231,0.7701317715959004
0.008151051374797231,0.7703147877013177
0.008171202305266446,0.7703147877013177
0.008171202305266446,0.7704062957540263
0.00817624003788375,0.7704062957540263
0.00817624003788375,0.7704978038067349
0.008186315503118357,0.7704978038067349
0.008186315503118357,0.7705893118594437
0.008196390968352963,0.7705893118594437
0.008196390968352963,0.7706808199121523
0.008221579631439482,0.7706808199121523
0.008221579631439482,0.770772327964861
0.00823165509667409,0.770772327964861
0.00823165509667409,0.7709553440702782
0.008241730561908696,0.7709553440702782
0.008241730561908696,0.7710468521229868
0.00826188149237791,0.7710468521229868
0.00826188149237791,0.7711383601756955
0.008271956957612518,0.7711383601756955
0.008271956957612518,0.7712298682284041
0.008292107888081731,0.7712298682284041
0.008292107888081731,0.7713213762811127
0.008307221085933642,0.7713213762811127
0.008307221085933642,0.7715959004392386
0.008322334283785553,0.7715959004392386
0.008322334283785553,0.7718704245973645
0.008327372016402858,0.7718704245973645
0.008327372016402858,0.7720534407027818
0.00833240974902016,0.7720534407027818
0.00833240974902016,0.7722364568081991
0.008352560679489375,0.7722364568081991
0.008352560679489375,0.7726939970717424
0.00835759841210668,0.7726939970717424
0.00835759841210668,0.772785505124451
0.008362636144723982,0.772785505124451
0.008362636144723982,0.7729685212298683
0.008382787075193196,0.7729685212298683
0.008382787075193196,0.7733345534407028
0.008387824807810501,0.7733345534407028
0.008387824807810501,0.7737005856515373
0.008402938005662412,0.7737005856515373
0.008402938005662412,0.773792093704246
0.008407975738279715,0.773792093704246
0.008407975738279715,0.7739751098096632
0.008428126668748929,0.7739751098096632
0.008428126668748929,0.7740666178623719
0.008438202133983537,0.7740666178623719
0.008438202133983537,0.7742496339677891
0.008463390797070055,0.7742496339677891
0.008463390797070055,0.7743411420204978
0.008483541727539269,0.7743411420204978
0.008483541727539269,0.7744326500732065
0.00849865492539118,0.7744326500732065
0.00849865492539118,0.7746156661786238
0.00851376812324309,0.7746156661786238
0.00851376812324309,0.7749816983894583
0.008518805855860394,0.7749816983894583
0.008518805855860394,0.7752562225475842
0.008528881321095002,0.7752562225475842
0.008528881321095002,0.7754392386530015
0.008533919053712305,0.7754392386530015
0.008533919053712305,0.7755307467057101
0.00853895678632961,0.7755307467057101
0.00853895678632961,0.7756222547584187
0.008549032251564215,0.7756222547584187
0.008549032251564215,0.7757137628111274
0.00855406998418152,0.7757137628111274
0.00855406998418152,0.7759882869692533
0.008569183182033431,0.7759882869692533
0.008569183182033431,0.7762628111273792
0.008599409577737253,0.7762628111273792
0.008599409577737253,0.7766288433382138
0.008614522775589164,0.7766288433382138
0.008614522775589164,0.7767203513909224
0.008619560508206467,0.7767203513909224
0.008619560508206467,0.7768118594436311
0.00862459824082377,0.7768118594436311
0.00862459824082377,0.7769948755490483
0.008629635973441074,0.7769948755490483
0.008629635973441074,0.777086383601757
0.00863971143867568,0.777086383601757
0.00863971143867568,0.7771778916544656
0.008644749171292985,0.7771778916544656
0.008644749171292985,0.7772693997071742
0.008649786903910288,0.7772693997071742
0.008649786903910288,0.7773609077598829
0.008690088764848718,0.7773609077598829
0.008690088764848718,0.7774524158125915
0.00872031516055254,0.7774524158125915
0.00872031516055254,0.7775439238653001
0.008725352893169842,0.7775439238653001
0.008725352893169842,0.7776354319180088
0.008750541556256361,0.7776354319180088
0.008750541556256361,0.7777269399707174
0.008760617021490967,0.7777269399707174
0.008760617021490967,0.7779099560761347
0.008785805684577486,0.7779099560761347
0.008785805684577486,0.7780014641288433
0.008795881149812092,0.7780014641288433
0.008795881149812092,0.7780929721815519
0.008816032080281307,0.7780929721815519
0.008816032080281307,0.7781844802342606
0.008841220743367824,0.7781844802342606
0.008841220743367824,0.7783674963396779
0.008856333941219735,0.7783674963396779
0.008856333941219735,0.7785505124450952
0.00886137167383704,0.7785505124450952
0.00886137167383704,0.7789165446559297
0.008866409406454343,0.7789165446559297
0.008866409406454343,0.7790080527086384
0.008871447139071646,0.7790080527086384
0.008871447139071646,0.779099560761347
0.00887648487168895,0.779099560761347
0.00887648487168895,0.7793740849194729
0.008906711267392772,0.7793740849194729
0.008906711267392772,0.7795571010248902
0.008911749000010075,0.7795571010248902
0.008911749000010075,0.7796486090775988
0.008916786732627378,0.7796486090775988
0.008916786732627378,0.7798316251830161
0.008926862197861986,0.7798316251830161
0.008926862197861986,0.7800146412884333
0.008936937663096594,0.7800146412884333
0.008936937663096594,0.7801976573938506
0.008957088593565808,0.7801976573938506
0.008957088593565808,0.7805636896046853
0.00896212632618311,0.7805636896046853
0.00896212632618311,0.7806551976573939
0.008977239524035022,0.7806551976573939
0.008977239524035022,0.7807467057101025
0.008982277256652326,0.7807467057101025
0.008982277256652326,0.7808382137628112
0.00898731498926963,0.7808382137628112
0.00898731498926963,0.7809297218155198
0.008992352721886933,0.7809297218155198
0.008992352721886933,0.781112737920937
0.00900242818712154,0.781112737920937
0.00900242818712154,0.7812042459736457
0.009007465919738843,0.7812042459736457
0.009007465919738843,0.7812957540263543
0.009032654582825362,0.7812957540263543
0.009032654582825362,0.781387262079063
0.009037692315442665,0.781387262079063
0.009037692315442665,0.7814787701317716
0.00905784324591188,0.7814787701317716
0.00905784324591188,0.7816617862371888
0.009062880978529184,0.7816617862371888
0.009062880978529184,0.7818448023426061
0.009067918711146487,0.7818448023426061
0.009067918711146487,0.7819363103953147
0.009072956443763791,0.7819363103953147
0.009072956443763791,0.7820278184480234
0.009077994176381094,0.7820278184480234
0.009077994176381094,0.782119326500732
0.009083031908998397,0.782119326500732
0.009083031908998397,0.7823023426061494
0.009088069641615702,0.7823023426061494
0.009088069641615702,0.782393850658858
0.009093107374233005,0.782393850658858
0.009093107374233005,0.7824853587115667
0.00911325830470222,0.7824853587115667
0.00911325830470222,0.7826683748169839
0.009148522433023346,0.7826683748169839
0.009148522433023346,0.7827598828696926
0.009158597898257952,0.7827598828696926
0.009158597898257952,0.7828513909224012
0.00916867336349256,0.7828513909224012
0.00916867336349256,0.7830344070278185
0.009173711096109862,0.7830344070278185
0.009173711096109862,0.7832174231332357
0.009178748828727167,0.7832174231332357
0.009178748828727167,0.783400439238653
0.00918378656134447,0.783400439238653
0.00918378656134447,0.7836749633967789
0.009188824293961773,0.7836749633967789
0.009188824293961773,0.7838579795021962
0.009193862026579078,0.7838579795021962
0.009193862026579078,0.7840409956076134
0.0092240884222829,0.7840409956076134
0.0092240884222829,0.7841325036603221
0.009254314817986721,0.7841325036603221
0.009254314817986721,0.7843155197657394
0.009264390283221327,0.7843155197657394
0.009264390283221327,0.7844985358711567
0.009274465748455935,0.7844985358711567
0.009274465748455935,0.7845900439238653
0.009284541213690543,0.7845900439238653
0.009284541213690543,0.784681551976574
0.009294616678925149,0.784681551976574
0.009294616678925149,0.7849560761346999
0.009299654411542452,0.7849560761346999
0.009299654411542452,0.7851390922401171
0.009304692144159757,0.7851390922401171
0.009304692144159757,0.7852306002928258
0.00930972987677706,0.7852306002928258
0.00930972987677706,0.7853221083455344
0.009319805342011668,0.7853221083455344
0.009319805342011668,0.7855051244509517
0.00932484307462897,0.7855051244509517
0.00932484307462897,0.7855966325036603
0.009329880807246274,0.7855966325036603
0.009329880807246274,0.7856881405563689
0.009334918539863579,0.7856881405563689
0.009334918539863579,0.7857796486090776
0.009355069470332792,0.7857796486090776
0.009355069470332792,0.7859626647144948
0.009360107202950095,0.7859626647144948
0.009360107202950095,0.7860541727672035
0.009370182668184703,0.7860541727672035
0.009370182668184703,0.7861456808199122
0.009385295866036614,0.7861456808199122
0.009385295866036614,0.7863286969253295
0.009395371331271222,0.7863286969253295
0.009395371331271222,0.7865117130307467
0.009415522261740436,0.7865117130307467
0.009415522261740436,0.7868777452415813
0.009420559994357739,0.7868777452415813
0.009420559994357739,0.7869692532942899
0.00943567319220965,0.7869692532942899
0.00943567319220965,0.7872437774524158
0.009440710924826954,0.7872437774524158
0.009440710924826954,0.7873352855051244
0.009455824122678865,0.7873352855051244
0.009455824122678865,0.7875183016105417
0.009460861855296168,0.7875183016105417
0.009460861855296168,0.787701317715959
0.009470937320530776,0.787701317715959
0.009470937320530776,0.7879758418740849
0.009481012785765382,0.7879758418740849
0.009481012785765382,0.7880673499267935
0.009486050518382687,0.7880673499267935
0.009486050518382687,0.7883418740849195
0.00953139011193842,0.7883418740849195
0.00953139011193842,0.7886163982430454
0.009536427844555722,0.7886163982430454
0.009536427844555722,0.788707906295754
0.009551541042407633,0.788707906295754
0.009551541042407633,0.7887994143484627
0.009571691972876847,0.7887994143484627
0.009571691972876847,0.7888909224011713
0.009576729705494152,0.7888909224011713
0.009576729705494152,0.78898243045388
0.009581767438111455,0.78898243045388
0.009581767438111455,0.7890739385065886
0.009586805170728758,0.7890739385065886
0.009586805170728758,0.7891654465592972
0.009611993833815276,0.7891654465592972
0.009611993833815276,0.7892569546120058
0.00961703156643258,0.7892569546120058
0.00961703156643258,0.7893484626647145
0.009622069299049884,0.7893484626647145
0.009622069299049884,0.7894399707174231
0.009652295694753706,0.7894399707174231
0.009652295694753706,0.7898060029282576
0.009657333427371009,0.7898060029282576
0.009657333427371009,0.7898975109809663
0.00967244662522292,0.7898975109809663
0.00967244662522292,0.7900805270863837
0.009677484357840223,0.7900805270863837
0.009677484357840223,0.7901720351390923
0.009682522090457528,0.7901720351390923
0.009682522090457528,0.7908125915080527
0.00968755982307483,0.7908125915080527
0.00968755982307483,0.7909040995607614
0.009697635288309438,0.7909040995607614
0.009697635288309438,0.79099560761347
0.009707710753544044,0.79099560761347
0.009707710753544044,0.7910871156661786
0.009722823951395955,0.7910871156661786
0.009722823951395955,0.7912701317715959
0.00972786168401326,0.7912701317715959
0.00972786168401326,0.7914531478770132
0.009737937149247866,0.7914531478770132
0.009737937149247866,0.7915446559297218
0.009742974881865171,0.7915446559297218
0.009742974881865171,0.7916361639824304
0.009753050347099777,0.7916361639824304
0.009753050347099777,0.791727672035139
0.009768163544951688,0.791727672035139
0.009768163544951688,0.7920937042459737
0.009773201277568993,0.7920937042459737
0.009773201277568993,0.7924597364568082
0.00981350313850742,0.7924597364568082
0.00981350313850742,0.7928257686676428
0.009833654068976634,0.7928257686676428
0.009833654068976634,0.7931002928257687
0.009838691801593939,0.7931002928257687
0.009838691801593939,0.7931918008784773
0.009843729534211242,0.7931918008784773
0.009843729534211242,0.7932833089311859
0.009848767266828545,0.7932833089311859
0.009848767266828545,0.7933748169838946
0.00986891819729776,0.7933748169838946
0.00986891819729776,0.7934663250366032
0.009873955929915064,0.7934663250366032
0.009873955929915064,0.7935578330893118
0.009889069127766974,0.7935578330893118
0.009899144593001582,0.7935578330893118
0.009919295523470796,0.7935578330893118
0.009919295523470796,0.7936493411420205
0.009929370988705404,0.7936493411420205
0.009929370988705404,0.7938323572474377
0.00993944645394001,0.7938323572474377
0.00993944645394001,0.7939238653001464
0.009949521919174618,0.7939238653001464
0.009949521919174618,0.7940153733528551
0.009959597384409226,0.7940153733528551
0.009959597384409226,0.794289897510981
0.009964635117026529,0.794289897510981
0.009964635117026529,0.7943814055636896
0.009974710582261136,0.7943814055636896
0.009974710582261136,0.7944729136163983
0.009999899245347653,0.7944729136163983
0.009999899245347653,0.7945644216691069
0.010004936977964958,0.7945644216691069
0.010004936977964958,0.7946559297218155
0.010015012443199564,0.7946559297218155
0.010015012443199564,0.7947474377745242
0.010020050175816869,0.7947474377745242
0.010020050175816869,0.7948389458272328
0.010030125641051475,0.7948389458272328
0.010030125641051475,0.7952049780380673
0.01003516337366878,0.7952049780380673
0.01003516337366878,0.795296486090776
0.010040201106286083,0.795296486090776
0.010040201106286083,0.7954795021961932
0.010090578432459118,0.7954795021961932
0.010090578432459118,0.7955710102489019
0.010115767095545637,0.7955710102489019
0.010115767095545637,0.7956625183016105
0.010140955758632155,0.7956625183016105
0.010140955758632155,0.7957540263543191
0.010156068956484066,0.7957540263543191
0.010156068956484066,0.7960285505124451
0.010166144421718672,0.7960285505124451
0.010166144421718672,0.7966691068814056
0.010171182154335977,0.7966691068814056
0.010171182154335977,0.7967606149341142
0.010191333084805191,0.7967606149341142
0.010191333084805191,0.7968521229868228
0.010211484015274405,0.7968521229868228
0.010211484015274405,0.7969436310395315
0.01021652174789171,0.7969436310395315
0.01021652174789171,0.7970351390922401
0.010221559480509013,0.7970351390922401
0.010221559480509013,0.7971266471449487
0.010226597213126316,0.7971266471449487
0.010226597213126316,0.7972181551976574
0.010236672678360923,0.7972181551976574
0.010236672678360923,0.7974926793557833
0.010251785876212834,0.7974926793557833
0.010251785876212834,0.7975841874084919
0.01030216320238587,0.7975841874084919
0.01030216320238587,0.7976756954612005
0.01031727640023778,0.7976756954612005
0.01031727640023778,0.7977672035139092
0.010352540528558907,0.7977672035139092
0.010352540528558907,0.7978587115666179
0.01035757826117621,0.7978587115666179
0.01035757826117621,0.7979502196193266
0.010362615993793513,0.7979502196193266
0.010362615993793513,0.7980417276720352
0.010377729191645424,0.7980417276720352
0.010377729191645424,0.7981332357247438
0.010382766924262727,0.7981332357247438
0.010382766924262727,0.7982247437774525
0.010387804656880032,0.7982247437774525
0.010387804656880032,0.798590775988287
0.010392842389497335,0.798590775988287
0.010392842389497335,0.7986822840409956
0.010397880122114638,0.7986822840409956
0.010397880122114638,0.7988653001464129
0.010402917854731943,0.7988653001464129
0.010402917854731943,0.7989568081991215
0.010412993319966549,0.7989568081991215
0.010412993319966549,0.7990483162518301
0.010418031052583853,0.7990483162518301
0.010418031052583853,0.7991398243045388
0.010423068785201156,0.7991398243045388
0.010423068785201156,0.7992313323572474
0.010438181983053067,0.7992313323572474
0.010438181983053067,0.799322840409956
0.010453295180904978,0.799322840409956
0.010453295180904978,0.7994143484626647
0.010463370646139586,0.7994143484626647
0.010463370646139586,0.7995058565153733
0.010473446111374192,0.7995058565153733
0.010473446111374192,0.799597364568082
0.010493597041843408,0.799597364568082
0.010493597041843408,0.7996888726207906
0.010513747972312621,0.7996888726207906
0.010513747972312621,0.7999633967789166
0.010518785704929924,0.7999633967789166
0.010518785704929924,0.8000549048316252
0.010533898902781835,0.8000549048316252
0.010533898902781835,0.8002379209370425
0.010549012100633746,0.8002379209370425
0.010549012100633746,0.8004209370424598
0.010559087565868354,0.8004209370424598
0.010559087565868354,0.8005124450951684
0.010569163031102962,0.8005124450951684
0.010569163031102962,0.800603953147877
0.010579238496337568,0.800603953147877
0.010579238496337568,0.8006954612005857
0.010584276228954873,0.8006954612005857
0.010584276228954873,0.8008784773060029
0.010604427159424086,0.8008784773060029
0.010604427159424086,0.8009699853587116
0.010614502624658694,0.8009699853587116
0.010614502624658694,0.8012445095168375
0.010644729020362516,0.8012445095168375
0.010644729020362516,0.8013360175695461
0.01066487995083173,0.8013360175695461
0.01066487995083173,0.8014275256222547
0.010669917683449033,0.8014275256222547
0.010669917683449033,0.8015190336749634
0.010674955416066337,0.8015190336749634
0.010674955416066337,0.801610541727672
0.01067999314868364,0.801610541727672
0.01067999314868364,0.8017020497803806
0.010685030881300944,0.8017020497803806
0.010685030881300944,0.8017935578330894
0.010690068613918248,0.8017935578330894
0.010690068613918248,0.8020680819912153
0.010695106346535551,0.8020680819912153
0.010695106346535551,0.8021595900439239
0.010710219544387462,0.8021595900439239
0.010710219544387462,0.8023426061493412
0.010715257277004765,0.8023426061493412
0.010715257277004765,0.8025256222547584
0.01072029500962207,0.8025256222547584
0.01072029500962207,0.8026171303074671
0.010730370474856676,0.8026171303074671
0.010730370474856676,0.8027086383601757
0.010740445940091284,0.8027086383601757
0.010740445940091284,0.8028001464128843
0.010760596870560498,0.8028001464128843
0.010760596870560498,0.802891654465593
0.010770672335795105,0.802891654465593
0.010770672335795105,0.8029831625183016
0.010780747801029713,0.8029831625183016
0.010780747801029713,0.8030746705710102
0.01079082326626432,0.8030746705710102
0.01079082326626432,0.8031661786237189
0.01080593646411623,0.8031661786237189
0.01080593646411623,0.8032576866764275
0.010810974196733535,0.8032576866764275
0.010810974196733535,0.8033491947291361
0.010821049661968141,0.8033491947291361
0.010821049661968141,0.8034407027818448
0.010826087394585446,0.8034407027818448
0.010826087394585446,0.8035322108345534
0.010836162859820052,0.8035322108345534
0.010836162859820052,0.803623718887262
0.010851276057671963,0.803623718887262
0.010851276057671963,0.8038067349926794
0.010886540185993089,0.8038067349926794
0.010886540185993089,0.8039897510980967
0.010896615651227695,0.8039897510980967
0.010896615651227695,0.8042642752562226
0.010901653383844998,0.8042642752562226
0.010901653383844998,0.8043557833089312
0.010926842046931517,0.8043557833089312
0.010926842046931517,0.8045387994143485
0.010936917512166125,0.8045387994143485
0.010936917512166125,0.8046303074670571
0.010957068442635338,0.8046303074670571
0.010957068442635338,0.8047218155197657
0.01098729483833916,0.8047218155197657
0.01098729483833916,0.8048133235724744
0.010992332570956463,0.8048133235724744
0.010992332570956463,0.8050878477306003
0.010997370303573768,0.8050878477306003
0.010997370303573768,0.8051793557833089
0.011022558966660285,0.8051793557833089
0.011022558966660285,0.8052708638360175
0.011032634431894893,0.8052708638360175
0.011032634431894893,0.8053623718887262
0.011062860827598714,0.8053623718887262
0.011062860827598714,0.8055453879941434
0.011083011758067928,0.8055453879941434
0.011083011758067928,0.8056368960468521
0.011093087223302536,0.8056368960468521
0.011093087223302536,0.8059114202049781
0.011098124955919839,0.8059114202049781
0.011098124955919839,0.8060029282576867
0.011103162688537144,0.8060029282576867
0.011103162688537144,0.8060944363103953
0.011118275886389055,0.8060944363103953
0.011118275886389055,0.806185944363104
0.011133389084240965,0.806185944363104
0.011133389084240965,0.8062774524158126
0.01115354001471018,0.8062774524158126
0.01115354001471018,0.8063689604685212
0.011163615479944787,0.8063689604685212
0.011163615479944787,0.8064604685212299
0.011173690945179393,0.8064604685212299
0.011173690945179393,0.8066434846266471
0.011203917340883215,0.8066434846266471
0.011203917340883215,0.8067349926793558
0.01120895507350052,0.8067349926793558
0.01120895507350052,0.8068265007320644
0.011219030538735126,0.8068265007320644
0.011219030538735126,0.8070095168374817
0.01122406827135243,0.8070095168374817
0.01122406827135243,0.8071010248901903
0.011244219201821644,0.8071010248901903
0.011244219201821644,0.8071925329428989
0.011264370132290858,0.8071925329428989
0.011264370132290858,0.8073755490483162
0.011274445597525466,0.8073755490483162
0.011274445597525466,0.8076500732064422
0.01129459652799468,0.8076500732064422
0.01129459652799468,0.8077415812591509
0.011324822923698501,0.8077415812591509
0.011324822923698501,0.8079245973645681
0.01133489838893311,0.8079245973645681
0.01133489838893311,0.8080161054172768
0.011344973854167717,0.8080161054172768
0.011344973854167717,0.8081076134699854
0.01135001158678502,0.8081076134699854
0.01135001158678502,0.808199121522694
0.011375200249871539,0.808199121522694
0.011375200249871539,0.8082906295754027
0.011380237982488842,0.8082906295754027
0.011380237982488842,0.8084736456808199
0.011395351180340752,0.8084736456808199
0.011395351180340752,0.8087481698389458
0.011400388912958056,0.8087481698389458
0.011400388912958056,0.8090226939970717
0.011420539843427271,0.8090226939970717
0.011420539843427271,0.8091142020497804
0.011440690773896485,0.8091142020497804
0.011440690773896485,0.809205710102489
0.011465879436983002,0.809205710102489
0.011465879436983002,0.8094802342606149
0.01147595490221761,0.8094802342606149
0.01147595490221761,0.8096632503660323
0.011501143565304128,0.8096632503660323
0.011501143565304128,0.8097547584187409
0.011526332228390645,0.8097547584187409
0.011526332228390645,0.8098462664714495
0.01153136996100795,0.8098462664714495
0.01153136996100795,0.8099377745241582
0.011551520891477164,0.8099377745241582
0.011551520891477164,0.8100292825768668
0.011566634089329075,0.8100292825768668
0.011566634089329075,0.8101207906295754
0.011591822752415593,0.8101207906295754
0.011591822752415593,0.8102122986822841
0.011611973682884807,0.8102122986822841
0.011611973682884807,0.8103953147877013
0.011627086880736718,0.8103953147877013
0.011627086880736718,0.8105783308931186
0.011647237811205932,0.8105783308931186
0.011647237811205932,0.8106698389458272
0.01165731327644054,0.8106698389458272
0.01165731327644054,0.8107613469985359
0.011662351009057843,0.8107613469985359
0.011662351009057843,0.8108528550512445
0.011677464206909753,0.8108528550512445
0.011677464206909753,0.8109443631039531
0.011702652869996272,0.8109443631039531
0.011702652869996272,0.8114934114202049
0.011717766067848183,0.8114934114202049
0.011717766067848183,0.8115849194729137
0.011732879265700094,0.8115849194729137
0.011732879265700094,0.8116764275256223
0.011742954730934702,0.8116764275256223
0.011742954730934702,0.8117679355783309
0.011753030196169308,0.8117679355783309
0.011753030196169308,0.8120424597364568
0.011758067928786612,0.8120424597364568
0.011758067928786612,0.8122254758418741
0.011763105661403915,0.8122254758418741
0.011763105661403915,0.8124084919472914
0.011793332057107737,0.8124084919472914
0.011793332057107737,0.8125
0.011808445254959648,0.8125
0.011808445254959648,0.8127745241581259
0.011813482987576951,0.8127745241581259
0.011813482987576951,0.8128660322108345
0.011818520720194256,0.8128660322108345
0.011818520720194256,0.8129575402635432
0.01183867165066347,0.8129575402635432
0.01183867165066347,0.8132320644216691
0.01185378484851538,0.8132320644216691
0.01185378484851538,0.8134150805270863
0.011873935778984594,0.8134150805270863
0.011873935778984594,0.8135065885797951
0.01189408670945381,0.8135065885797951
0.01189408670945381,0.8135980966325037
0.011914237639923024,0.8135980966325037
0.011914237639923024,0.8136896046852123
0.011929350837774935,0.8136896046852123
0.011929350837774935,0.813781112737921
0.011944464035626845,0.813781112737921
0.011944464035626845,0.8139641288433382
0.01196461496609606,0.8139641288433382
0.01196461496609606,0.8141471449487555
0.011999879094417184,0.8141471449487555
0.011999879094417184,0.8143301610541728
0.012009954559651792,0.8143301610541728
0.012009954559651792,0.8146961932650073
0.01203514322273831,0.8146961932650073
0.01203514322273831,0.8147877013177159
0.012045218687972916,0.8147877013177159
0.012045218687972916,0.8148792093704246
0.012055294153207524,0.8148792093704246
0.012055294153207524,0.8149707174231332
0.012085520548911346,0.8149707174231332
0.012085520548911346,0.8151537335285505
0.012090558281528649,0.8151537335285505
0.012090558281528649,0.8152452415812591
0.012115746944615167,0.8152452415812591
0.012115746944615167,0.8155197657393851
0.012151011072936292,0.8155197657393851
0.012151011072936292,0.8157027818448024
0.012156048805553597,0.8157027818448024
0.012156048805553597,0.815794289897511
0.0121610865381709,0.815794289897511
0.0121610865381709,0.8158857979502196
0.012171162003405508,0.8158857979502196
0.012171162003405508,0.8159773060029283
0.01217619973602281,0.8159773060029283
0.01217619973602281,0.8160688140556369
0.012181237468640114,0.8160688140556369
0.012181237468640114,0.8161603221083455
0.012191312933874722,0.8161603221083455
0.012191312933874722,0.8164348462664714
0.012211463864343935,0.8164348462664714
0.012211463864343935,0.8166178623718887
0.01221650159696124,0.8166178623718887
0.01221650159696124,0.8167093704245973
0.012241690260047757,0.8167093704245973
0.012241690260047757,0.816800878477306
0.012266878923134276,0.816800878477306
0.012266878923134276,0.8168923865300146
0.012271916655751579,0.8168923865300146
0.012271916655751579,0.8169838945827232
0.012292067586220794,0.8169838945827232
0.012292067586220794,0.8170754026354319
0.012307180784072705,0.8170754026354319
0.012307180784072705,0.8172584187408491
0.012312218516690008,0.8172584187408491
0.012312218516690008,0.8173499267935578
0.01235755811024574,0.8173499267935578
0.01235755811024574,0.8178989751098097
0.012362595842863044,0.8178989751098097
0.012362595842863044,0.8179904831625183
0.01238274677333226,0.8179904831625183
0.01238274677333226,0.818081991215227
0.012387784505949562,0.818081991215227
0.012387784505949562,0.8181734992679356
0.012392822238566865,0.8181734992679356
0.012392822238566865,0.8184480234260615
0.012402897703801473,0.8184480234260615
0.012402897703801473,0.8185395314787701
0.012407935436418776,0.8185395314787701
0.012407935436418776,0.8186310395314788
0.012412973169036081,0.8186310395314788
0.012412973169036081,0.8187225475841874
0.012423048634270687,0.8187225475841874
0.012423048634270687,0.8189055636896047
0.01246838822782642,0.8189055636896047
0.01246838822782642,0.8189970717423133
0.012473425960443724,0.8189970717423133
0.012473425960443724,0.8191800878477306
0.012478463693061027,0.8191800878477306
0.012478463693061027,0.8192715959004392
0.012513727821382152,0.8192715959004392
0.012513727821382152,0.8193631039531479
0.01252380328661676,0.8193631039531479
0.01252380328661676,0.8194546120058566
0.012533878751851366,0.8194546120058566
0.012533878751851366,0.8195461200585652
0.01253891648446867,0.8195461200585652
0.01253891648446867,0.8196376281112738
0.012554029682320582,0.8196376281112738
0.012554029682320582,0.8199121522693997
0.012564105147555188,0.8199121522693997
0.012564105147555188,0.8200036603221084
0.012579218345407098,0.8200036603221084
0.012579218345407098,0.820095168374817
0.012584256078024403,0.820095168374817
0.012584256078024403,0.8201866764275256
0.01259433154325901,0.8201866764275256
0.01259433154325901,0.8202781844802343
0.012604407008493617,0.8202781844802343
0.012604407008493617,0.8205527086383602
0.012654784334666653,0.8205527086383602
0.012654784334666653,0.8206442166910688
0.012679972997753171,0.8206442166910688
0.012679972997753171,0.8207357247437774
0.012685010730370474,0.8207357247437774
0.012685010730370474,0.8208272327964861
0.012695086195605082,0.8208272327964861
0.012695086195605082,0.8210102489019033
0.012700123928222385,0.8210102489019033
0.012700123928222385,0.8211932650073206
0.012710199393456993,0.8211932650073206
0.012710199393456993,0.8212847730600292
0.012730350323926207,0.8212847730600292
0.012730350323926207,0.8214677891654466
0.012770652184864636,0.8214677891654466
0.012770652184864636,0.8215592972181552
0.012815991778420369,0.8215592972181552
0.012815991778420369,0.8216508052708639
0.012841180441506887,0.8216508052708639
0.012841180441506887,0.8217423133235725
0.01284621817412419,0.8217423133235725
0.01284621817412419,0.822108345534407
0.012851255906741493,0.822108345534407
0.012851255906741493,0.8221998535871157
0.012856293639358798,0.8221998535871157
0.012856293639358798,0.8225658857979502
0.01290163323291453,0.8225658857979502
0.01290163323291453,0.8226573938506588
0.012926821896001047,0.8226573938506588
0.012926821896001047,0.8227489019033675
0.012931859628618352,0.8227489019033675
0.012931859628618352,0.8230234260614934
0.012957048291704869,0.8230234260614934
0.012957048291704869,0.823114934114202
0.012962086024322174,0.823114934114202
0.012962086024322174,0.823389458272328
0.012967123756939477,0.823389458272328
0.012967123756939477,0.8234809663250366
0.01297216148955678,0.8234809663250366
0.01297216148955678,0.8235724743777453
0.01298727468740869,0.8235724743777453
0.01298727468740869,0.8236639824304539
0.01302757654834712,0.8236639824304539
0.01302757654834712,0.8238469985358712
0.013042689746199031,0.8238469985358712
0.013042689746199031,0.8239385065885798
0.013067878409285548,0.8239385065885798
0.013067878409285548,0.8240300146412884
0.013088029339754764,0.8240300146412884
0.013088029339754764,0.8241215226939971
0.013123293468075888,0.8241215226939971
0.013123293468075888,0.8242130307467057
0.013138406665927799,0.8242130307467057
0.013138406665927799,0.824396046852123
0.013148482131162407,0.824396046852123
0.013148482131162407,0.8244875549048316
0.01316863306163162,0.8244875549048316
0.01316863306163162,0.8245790629575402
0.013188783992100835,0.8245790629575402
0.013188783992100835,0.8246705710102489
0.013219010387804656,0.8246705710102489
0.013219010387804656,0.8248535871156661
0.013249236783508478,0.8248535871156661
0.013249236783508478,0.8249450951683748
0.013264349981360389,0.8249450951683748
0.013264349981360389,0.825128111273792
0.013314727307533426,0.825128111273792
0.013314727307533426,0.8253111273792094
0.013324802772768032,0.8253111273792094
0.013324802772768032,0.825402635431918
0.013360066901089158,0.825402635431918
0.013360066901089158,0.8254941434846267
0.013365104633706461,0.8254941434846267
0.013365104633706461,0.8255856515373353
0.013385255564175675,0.8255856515373353
0.013385255564175675,0.825677159590044
0.013395331029410283,0.825677159590044
0.013395331029410283,0.8257686676427526
0.013400368762027586,0.8257686676427526
0.013400368762027586,0.8258601756954612
0.013415481959879497,0.8258601756954612
0.013415481959879497,0.8259516837481699
0.013420519692496802,0.8259516837481699
0.013420519692496802,0.8260431918008785
0.013470897018669837,0.8260431918008785
0.013470897018669837,0.8261346998535871
0.013480972483904445,0.8261346998535871
0.013480972483904445,0.8262262079062958
0.013526312077460178,0.8262262079062958
0.013526312077460178,0.8263177159590044
0.01353134981007748,0.8263177159590044
0.01353134981007748,0.826409224011713
0.013561576205781302,0.826409224011713
0.013561576205781302,0.8265007320644217
0.013576689403633213,0.8265007320644217
0.013576689403633213,0.8265922401171303
0.013596840334102427,0.8265922401171303
0.013596840334102427,0.8266837481698389
0.013606915799337035,0.8266837481698389
0.013611953531954338,0.8267752562225475
0.01361699126457164,0.8267752562225475
0.01361699126457164,0.8268667642752562
0.013622028997188946,0.8268667642752562
0.013622028997188946,0.8270497803806734
0.013632104462423552,0.8270497803806734
0.013632104462423552,0.8271412884333821
0.01364217992765816,0.8271412884333821
0.01364217992765816,0.8272327964860908
0.013652255392892767,0.8272327964860908
0.013652255392892767,0.8273243045387995
0.013662330858127373,0.8273243045387995
0.013662330858127373,0.8274158125915081
0.013677444055979284,0.8274158125915081
0.013677444055979284,0.8275073206442167
0.013687519521213892,0.8275073206442167
0.013687519521213892,0.827690336749634
