fpr,tpr
0.0,0.0
1.6518004625041296e-05,0.0
1.6518004625041296e-05,0.0020833333333333333
3.303600925008259e-05,0.0020833333333333333
3.303600925008259e-05,0.020833333333333332
6.607201850016519e-05,0.020833333333333332
6.607201850016519e-05,0.027777777777777776
8.259002312520647e-05,0.027777777777777776
8.259002312520647e-05,0.03611111111111111
9.910802775024777e-05,0.03611111111111111
9.910802775024777e-05,0.0375
0.00011562603237528906,0.0375
0.00011562603237528906,0.04027777777777778
0.00013214403700033037,0.04027777777777778
0.00013214403700033037,0.04375
0.00014866204162537167,0.04375
0.00014866204162537167,0.044444444444444446
0.00016518004625041294,0.044444444444444446
0.00016518004625041294,0.06597222222222222
0.00018169805087545423,0.06597222222222222
0.00018169805087545423,0.08888888888888889
0.00019821605550049553,0.08888888888888889
0.00019821605550049553,0.1111111111111111
0.00019821605550049553,0.1125
0.00019821605550049553,0.11944444444444445
0.00021473406012553683,0.11944444444444445
0.00021473406012553683,0.12777777777777777
0.00021473406012553683,0.12916666666666668
0.00021473406012553683,0.13055555555555556
0.00021473406012553683,0.13194444444444445
0.00021473406012553683,0.14583333333333334
0.00023125206475057812,0.14583333333333334
0.00023125206475057812,0.14791666666666667
0.0002477700693756194,0.14791666666666667
0.0002477700693756194,0.16527777777777777
0.00026428807400066074,0.16597222222222222
0.00026428807400066074,0.1763888888888889
0.000280806078625702,0.1763888888888889
0.000280806078625702,0.18680555555555556
0.00029732408325074334,0.18680555555555556
0.00029732408325074334,0.18819444444444444
0.0003138420878757846,0.18819444444444444
0.0003138420878757846,0.19305555555555556
0.0003138420878757846,0.19444444444444445
0.0003303600925008259,0.19444444444444445
0.0003303600925008259,0.2
0.00036339610175090847,0.2
0.00036339610175090847,0.2013888888888889
0.00036339610175090847,0.20277777777777778
0.00036339610175090847,0.20347222222222222
0.0003799141063759498,0.20347222222222222
0.0003799141063759498,0.20694444444444443
0.00039643211100099106,0.20694444444444443
0.00039643211100099106,0.22152777777777777
0.00042946812025107365,0.22152777777777777
0.00042946812025107365,0.22777777777777777
0.000445986124876115,0.22777777777777777
0.000445986124876115,0.23958333333333334
0.00046250412950115625,0.23958333333333334
0.00046250412950115625,0.24722222222222223
0.00047902213412619757,0.24722222222222223
0.00047902213412619757,0.25
0.0004955401387512388,0.25
0.0004955401387512388,0.2590277777777778
0.0005120581433762802,0.2590277777777778
0.0005120581433762802,0.2604166666666667
0.0005120581433762802,0.26180555555555557
0.0005285761480013215,0.26180555555555557
0.0005285761480013215,0.26805555555555555
0.0005450941526263627,0.26805555555555555
0.0005450941526263627,0.28541666666666665
0.000561612157251404,0.28541666666666665
0.000561612157251404,0.28888888888888886
0.0005781301618764453,0.28888888888888886
0.0005781301618764453,0.28958333333333336
0.0005946481665014867,0.28958333333333336
0.0005946481665014867,0.2916666666666667
0.0006111661711265279,0.2916666666666667
0.0006111661711265279,0.30486111111111114
0.0006276841757515692,0.30486111111111114
0.0006276841757515692,0.3326388888888889
0.0006442021803766105,0.3326388888888889
0.0006442021803766105,0.33611111111111114
0.0006607201850016518,0.33611111111111114
0.0006607201850016518,0.3368055555555556
0.0006772381896266931,0.3368055555555556
0.0006772381896266931,0.34791666666666665
0.0006937561942517344,0.34791666666666665
0.0006937561942517344,0.35
0.0007102741988767757,0.3506944444444444
0.0007267922035018169,0.3506944444444444
0.0007267922035018169,0.35138888888888886
0.0007433102081268583,0.35138888888888886
0.0007433102081268583,0.35208333333333336
0.0007598282127518996,0.35208333333333336
0.0007598282127518996,0.35347222222222224
0.0007928642220019821,0.35347222222222224
0.0007928642220019821,0.3590277777777778
0.0008093822266270234,0.3590277777777778
0.0008093822266270234,0.36041666666666666
0.0008259002312520648,0.36041666666666666
0.0008259002312520648,0.36180555555555555
0.0008424182358771061,0.36180555555555555
0.0008424182358771061,0.3659722222222222
0.0008754542451271886,0.3659722222222222
0.0008754542451271886,0.37916666666666665
0.00089197224975223,0.37916666666666665
0.00089197224975223,0.38055555555555554
0.0009084902543772713,0.38055555555555554
0.0009084902543772713,0.3972222222222222
0.0009250082590023125,0.3972222222222222
0.0009250082590023125,0.4097222222222222
0.0009745622728774364,0.4097222222222222
0.0009745622728774364,0.41041666666666665
0.0010241162867525603,0.41041666666666665
0.0010241162867525603,0.41597222222222224
0.0010406342913776017,0.41597222222222224
0.0010406342913776017,0.4166666666666667
0.001073670300627684,0.4166666666666667
0.001073670300627684,0.41944444444444445
0.0010901883052527254,0.41944444444444445
0.0010901883052527254,0.4201388888888889
0.0011067063098777667,0.4201388888888889
0.0011067063098777667,0.42777777777777776
0.0011067063098777667,0.42916666666666664
0.0011067063098777667,0.42986111111111114
0.001123224314502808,0.42986111111111114
0.001123224314502808,0.43194444444444446
0.0011397423191278494,0.43194444444444446
0.0011397423191278494,0.4340277777777778
0.0011562603237528907,0.4340277777777778
0.0011562603237528907,0.43472222222222223
0.001172778328377932,0.43472222222222223
0.001172778328377932,0.4354166666666667
0.0011892963330029733,0.4354166666666667
0.0011892963330029733,0.4361111111111111
0.0012058143376280145,0.4361111111111111
0.0012058143376280145,0.43680555555555556
0.0012553683515031384,0.43680555555555556
0.0012553683515031384,0.44166666666666665
0.0012718863561281797,0.44166666666666665
0.0012718863561281797,0.44583333333333336
0.001288404360753221,0.44583333333333336
0.001288404360753221,0.4465277777777778
0.0013379583746283448,0.4465277777777778
0.0013379583746283448,0.4479166666666667
0.0013544763792533861,0.4479166666666667
0.0013544763792533861,0.45
0.0013709943838784275,0.45
0.0013709943838784275,0.4548611111111111
0.0013875123885034688,0.4548611111111111
0.0013875123885034688,0.45555555555555555
0.0014040303931285101,0.45555555555555555
0.0014040303931285101,0.45694444444444443
0.0014040303931285101,0.4583333333333333
0.0014040303931285101,0.46458333333333335
0.0014370664023785928,0.46458333333333335
0.0014370664023785928,0.4673611111111111
0.0014535844070036339,0.4673611111111111
0.0014535844070036339,0.475
0.0014701024116286752,0.475
0.0014701024116286752,0.4791666666666667
0.0014866204162537165,0.4791666666666667
0.0014866204162537165,0.48333333333333334
0.0015031384208787578,0.48333333333333334
0.0015031384208787578,0.4840277777777778
0.0015196564255037992,0.4840277777777778
0.0015196564255037992,0.49027777777777776
0.001569210439378923,0.49027777777777776
0.001569210439378923,0.4909722222222222
0.0015857284440039642,0.4909722222222222
0.0015857284440039642,0.49236111111111114
0.0016022464486290056,0.49236111111111114
0.0016022464486290056,0.49444444444444446
0.001618764453254047,0.49444444444444446
0.001618764453254047,0.49930555555555556
0.0016352824578790882,0.49930555555555556
0.0016352824578790882,0.5
0.0016518004625041295,0.5
0.0016518004625041295,0.5006944444444444
0.0016848364717542122,0.5006944444444444
0.0016848364717542122,0.5013888888888889
0.0017013544763792533,0.5013888888888889
0.0017013544763792533,0.5090277777777777
0.0017178724810042946,0.5090277777777777
0.0017178724810042946,0.5131944444444444
0.001734390485629336,0.5131944444444444
0.001734390485629336,0.5145833333333333
0.0017509084902543773,0.5145833333333333
0.0017509084902543773,0.5166666666666667
0.0017674264948794186,0.5166666666666667
0.0017674264948794186,0.5173611111111112
0.00178394449950446,0.5173611111111112
0.00178394449950446,0.5180555555555556
0.0018004625041295012,0.5180555555555556
0.0018004625041295012,0.5208333333333334
0.0018334985133795837,0.5208333333333334
0.0018334985133795837,0.5215277777777778
0.001850016518004625,0.5215277777777778
0.001850016518004625,0.5236111111111111
0.0018665345226296663,0.5236111111111111
0.0018665345226296663,0.5319444444444444
0.0018830525272547076,0.5319444444444444
0.0018830525272547076,0.5340277777777778
0.0018830525272547076,0.5354166666666667
0.0018830525272547076,0.5368055555555555
0.0019160885365047903,0.5368055555555555
0.0019160885365047903,0.5375
0.0019326065411298316,0.5375
0.0019326065411298316,0.5388888888888889
0.0019491245457548727,0.5388888888888889
0.0019491245457548727,0.5416666666666666
0.0019821605550049554,0.5416666666666666
0.0019821605550049554,0.5423611111111111
0.0019986785596299967,0.5423611111111111
0.0019986785596299967,0.5444444444444444
0.0020482325735051207,0.5444444444444444
0.0020482325735051207,0.5479166666666667
0.002064750578130162,0.5479166666666667
0.002064750578130162,0.5493055555555556
0.0020812685827552033,0.5493055555555556
0.0020812685827552033,0.55625
0.0021308225966303273,0.55625
0.0021638586058804095,0.55625
0.0021638586058804095,0.5576388888888889
0.002196894615130492,0.5576388888888889
0.002196894615130492,0.5583333333333333
0.0022134126197555335,0.5583333333333333
0.0022134126197555335,0.5618055555555556
0.0022629666336306574,0.5618055555555556
0.0022629666336306574,0.5631944444444444
0.00229600264288074,0.5631944444444444
0.00229600264288074,0.5659722222222222
0.0023125206475057814,0.5659722222222222
0.0023125206475057814,0.5680555555555555
0.0023290386521308227,0.5680555555555555
0.0023290386521308227,0.5708333333333333
0.002345556656755864,0.5708333333333333
0.002345556656755864,0.5729166666666666
0.0023620746613809054,0.5729166666666666
0.0023620746613809054,0.5736111111111111
0.0023785926660059467,0.5736111111111111
0.0023785926660059467,0.5743055555555555
0.0024281466798810702,0.5743055555555555
0.0024281466798810702,0.5770833333333333
0.0024446646845061116,0.5770833333333333
0.0024446646845061116,0.58125
0.002477700693756194,0.58125
0.002477700693756194,0.5833333333333334
0.0024942186983812355,0.5833333333333334
0.0024942186983812355,0.5854166666666667
0.002510736703006277,0.5854166666666667
0.002510736703006277,0.5861111111111111
0.002527254707631318,0.5861111111111111
0.002527254707631318,0.5875
0.0025437727122563595,0.5875
0.0025437727122563595,0.5881944444444445
0.002560290716881401,0.5881944444444445
0.002560290716881401,0.5888888888888889
0.0025933267261314835,0.5888888888888889
0.0025933267261314835,0.5930555555555556
0.002609844730756525,0.5930555555555556
0.002609844730756525,0.5944444444444444
0.002626362735381566,0.5944444444444444
0.002626362735381566,0.5979166666666667
0.002642880740006607,0.5979166666666667
0.002642880740006607,0.5993055555555555
0.0026593987446316483,0.5993055555555555
0.0026593987446316483,0.6
0.0026759167492566896,0.6
0.0026759167492566896,0.6020833333333333
0.002692434753881731,0.6020833333333333
0.002692434753881731,0.6027777777777777
0.0027254707631318136,0.6027777777777777
0.0027254707631318136,0.6034722222222222
0.0027750247770069376,0.6034722222222222
0.0027750247770069376,0.6048611111111111
0.0028245787908820616,0.6048611111111111
0.0028245787908820616,0.6090277777777777
0.002857614800132144,0.6090277777777777
0.002857614800132144,0.6131944444444445
0.0028906508093822264,0.6131944444444445
0.0028906508093822264,0.6145833333333334
0.0029071688140072677,0.6145833333333334
0.0029071688140072677,0.6159722222222223
0.002923686818632309,0.6159722222222223
0.002923686818632309,0.6173611111111111
0.0029402048232573504,0.6173611111111111
0.0029402048232573504,0.6180555555555556
0.0029402048232573504,0.6194444444444445
0.0029402048232573504,0.6201388888888889
0.0029567228278823917,0.6201388888888889
0.0029567228278823917,0.6222222222222222
0.002973240832507433,0.6222222222222222
0.002973240832507433,0.6229166666666667
0.0029897588371324744,0.6229166666666667
0.0029897588371324744,0.6236111111111111
0.0030062768417575157,0.6236111111111111
0.0030062768417575157,0.6277777777777778
0.0030393128510075983,0.6277777777777778
0.0030393128510075983,0.6284722222222222
0.0030558308556326397,0.6284722222222222
0.0030558308556326397,0.63125
0.0030888668648827223,0.63125
0.0030888668648827223,0.6326388888888889
0.0031053848695077636,0.6326388888888889
0.0031053848695077636,0.6333333333333333
0.003138420878757846,0.6333333333333333
0.003138420878757846,0.6340277777777777
0.003154938883382887,0.6340277777777777
0.003154938883382887,0.6354166666666666
0.0031714568880079285,0.6354166666666666
0.0031714568880079285,0.6361111111111111
0.003254046911133135,0.6361111111111111
0.003254046911133135,0.6368055555555555
0.0032705649157581764,0.6368055555555555
0.0032705649157581764,0.6375
0.0033366369342583417,0.6375
0.0033366369342583417,0.6381944444444444
0.0033696729435084244,0.6381944444444444
0.0033696729435084244,0.6395833333333333
0.003468780971258672,0.6395833333333333
0.003468780971258672,0.6409722222222223
0.003485298975883713,0.6409722222222223
0.003485298975883713,0.6423611111111112
0.003518334985133796,0.6423611111111112
0.003518334985133796,0.64375
0.003534852989758837,0.64375
0.003534852989758837,0.6444444444444445
0.003584407003633961,0.6444444444444445
0.003584407003633961,0.6451388888888889
0.0036009250082590025,0.6451388888888889
0.0036009250082590025,0.6465277777777778
0.003617443012884044,0.6465277777777778
0.003617443012884044,0.6472222222222223
0.003650479022134126,0.6472222222222223
0.003650479022134126,0.65
0.0037661050545094153,0.65
0.0037661050545094153,0.6520833333333333
0.0037826230591344566,0.6520833333333333
0.0037826230591344566,0.6527777777777778
0.0038156590683845392,0.6527777777777778
0.0038156590683845392,0.6541666666666667
0.0038156590683845392,0.6555555555555556
0.0038321770730095806,0.6555555555555556
0.0038321770730095806,0.6590277777777778
0.003865213082259663,0.6590277777777778
0.003865213082259663,0.6597222222222222
0.003931285100759828,0.6597222222222222
0.003931285100759828,0.6604166666666667
0.00394780310538487,0.6604166666666667
0.00394780310538487,0.6611111111111111
0.0039808391146349525,0.6611111111111111
0.004013875123885034,0.6611111111111111
0.004013875123885034,0.6618055555555555
0.004030393128510076,0.6618055555555555
0.004030393128510076,0.6631944444444444
0.004046911133135117,0.6631944444444444
0.004046911133135117,0.6645833333333333
0.004063429137760159,0.6645833333333333
0.004063429137760159,0.6652777777777777
0.0040799471423851996,0.6652777777777777
0.0040799471423851996,0.6659722222222222
0.004112983151635282,0.6659722222222222
0.004112983151635282,0.6666666666666666
0.004129501156260324,0.6666666666666666
0.004129501156260324,0.6680555555555555
0.004162537165510407,0.6680555555555555
0.004162537165510407,0.6701388888888888
0.00421209117938553,0.6701388888888888
0.00421209117938553,0.6715277777777777
0.004228609184010572,0.6715277777777777
0.004228609184010572,0.6756944444444445
0.004245127188635613,0.6756944444444445
0.004245127188635613,0.6770833333333334
0.0042616451932606545,0.6770833333333334
0.0042616451932606545,0.6784722222222223
0.0044598612487611496,0.6784722222222223
0.0044598612487611496,0.6791666666666667
0.004476379253386191,0.6791666666666667
0.004476379253386191,0.6798611111111111
0.004509415262636274,0.6798611111111111
0.004509415262636274,0.6805555555555556
0.004525933267261315,0.6805555555555556
0.004525933267261315,0.68125
0.00459200528576148,0.68125
0.00459200528576148,0.6826388888888889
0.004625041295011563,0.6826388888888889
0.004625041295011563,0.6833333333333333
0.004641559299636604,0.6833333333333333
0.004641559299636604,0.6840277777777778
0.004674595308886686,0.6840277777777778
0.004674595308886686,0.6847222222222222
0.004740667327386852,0.6847222222222222
0.004740667327386852,0.6861111111111111
0.004757185332011893,0.6861111111111111
0.004757185332011893,0.6868055555555556
0.004790221341261975,0.6868055555555556
0.004790221341261975,0.6875
0.004806739345887017,0.6875
0.004806739345887017,0.6895833333333333
0.0048397753551371,0.6895833333333333
0.0048397753551371,0.6916666666666667
0.0048562933597621405,0.6916666666666667
0.0048562933597621405,0.6930555555555555
0.004872811364387182,0.6930555555555555
0.004872811364387182,0.6944444444444444
0.004922365378262306,0.6944444444444444
0.004922365378262306,0.6951388888888889
0.0049388833828873475,0.6951388888888889
0.0049388833828873475,0.6958333333333333
0.004988437396762471,0.6958333333333333
0.004988437396762471,0.6965277777777777
0.005021473406012554,0.6965277777777777
0.005021473406012554,0.6972222222222222
0.005120581433762802,0.6972222222222222
0.0051370994383878425,0.6979166666666666
0.0051370994383878425,0.6986111111111111
0.005170135447637925,0.6986111111111111
0.005170135447637925,0.6993055555555555
0.0052362074661380905,0.6993055555555555
0.0052362074661380905,0.7
0.005252725470763132,0.7
0.005252725470763132,0.7013888888888888
0.005318797489263297,0.7013888888888888
0.005318797489263297,0.7020833333333333
0.005335315493888338,0.7020833333333333
0.005335315493888338,0.7034722222222223
0.005351833498513379,0.7034722222222223
0.005351833498513379,0.7041666666666667
0.005384869507763462,0.7041666666666667
0.005384869507763462,0.7048611111111112
0.005450941526263627,0.7048611111111112
0.005450941526263627,0.7069444444444445
0.005550049554013875,0.7069444444444445
0.005550049554013875,0.7083333333333334
0.005566567558638916,0.7083333333333334
0.005566567558638916,0.7104166666666667
0.005632639577139081,0.7104166666666667
0.005632639577139081,0.7111111111111111
0.005649157581764123,0.7111111111111111
0.005649157581764123,0.7118055555555556
0.005665675586389164,0.7118055555555556
0.005665675586389164,0.7125
0.005682193591014206,0.7125
0.005682193591014206,0.7138888888888889
0.005764783614139412,0.7138888888888889
0.005764783614139412,0.7145833333333333
0.0058143376280145355,0.7145833333333333
0.0058143376280145355,0.7152777777777778
0.00586389164188966,0.7152777777777778
0.00586389164188966,0.7166666666666667
0.005880409646514701,0.7166666666666667
0.005880409646514701,0.7173611111111111
0.005946481665014866,0.7173611111111111
0.005946481665014866,0.7180555555555556
0.006045589692765114,0.7180555555555556
0.006045589692765114,0.7201388888888889
0.0060951437066402376,0.7201388888888889
0.0060951437066402376,0.7208333333333333
0.006144697720515362,0.7208333333333333
0.006144697720515362,0.7215277777777778
0.006210769739015527,0.7215277777777778
0.006210769739015527,0.7229166666666667
0.00624380574826561,0.7229166666666667
0.00624380574826561,0.7236111111111111
0.006260323752890651,0.7236111111111111
0.006260323752890651,0.7243055555555555
0.006425503799141064,0.7243055555555555
0.006425503799141064,0.725
0.006491575817641229,0.725
0.006491575817641229,0.7256944444444444
0.0065741658407664355,0.7256944444444444
0.0065741658407664355,0.7270833333333333
0.006607201850016518,0.7270833333333333
0.006607201850016518,0.7284722222222222
0.006656755863891642,0.7284722222222222
0.006656755863891642,0.7291666666666666
0.0066732738685166835,0.7291666666666666
0.0066732738685166835,0.7298611111111111
0.006706309877766766,0.7298611111111111
0.006706309877766766,0.73125
0.006722827882391807,0.73125
0.006722827882391807,0.7319444444444444
0.006739345887016849,0.7319444444444444
0.006739345887016849,0.7326388888888888
0.00675586389164189,0.7326388888888888
0.00675586389164189,0.7347222222222223
0.0067723818962669305,0.7347222222222223
0.0067723818962669305,0.7354166666666667
0.006937561942517344,0.7354166666666667
0.006937561942517344,0.7361111111111112
0.007020151965642551,0.7361111111111112
0.007020151965642551,0.7368055555555556
0.007119259993392798,0.7368055555555556
0.007119259993392798,0.7375
0.0071522960026428805,0.7375
0.0071522960026428805,0.7388888888888889
0.007218368021143046,0.7388888888888889
0.007218368021143046,0.7409722222222223
0.007350512058143376,0.7409722222222223
0.007350512058143376,0.7416666666666667
0.007383548067393459,0.7416666666666667
0.007383548067393459,0.7423611111111111
0.007449620085893624,0.7423611111111111
0.007449620085893624,0.7430555555555556
0.007466138090518665,0.7430555555555556
0.007466138090518665,0.74375
0.007713908159894285,0.74375
0.007713908159894285,0.7444444444444445
0.007746944169144367,0.7444444444444445
0.007746944169144367,0.7451388888888889
0.007813016187644533,0.7451388888888889
0.007813016187644533,0.7465277777777778
0.007846052196894614,0.7465277777777778
0.007846052196894614,0.7472222222222222
0.00789560621076974,0.7472222222222222
0.00789560621076974,0.7479166666666667
0.008011232243145028,0.7479166666666667
0.008011232243145028,0.7486111111111111
0.00804426825239511,0.7486111111111111
0.008060786257020152,0.7486111111111111
0.008060786257020152,0.7493055555555556
0.008325074331020813,0.7493055555555556
0.008325074331020813,0.7506944444444444
0.008457218368021144,0.7506944444444444
0.008457218368021144,0.7513888888888889
0.008539808391146349,0.7513888888888889
0.008539808391146349,0.7520833333333333
0.008589362405021473,0.7520833333333333
0.008622398414271556,0.7520833333333333
0.008704988437396763,0.7520833333333333
0.008704988437396763,0.7527777777777778
0.008754542451271887,0.7527777777777778
0.008754542451271887,0.7534722222222222
0.008969276511397423,0.7534722222222222
0.008969276511397423,0.7541666666666667
0.008985794516022464,0.7541666666666667
0.008985794516022464,0.7548611111111111
0.009084902543772711,0.7548611111111111
0.009084902543772711,0.7555555555555555
0.009217046580773042,0.7555555555555555
0.009217046580773042,0.7569444444444444
0.009250082590023126,0.7569444444444444
0.009250082590023126,0.7590277777777777
0.009266600594648167,0.7590277777777777
0.009266600594648167,0.7597222222222222
0.009299636603898249,0.7597222222222222
0.009299636603898249,0.7604166666666666
0.009349190617773373,0.7604166666666666
0.009349190617773373,0.7618055555555555
0.009530888668648827,0.7618055555555555
0.009530888668648827,0.7625
0.009596960687148992,0.7625
0.009596960687148992,0.7631944444444444
0.009663032705649157,0.7631944444444444
0.009663032705649157,0.7638888888888888
0.009712586719524281,0.7638888888888888
0.009712586719524281,0.7645833333333333
0.009877766765774695,0.7645833333333333
0.009877766765774695,0.7652777777777777
0.00994383878427486,0.7652777777777777
0.00994383878427486,0.7659722222222223
0.0099603567888999,0.7659722222222223
0.0099603567888999,0.7666666666666667
0.01005946481665015,0.7666666666666667
0.01005946481665015,0.7673611111111112
0.010109018830525273,0.7673611111111112
0.010109018830525273,0.76875
0.010125536835150314,0.76875
0.010125536835150314,0.7694444444444445
0.010175090849025438,0.7694444444444445
0.010175090849025438,0.7701388888888889
0.010257680872150645,0.7701388888888889
0.010257680872150645,0.7715277777777778
0.010373306904525934,0.7715277777777778
0.010373306904525934,0.7729166666666667
0.010488932936901223,0.7729166666666667
0.010488932936901223,0.7736111111111111
0.010703666997026759,0.7736111111111111
0.010703666997026759,0.7756944444444445
0.010769739015526924,0.7756944444444445
0.010769739015526924,0.7763888888888889
0.010786257020151966,0.7763888888888889
0.010786257020151966,0.7770833333333333
0.01083581103402709,0.7770833333333333
0.01083581103402709,0.7777777777777778
0.010934919061777338,0.7777777777777778
0.010934919061777338,0.7784722222222222
0.011017509084902543,0.7784722222222222
0.011017509084902543,0.7791666666666667
0.011149653121902874,0.7791666666666667
0.011149653121902874,0.7798611111111111
0.011446977205153617,0.7798611111111111
0.011446977205153617,0.7805555555555556
0.0114800132144037,0.7805555555555556
0.0114800132144037,0.78125
0.011694747274529236,0.78125
0.011694747274529236,0.7819444444444444
0.011744301288404362,0.7819444444444444
0.011744301288404362,0.7826388888888889
0.01187644532540469,0.7826388888888889
0.01187644532540469,0.7833333333333333
0.011925999339279816,0.7833333333333333
0.011925999339279816,0.7840277777777778
0.011992071357779981,0.7840277777777778
0.011992071357779981,0.7847222222222222
0.012074661380905186,0.7847222222222222
0.01210769739015527,0.7847222222222222
0.01210769739015527,0.7854166666666667
0.0122398414271556,0.7854166666666667
0.0122398414271556,0.7861111111111111
0.012305913445655764,0.7861111111111111
0.012305913445655764,0.7868055555555555
0.012405021473406013,0.7868055555555555
0.012405021473406013,0.7881944444444444
0.01248761149653122,0.7881944444444444
0.01248761149653122,0.7888888888888889
0.012586719524281467,0.7888888888888889
0.012619755533531549,0.7888888888888889
0.012917079616782293,0.7888888888888889
0.012917079616782293,0.7895833333333333
0.012933597621407333,0.7895833333333333
0.012933597621407333,0.7902777777777777
0.012966633630657417,0.7902777777777777
0.012966633630657417,0.7916666666666666
0.012999669639907499,0.7916666666666666
0.012999669639907499,0.7923611111111111
0.013065741658407664,0.7923611111111111
0.013065741658407664,0.7944444444444444
0.013478691774033697,0.7944444444444444
0.013478691774033697,0.7951388888888888
0.013957713908159895,0.7951388888888888
0.013957713908159895,0.7965277777777777
0.014056821935910142,0.7965277777777777
0.014056821935910142,0.7972222222222223
0.014089857945160225,0.7972222222222223
0.014089857945160225,0.7979166666666667
0.014288074000660721,0.7979166666666667
0.014288074000660721,0.7986111111111112
0.014387182028410968,0.7986111111111112
0.014387182028410968,0.7993055555555556
0.01465147010241163,0.7993055555555556
0.01465147010241163,0.8
0.014717542120911795,0.8
0.014717542120911795,0.8006944444444445
0.014750578130161876,0.8006944444444445
0.014750578130161876,0.8013888888888889
0.015080938222662703,0.8013888888888889
0.015080938222662703,0.8020833333333334
0.015130492236537826,0.8020833333333334
0.015130492236537826,0.8027777777777778
0.015378262305913446,0.8027777777777778
0.015378262305913446,0.8034722222222223
0.015510406342913776,0.8034722222222223
0.015510406342913776,0.8055555555555556
0.015741658407664356,0.8055555555555556
0.015741658407664356,0.80625
0.015774694416914436,0.80625
0.015774694416914436,0.8069444444444445
0.01593987446316485,0.8069444444444445
0.01593987446316485,0.8076388888888889
0.016171126527915428,0.8076388888888889
0.016171126527915428,0.8083333333333333
0.016319788569540798,0.8083333333333333
0.016319788569540798,0.8090277777777778
0.016617112652791543,0.8090277777777778
0.016617112652791543,0.8097222222222222
0.016650148662041626,0.8097222222222222
0.016650148662041626,0.8104166666666667
0.016683184671291706,0.8104166666666667
0.01671622068054179,0.8104166666666667
0.016765774694416914,0.8104166666666667
0.016765774694416914,0.8111111111111111
0.01683184671291708,0.8111111111111111
0.01683184671291708,0.8118055555555556
0.01684836471754212,0.8118055555555556
0.01684836471754212,0.8125
0.01696399074991741,0.8125
0.01696399074991741,0.8131944444444444
0.01698050875454245,0.8131944444444444
0.01698050875454245,0.8138888888888889
0.017393458870168483,0.8138888888888889
0.017426494879418566,0.8138888888888889
0.01795507102741989,0.8138888888888889
0.01795507102741989,0.8145833333333333
0.01810373306904526,0.8145833333333333
0.01810373306904526,0.8152777777777778
0.018582755203171458,0.8152777777777778
0.01861579121242154,0.8152777777777778
0.019078295341922697,0.8152777777777778
0.019078295341922697,0.8159722222222222
0.019210439378923028,0.8159722222222222
0.019210439378923028,0.8166666666666667
0.019441691443673605,0.8166666666666667
0.019441691443673605,0.8180555555555555
0.019590353485298976,0.8180555555555555
0.019590353485298976,0.81875
0.019672943508424183,0.81875
0.019672943508424183,0.8201388888888889
0.01988767756854972,0.8201388888888889
0.01988767756854972,0.8208333333333333
0.02054839775355137,0.8208333333333333
0.02054839775355137,0.8215277777777777
0.02066402378592666,0.8215277777777777
0.02066402378592666,0.8229166666666666
0.020746613809051868,0.8229166666666666
0.020779649818301948,0.8229166666666666
0.020944829864552362,0.8229166666666666
0.020944829864552362,0.8236111111111111
0.020994383878427485,0.8236111111111111
0.020994383878427485,0.8243055555555555
0.02102741988767757,0.8243055555555555
0.02102741988767757,0.825
0.021357779980178394,0.825
0.021357779980178394,0.8256944444444444
0.02157251404030393,0.8256944444444444
0.02157251404030393,0.8263888888888888
0.021688140072679222,0.8263888888888888
0.021688140072679222,0.8270833333333333
0.021754212091179385,0.8270833333333333
0.021754212091179385,0.8284722222222223
0.021770730095804425,0.8284722222222223
0.021770730095804425,0.8291666666666667
0.02193591014205484,0.8291666666666667
0.02193591014205484,0.8298611111111112
0.021968946151304923,0.8298611111111112
0.021968946151304923,0.8305555555555556
0.022001982160555007,0.8305555555555556
0.022101090188305254,0.8305555555555556
0.022101090188305254,0.83125
0.022134126197555334,0.83125
0.022134126197555334,0.8319444444444445
0.022167162206805417,0.8319444444444445
0.0222001982160555,0.8319444444444445
0.02231582424843079,0.8319444444444445
0.02231582424843079,0.8326388888888889
0.022481004294681202,0.8326388888888889
0.022481004294681202,0.8333333333333334
0.022646184340931616,0.8333333333333334
0.022646184340931616,0.8340277777777778
0.022745292368681863,0.8340277777777778
0.022745292368681863,0.8347222222222223
0.022860918401057154,0.8347222222222223
0.022860918401057154,0.8354166666666667
0.022910472414932277,0.8354166666666667
0.022910472414932277,0.8361111111111111
0.023009580442682524,0.8361111111111111
0.023009580442682524,0.8368055555555556
0.02312520647505781,0.8368055555555556
0.02312520647505781,0.8375
0.02388503468780971,0.8375
0.023918070697059795,0.8375
0.023934588701684835,0.8375
0.023934588701684835,0.8381944444444445
0.024066732738685166,0.8381944444444445
0.024066732738685166,0.8388888888888889
0.02421539478031054,0.8388888888888889
0.02421539478031054,0.8395833333333333
0.024446646845061117,0.8395833333333333
0.024446646845061117,0.8402777777777778
0.024661380905186655,0.8402777777777778
0.024661380905186655,0.8409722222222222
0.024677898909811695,0.8409722222222222
0.024677898909811695,0.8416666666666667
0.024826560951437066,0.8416666666666667
0.024826560951437066,0.8423611111111111
0.02484307895606211,0.8423611111111111
0.02484307895606211,0.8430555555555556
0.02497522299306244,0.8430555555555556
0.02500825900231252,0.8430555555555556
0.025107367030062767,0.8430555555555556
0.025107367030062767,0.8444444444444444
0.025189957053187974,0.8444444444444444
0.025189957053187974,0.8458333333333333
0.025553353154938882,0.8458333333333333
0.025553353154938882,0.8465277777777778
0.02618103733069045,0.8465277777777778
0.026214073339940535,0.8465277777777778
0.02626362735381566,0.8465277777777778
0.02626362735381566,0.8472222222222222
0.026280145358440702,0.8472222222222222
0.026280145358440702,0.8479166666666667
0.026296663363065742,0.8479166666666667
0.026296663363065742,0.8486111111111111
0.026560951437066403,0.8486111111111111
0.026560951437066403,0.8493055555555555
0.02667657746944169,0.8493055555555555
0.02667657746944169,0.85
0.026874793524942188,0.85
0.026874793524942188,0.8506944444444444
0.02692434753881731,0.8506944444444444
0.02692434753881731,0.8513888888888889
0.0270399735711926,0.8513888888888889
0.0270399735711926,0.8520833333333333
0.02727122563594318,0.8520833333333333
0.02727122563594318,0.8527777777777777
0.02791542781631979,0.8527777777777777
0.02791542781631979,0.8534722222222222
0.028278823918070697,0.8534722222222222
0.028278823918070697,0.8541666666666666
0.0285596299966964,0.8541666666666666
0.0285596299966964,0.8548611111111111
0.02870829203832177,0.8548611111111111
0.02870829203832177,0.8555555555555555
0.02882391807069706,0.8555555555555555
0.02882391807069706,0.8569444444444444
0.028873472084572183,0.8569444444444444
0.028873472084572183,0.8576388888888888
0.03001321440370003,0.8576388888888888
0.03001321440370003,0.8583333333333333
0.03021143045920053,0.8583333333333333
0.03021143045920053,0.8590277777777777
0.030442682523951107,0.8590277777777777
0.030442682523951107,0.8597222222222223
0.030921704658077306,0.8597222222222223
0.030921704658077306,0.8604166666666667
0.031037330690452593,0.8604166666666667
0.031070366699702676,0.8604166666666667
0.031185992732077963,0.8604166666666667
0.031185992732077963,0.8611111111111112
0.03217707300958044,0.8611111111111112
0.03217707300958044,0.8618055555555556
0.03221010901883053,0.8618055555555556
0.03221010901883053,0.8625
0.0324413610835811,0.8625
0.0324413610835811,0.8631944444444445
0.03265609514370664,0.8631944444444445
0.03265609514370664,0.8638888888888889
0.032788239180706974,0.8638888888888889
0.032788239180706974,0.8645833333333334
0.03328377931945821,0.8645833333333334
0.03328377931945821,0.8652777777777778
0.033481995374958703,0.8652777777777778
0.033481995374958703,0.8659722222222223
0.03406012553683515,0.8659722222222223
0.034093161546085236,0.8659722222222223
0.03477039973571193,0.8659722222222223
0.03477039973571193,0.8666666666666667
0.034902543772712256,0.8666666666666667
0.034902543772712256,0.8673611111111111
0.0349190617773373,0.8673611111111111
0.0349190617773373,0.8680555555555556
0.035034687809712584,0.8680555555555556
0.035034687809712584,0.86875
0.03513379583746284,0.86875
0.03516683184671292,0.86875
0.03521638586058804,0.86875
0.03521638586058804,0.8701388888888889
0.03543111992071358,0.8701388888888889
0.03543111992071358,0.8708333333333333
0.03554674595308887,0.8708333333333333
0.03554674595308887,0.8715277777777778
0.036306574165840766,0.8715277777777778
0.036306574165840766,0.8722222222222222
0.03660389824909151,0.8722222222222222
0.03660389824909151,0.8736111111111111
0.03680211430459201,0.8736111111111111
0.03683515031384209,0.8736111111111111
0.03724810042946812,0.8736111111111111
0.03724810042946812,0.8743055555555556
0.037330690452593324,0.8743055555555556
0.037330690452593324,0.875
0.03787578460521969,0.875
0.03790882061446977,0.875
0.03800792864222002,0.875
0.03800792864222002,0.8756944444444444
0.03828873472084572,0.8756944444444444
0.03828873472084572,0.8763888888888889
0.038371324743970925,0.8763888888888889
0.038371324743970925,0.8770833333333333
0.03868516683184671,0.8770833333333333
0.0387182028410968,0.8770833333333333
0.039048562933597625,0.8770833333333333
0.039048562933597625,0.8777777777777778
0.04013875123885035,0.8777777777777778
0.04017178724810043,0.8777777777777778
0.04025437727122563,0.8777777777777778
0.04028741328047572,0.8777777777777778
0.04030393128510076,0.8777777777777778
0.04030393128510076,0.8784722222222222
0.04124545754872811,0.8784722222222222
0.04124545754872811,0.8791666666666667
0.041295011562603234,0.8791666666666667
0.04132804757185332,0.8791666666666667
0.0423191278493558,0.8791666666666667
0.0423191278493558,0.8798611111111111
0.04250082590023125,0.8798611111111111
0.04250082590023125,0.8805555555555555
0.04255037991410637,0.8805555555555555
0.04255037991410637,0.88125
0.04269904195573175,0.88125
0.04273207796498183,0.88125
0.043078956062107696,0.88125
0.04311199207135778,0.88125
0.04373967624710935,0.88125
0.04373967624710935,0.8819444444444444
0.04380574826560951,0.8819444444444444
0.04380574826560951,0.8826388888888889
0.04405351833498514,0.8826388888888889
0.04405351833498514,0.8833333333333333
0.044482986455236205,0.8833333333333333
0.044482986455236205,0.8840277777777777
0.044598612487611496,0.8840277777777777
0.04463164849686158,0.8840277777777777
0.04605219689461513,0.8840277777777777
0.04605219689461513,0.8847222222222222
0.04649818301949125,0.8847222222222222
0.04649818301949125,0.8854166666666666
0.04702675916749257,0.8854166666666666
0.04702675916749257,0.8868055555555555
0.04816650148662042,0.8868055555555555
0.04816650148662042,0.8875
0.048414271555996036,0.8875
0.048414271555996036,0.8881944444444444
0.0487611496531219,0.8881944444444444
0.0487611496531219,0.8888888888888888
0.048926329699372315,0.8888888888888888
0.048926329699372315,0.8895833333333333
0.04910802775024777,0.8895833333333333
0.04910802775024777,0.8902777777777777
0.04917409976874793,0.8902777777777777
0.04917409976874793,0.8909722222222223
0.04950445986124876,0.8909722222222223
0.04950445986124876,0.8916666666666667
0.05009910802775025,0.8916666666666667
0.05009910802775025,0.8923611111111112
0.05014866204162537,0.8923611111111112
0.05018169805087545,0.8923611111111112
0.05018169805087545,0.8930555555555556
0.05046250412950116,0.8930555555555556
0.05046250412950116,0.89375
0.05092500825900231,0.89375
0.05092500825900231,0.8944444444444445
0.0513214403700033,0.8944444444444445
0.05135447637925339,0.8944444444444445
0.051965642550379915,0.8944444444444445
0.051965642550379915,0.8951388888888889
0.05201519656425504,0.8951388888888889
0.05201519656425504,0.8958333333333334
0.05244466468450611,0.8958333333333334
0.05244466468450611,0.8965277777777778
0.05257680872150644,0.8965277777777778
0.05257680872150644,0.8972222222222223
0.052626362735381564,0.8972222222222223
0.052626362735381564,0.8979166666666667
0.05371655104063429,0.8979166666666667
0.05371655104063429,0.8986111111111111
0.053931285100759827,0.8986111111111111
0.053931285100759827,0.8993055555555556
0.054294681202510735,0.8993055555555556
0.05432771721176082,0.8993055555555556
0.054410307234886025,0.8993055555555556
0.054410307234886025,0.9
0.0548397753551371,0.9
0.0548397753551371,0.9006944444444445
0.055550049554013874,0.9006944444444445
0.055550049554013874,0.9013888888888889
0.055665675586389164,0.9013888888888889
0.055698711595639244,0.9013888888888889
0.05597951767426495,0.9013888888888889
0.05601255368351503,0.9013888888888889
0.05649157581764123,0.9013888888888889
0.056524611826891315,0.9013888888888889
0.056821935910142056,0.9013888888888889
0.056821935910142056,0.9020833333333333
0.05690452593326726,0.9020833333333333
0.05690452593326726,0.9027777777777778
0.05749917409976875,0.9027777777777778
0.05753221010901883,0.9027777777777778
0.05809382226627023,0.9027777777777778
0.05812685827552032,0.9027777777777778
0.05875454245127189,0.9027777777777778
0.05875454245127189,0.9034722222222222
0.05883713247439709,0.9034722222222222
0.05883713247439709,0.9041666666666667
0.059332672613148334,0.9041666666666667
0.059332672613148334,0.9048611111111111
0.05934919061777337,0.9048611111111111
0.05934919061777337,0.9055555555555556
0.05972910472414932,0.9055555555555556
0.0597621407333994,0.9055555555555556
0.06047241493227618,0.9055555555555556
0.06050545094152626,0.9055555555555556
0.06058804096465147,0.9055555555555556
0.06058804096465147,0.90625
0.061034027089527584,0.90625
0.061034027089527584,0.9069444444444444
0.06233894945490585,0.9069444444444444
0.06233894945490585,0.9076388888888889
0.06268582755203171,0.9076388888888889
0.06268582755203171,0.9083333333333333
0.06314833168153287,0.9083333333333333
0.06314833168153287,0.9090277777777778
0.0645193260654113,0.9090277777777778
0.0645193260654113,0.9097222222222222
0.06475057813016187,0.9097222222222222
0.06475057813016187,0.9104166666666667
0.06590683845391476,0.9104166666666667
0.06593987446316485,0.9104166666666667
0.06610505450941526,0.9104166666666667
0.06613809051866534,0.9104166666666667
0.06650148662041626,0.9104166666666667
0.06650148662041626,0.9111111111111111
0.0677568549719194,0.9111111111111111
0.0677568549719194,0.9118055555555555
0.06826891311529568,0.9118055555555555
0.06826891311529568,0.9125
0.06863230921704658,0.9125
0.06866534522629666,0.9125
0.06892963330029732,0.9125
0.06892963330029732,0.9131944444444444
0.06917740336967294,0.9131944444444444
0.06917740336967294,0.9138888888888889
0.07015196564255038,0.9138888888888889
0.07015196564255038,0.9145833333333333
0.0702015196564255,0.9145833333333333
0.07023455566567559,0.9145833333333333
0.07063098777667658,0.9145833333333333
0.07063098777667658,0.9152777777777777
0.07135777998017839,0.9152777777777777
0.07135777998017839,0.9159722222222222
0.07231582424843079,0.9159722222222222
0.07234886025768088,0.9159722222222222
0.07256359431780642,0.9159722222222222
0.07256359431780642,0.9166666666666666
0.07272877436405682,0.9166666666666666
0.07272877436405682,0.9180555555555555
0.07327386851668319,0.9180555555555555
0.07329038652130823,0.91875
0.07348860257680873,0.91875
0.07348860257680873,0.9194444444444444
0.07355467459530889,0.9194444444444444
0.07355467459530889,0.9201388888888888
0.07396762471093492,0.9201388888888888
0.07396762471093492,0.9208333333333333
0.0743640568219359,0.9208333333333333
0.07439709283118599,0.9208333333333333
0.07449620085893624,0.9208333333333333
0.07449620085893624,0.9215277777777777
0.07494218698381236,0.9215277777777777
0.07494218698381236,0.9222222222222223
0.0750412950115626,0.9222222222222223
0.0750412950115626,0.9229166666666667
0.07644532540469111,0.9229166666666667
0.07644532540469111,0.9236111111111112
0.07897258011232243,0.9236111111111112
0.07897258011232243,0.9243055555555556
0.07978196233894945,0.9243055555555556
0.07981499834819954,0.9243055555555556
0.08004625041295012,0.9243055555555556
0.08004625041295012,0.925
0.08050875454245127,0.925
0.08054179055170135,0.925
0.0805583085563264,0.925
0.0805583085563264,0.9256944444444445
0.08057482656095144,0.9256944444444445
0.08057482656095144,0.9263888888888889
0.08078956062107698,0.9263888888888889
0.08078956062107698,0.9270833333333334
0.08087215064420218,0.9270833333333334
0.08087215064420218,0.9277777777777778
0.08123554674595308,0.9277777777777778
0.08123554674595308,0.9284722222222223
0.08270564915758176,0.9284722222222223
0.08270564915758176,0.9291666666666667
0.08382887347208458,0.9291666666666667
0.08382887347208458,0.9298611111111111
0.08402708952758507,0.9298611111111111
0.08402708952758507,0.9305555555555556
0.08430789560621077,0.9305555555555556
0.08434093161546086,0.9305555555555556
0.08445655764783615,0.9305555555555556
0.08448959365708622,0.9305555555555556
0.0845556656755864,0.9305555555555556
0.08458870168483647,0.9305555555555556
0.08486950776346218,0.9305555555555556
0.08486950776346218,0.93125
0.08513379583746283,0.93125
0.08516683184671292,0.93125
0.08561281797158903,0.93125
0.08561281797158903,0.9319444444444445
0.08564585398083911,0.9319444444444445
0.08564585398083911,0.9326388888888889
0.08614139411959035,0.9326388888888889
0.08615791212421539,0.9333333333333333
0.0876775685497192,0.9333333333333333
0.0876775685497192,0.9340277777777778
0.08771060455896927,0.9340277777777778
0.08771060455896927,0.9347222222222222
0.08805748265609514,0.9347222222222222
0.08805748265609514,0.9354166666666667
0.08817310868847043,0.9354166666666667
0.08817310868847043,0.9368055555555556
0.09041955731747604,0.9368055555555556
0.09041955731747604,0.9375
0.09055170135447638,0.9375
0.09058473736372646,0.9375
0.09094813346547737,0.9375
0.09094813346547737,0.9381944444444444
0.09177403369672943,0.9381944444444444
0.09180706970597952,0.9381944444444444
0.09246778989098117,0.9381944444444444
0.09250082590023125,0.9381944444444444
0.09296333002973241,0.9381944444444444
0.09296333002973241,0.9388888888888889
0.09511067063098777,0.9388888888888889
0.09511067063098777,0.9395833333333333
0.09552362074661382,0.9395833333333333
0.09555665675586389,0.9395833333333333
0.09557317476048893,0.9395833333333333
0.09557317476048893,0.9402777777777778
0.09691113313511728,0.9402777777777778
0.09694416914436736,0.9402777777777778
0.09767096134786918,0.9402777777777778
0.09767096134786918,0.9409722222222222
0.09796828543111992,0.9409722222222222
0.09796828543111992,0.9416666666666667
0.09813346547737033,0.9416666666666667
0.09813346547737033,0.9423611111111111
0.10237859266600595,0.9423611111111111
0.10237859266600595,0.9430555555555555
0.1026428807400066,0.9430555555555555
0.1026428807400066,0.94375
0.10289065080938223,0.94375
0.10289065080938223,0.9444444444444444
0.1042781631978857,0.9444444444444444
0.10431119920713577,0.9444444444444444
0.10510406342913776,0.9444444444444444
0.10510406342913776,0.9451388888888889
0.10546745953088867,0.9451388888888889
0.10550049554013875,0.9451388888888889
0.10576478361413941,0.9451388888888889
0.10576478361413941,0.9458333333333333
0.10632639577139082,0.9458333333333333
0.10632639577139082,0.9465277777777777
0.1068384539147671,0.9465277777777777
0.10687148992401718,0.9465277777777777
0.10991080277502478,0.9465277777777777
0.10991080277502478,0.9472222222222222
0.110802775024777,0.9472222222222222
0.110802775024777,0.9479166666666666
0.1120416253716551,0.9479166666666666
0.11207466138090519,0.9479166666666666
0.11228939544103073,0.9479166666666666
0.11228939544103073,0.9486111111111111
0.11359431780640898,0.9486111111111111
0.11359431780640898,0.9493055555555555
0.11362735381565907,0.9493055555555555
0.11453584407003634,0.9493055555555555
0.11453584407003634,0.95
0.11461843409316154,0.95
0.11465147010241163,0.95
0.11740997687479353,0.95
0.1174430128840436,0.95
0.11802114304592005,0.95
0.11805417905517014,0.95
0.1183184671291708,0.95
0.11835150313842088,0.95
0.1185992732077965,0.95
0.11863230921704658,0.95
0.11921043937892302,0.95
0.1192434753881731,0.95
0.11930954740667328,0.95
0.11930954740667328,0.9506944444444444
0.12125867195242815,0.9506944444444444
0.12125867195242815,0.9513888888888888
0.12213412619755533,0.9513888888888888
0.12213412619755533,0.9520833333333333
0.12216716220680542,0.9520833333333333
0.1222001982160555,0.9520833333333333
0.12226627023455566,0.9520833333333333
0.12229930624380575,0.9520833333333333
0.12241493227618104,0.9520833333333333
0.12241493227618104,0.9527777777777777
0.12309217046580773,0.9527777777777777
0.12309217046580773,0.9534722222222223
0.12401717872481004,0.9534722222222223
0.12401717872481004,0.9541666666666667
0.12682523951106706,0.9541666666666667
0.12682523951106706,0.9548611111111112
0.1271555996035679,0.9548611111111112
0.1271555996035679,0.9555555555555556
0.12867525602907168,0.9555555555555556
0.12870829203832176,0.9555555555555556
0.12938553022794846,0.9555555555555556
0.12938553022794846,0.95625
0.13045920052857615,0.95625
0.13049223653782624,0.95625
0.13498513379583746,0.95625
0.13498513379583746,0.9569444444444445
0.13589362405021474,0.9569444444444445
0.13589362405021474,0.9576388888888889
0.13690122233234225,0.9576388888888889
0.13693425834159234,0.9576388888888889
0.1372811364387182,0.9576388888888889
0.13731417244796829,0.9576388888888889
0.1381565906838454,0.9576388888888889
0.13818962669309548,0.9576388888888889
0.1386025768087215,0.9576388888888889
0.1386356128179716,0.9576388888888889
0.13918070697059795,0.9576388888888889
0.13921374297984804,0.9576388888888889
0.1397092831185993,0.9576388888888889
0.1397092831185993,0.9583333333333334
0.13995705318797488,0.9583333333333334
0.13999008919722497,0.9583333333333334
0.14028741328047573,0.9583333333333334
0.14028741328047573,0.9590277777777778
0.14243475388173107,0.9590277777777778
0.14246778989098116,0.9590277777777778
0.14317806408985795,0.9590277777777778
0.14321110009910804,0.9590277777777778
0.1448794185662372,0.9590277777777778
0.1449124545754873,0.9590277777777778
0.14554013875123886,0.9590277777777778
0.14554013875123886,0.9597222222222223
0.14600264288074,0.9597222222222223
0.14600264288074,0.9604166666666667
0.1463164849686158,0.9604166666666667
0.14633300297324084,0.9611111111111111
0.1476874793524942,0.9611111111111111
0.1477205153617443,0.9611111111111111
0.14942186983812356,0.9611111111111111
0.14945490584737364,0.9611111111111111
0.14985133795837463,0.9611111111111111
0.14985133795837463,0.9618055555555556
0.15221341261975554,0.9618055555555556
0.1522464486290056,0.9618055555555556
0.15226296663363065,0.9618055555555556
0.15226296663363065,0.9631944444444445
0.15287413280475717,0.9631944444444445
0.15290716881400726,0.9631944444444445
0.15421209117938553,0.9631944444444445
0.15421209117938553,0.9638888888888889
0.156408985794516,0.9638888888888889
0.1564420218037661,0.9638888888888889
0.15680541790551702,0.9638888888888889
0.15683845391476708,0.9638888888888889
0.15683845391476708,0.9645833333333333
0.15710274198876775,0.9645833333333333
0.15713577799801784,0.9645833333333333
0.1577634621737694,0.9645833333333333
0.1577634621737694,0.9652777777777778
0.15811034027089527,0.9652777777777778
0.15811034027089527,0.9659722222222222
0.16014205483977537,0.9659722222222222
0.16017509084902543,0.9659722222222222
0.16101750908490253,0.9659722222222222
0.16105054509415262,0.9659722222222222
0.1611166171126528,0.9659722222222222
0.16114965312190288,0.9659722222222222
0.16174430128840436,0.9659722222222222
0.1617608192930294,0.9666666666666667
0.16290056161215724,0.9666666666666667
0.16290056161215724,0.9673611111111111
0.16304922365378263,0.9673611111111111
0.16308225966303272,0.9673611111111111
0.1658407664354146,0.9673611111111111
0.16587380244466468,0.9673611111111111
0.16952428146679882,0.9673611111111111
0.16955731747604888,0.9673611111111111
0.16977205153617442,0.9673611111111111
0.1698050875454245,0.9673611111111111
0.17127518995705318,0.9673611111111111
0.17130822596630327,0.9673611111111111
0.17160555004955402,0.9673611111111111
0.17160555004955402,0.9680555555555556
0.1724314502808061,0.9680555555555556
0.1724314502808061,0.96875
0.17393458870168485,0.96875
0.1739676247109349,0.96875
0.17424843078956062,0.96875
0.1742814667988107,0.96875
0.17545424512718863,0.96875
0.17545424512718863,0.9694444444444444
0.17548728113643872,0.9694444444444444
0.17548728113643872,0.9701388888888889
0.17556987115956393,0.9701388888888889
0.17560290716881402,0.9701388888888889
0.17637925338619095,0.9701388888888889
0.17637925338619095,0.9708333333333333
0.1805913445655765,0.9708333333333333
0.18062438057482655,0.9708333333333333
0.18082259663032704,0.9708333333333333
0.18082259663032704,0.9715277777777778
0.18087215064420217,0.9715277777777778
0.18090518665345226,0.9715277777777778
0.18192930294020482,0.9715277777777778
0.18192930294020482,0.9722222222222222
0.18217707300958044,0.9722222222222222
0.18221010901883053,0.9722222222222222
0.18288734720845723,0.9722222222222222
0.18288734720845723,0.9729166666666667
0.1838453914767096,0.9729166666666667
0.1838453914767096,0.9736111111111111
0.18419226957383547,0.9736111111111111
0.18422530558308556,0.9736111111111111
0.18513379583746284,0.9736111111111111
0.18513379583746284,0.9743055555555555
0.18711595639246778,0.9743055555555555
0.18714899240171787,0.9743055555555555
0.18779319458209448,0.9743055555555555
0.18782623059134457,0.9743055555555555
0.18885034687809713,0.9743055555555555
0.1888833828873472,0.9743055555555555
0.18893293690122234,0.9743055555555555
0.1889659729104724,0.9743055555555555
0.18913115295672284,0.9743055555555555
0.18913115295672284,0.975
0.1932441361083581,0.975
0.1932441361083581,0.9756944444444444
0.19398744631648496,0.9756944444444444
0.19402048232573504,0.9756944444444444
0.19529236868186323,0.9756944444444444
0.1953254046911133,0.9756944444444444
0.1985133795837463,0.9756944444444444
0.1985133795837463,0.9763888888888889
0.20153617443012883,0.9763888888888889
0.20153617443012883,0.9777777777777777
0.20270895275850678,0.9777777777777777
0.20274198876775684,0.9777777777777777
0.20277502477700693,0.9777777777777777
0.20280806078625702,0.9777777777777777
0.20535183349851338,0.9777777777777777
0.20535183349851338,0.9784722222222222
0.20538486950776347,0.9784722222222222
0.20541790551701355,0.9784722222222222
0.20670630987776675,0.9784722222222222
0.20673934588701684,0.9784722222222222
0.20974562272877437,0.9784722222222222
0.20974562272877437,0.9791666666666666
0.21162867525602908,0.9791666666666666
0.21162867525602908,0.9798611111111111
0.21399074991741,0.9798611111111111
0.21402378592666005,0.9798611111111111
0.2160720185001652,0.9798611111111111
0.2160720185001652,0.9805555555555555
0.2167657746944169,0.9805555555555555
0.216798810703667,0.9805555555555555
0.21826891311529567,0.9805555555555555
0.21830194912454576,0.9805555555555555
0.21902874132804756,0.9805555555555555
0.21906177733729765,0.9805555555555555
0.21968946151304922,0.9805555555555555
0.2197224975222993,0.9805555555555555
0.22094482986455236,0.9805555555555555
0.22094482986455236,0.98125
0.22177073009580442,0.98125
0.2218037661050545,0.98125
0.22195242814667987,0.98125
0.22198546415592996,0.98125
0.22370333663693426,0.98125
0.22373637264618434,0.98125
0.22502477700693757,0.98125
0.22505781301618766,0.98125
0.22510736703006276,0.98125
0.22514040303931285,0.98125
0.22608192930294022,0.98125
0.22611496531219027,0.98125
0.2262801453584407,0.98125
0.2263131813676908,0.98125
0.2265609514370664,0.98125
0.22659398744631648,0.98125
0.22722167162206805,0.98125
0.22725470763131814,0.98125
0.22728774364056822,0.98125
0.2273207796498183,0.98125
0.22887347208457218,0.98125
0.22887347208457218,0.9819444444444444
0.22961678229269905,0.9819444444444444
0.22964981830194914,0.9819444444444444
0.22966633630657415,0.9819444444444444
0.22969937231582424,0.9819444444444444
0.23138420878757845,0.9819444444444444
0.23141724479682854,0.9819444444444444
0.23381235546745954,0.9819444444444444
0.2338453914767096,0.9819444444444444
0.23445655764783613,0.9819444444444444
0.23448959365708621,0.9819444444444444
0.23450611166171126,0.9819444444444444
0.23453914767096135,0.9819444444444444
0.237198546415593,0.9819444444444444
0.23723158242484307,0.9819444444444444
0.23825569871159563,0.9819444444444444
0.23828873472084572,0.9819444444444444
0.23913115295672283,0.9819444444444444
0.2391641889659729,0.9819444444444444
0.2398414271555996,0.9819444444444444
0.2398744631648497,0.9819444444444444
0.24093161546085232,0.9819444444444444
0.2409646514701024,0.9819444444444444
0.2428477039973571,0.9819444444444444
0.2428807400066072,0.9819444444444444
0.24649818301949125,0.9819444444444444
0.24653121902874134,0.9819444444444444
0.24767096134786917,0.9819444444444444
0.24770399735711926,0.9819444444444444
0.24889329369012222,0.9819444444444444
0.2489263296993723,0.9819444444444444
0.24957053187974892,0.9819444444444444
0.249603567888999,0.9819444444444444
0.25254377271225636,0.9819444444444444
0.25257680872150645,0.9819444444444444
0.25294020482325735,0.9819444444444444
0.25297324083250744,0.9819444444444444
0.2533531549388834,0.9819444444444444
0.25338619094813347,0.9819444444444444
0.25450941526263626,0.9819444444444444
0.25454245127188635,0.9819444444444444
0.25477370333663696,0.9819444444444444
0.254806739345887,0.9819444444444444
0.2601585728444004,0.9819444444444444
0.2601916088536505,0.9819444444444444
0.2603733069045259,0.9819444444444444
0.260406342913776,0.9819444444444444
0.2614634952097787,0.9819444444444444
0.2614965312190287,0.9819444444444444
0.2619590353485299,0.9819444444444444
0.26199207135777997,0.9819444444444444
0.26648496861579124,0.9819444444444444
0.26651800462504127,0.9819444444444444
0.2697555335315494,0.9819444444444444
0.2697885695407995,0.9819444444444444
0.27035018169805086,0.9819444444444444
0.27038321770730095,0.9819444444444444
0.2706805417905517,0.9819444444444444
0.27071357779980176,0.9819444444444444
0.27148992401717875,0.9819444444444444
0.2715229600264288,0.9819444444444444
0.2716716220680542,0.9819444444444444
0.27170465807730426,0.9819444444444444
0.27398414271556,0.9819444444444444
0.27398414271556,0.9826388888888888
0.27566897918731414,0.9826388888888888
0.27570201519656423,0.9826388888888888
0.2782127518995705,0.9826388888888888
0.2782457879088206,0.9826388888888888
0.2783614139411959,0.9826388888888888
0.278394449950446,0.9826388888888888
0.2803270564915758,0.9826388888888888
0.2803600925008259,0.9826388888888888
0.28042616451932606,0.9826388888888888
0.28045920052857615,0.9826388888888888
0.2815328708292038,0.9826388888888888
0.2815659068384539,0.9826388888888888
0.28181367690782955,0.9826388888888888
0.28184671291707963,0.9826388888888888
0.2828377931945821,0.9826388888888888
0.28287082920383216,0.9826388888888888
0.286405682193591,0.9826388888888888
0.2864387182028411,0.9826388888888888
0.2868351503138421,0.9826388888888888
0.2868681863230922,0.9826388888888888
0.2894945490584737,0.9826388888888888
0.2894945490584737,0.9833333333333333
0.28957713908159893,0.9833333333333333
0.289610175090849,0.9833333333333333
0.2905847373637265,0.9833333333333333
0.29061777337297656,0.9833333333333333
0.2906673273868517,0.9833333333333333
0.2907003633961017,0.9833333333333333
0.29297984803435745,0.9833333333333333
0.29301288404360754,0.9833333333333333
0.2937727122563594,0.9833333333333333
0.2938057482656095,0.9833333333333333
0.29882722167162207,0.9833333333333333
0.29882722167162207,0.9840277777777777
0.29985133795837465,0.9840277777777777
0.2998843739676247,0.9840277777777777
0.30323752890650807,0.9840277777777777
0.30327056491575816,0.9840277777777777
0.3036835150313842,0.9840277777777777
0.3036835150313842,0.9847222222222223
0.30637594978526594,0.9847222222222223
0.30640898579451603,0.9847222222222223
0.3085563263957714,0.9847222222222223
0.3085893624050215,0.9847222222222223
0.30958044268252394,0.9847222222222223
0.309613478691774,0.9847222222222223
0.31005946481665014,0.9847222222222223
0.3101090188305253,0.9847222222222223
0.3115460852329039,0.9847222222222223
0.3115791212421539,0.9847222222222223
0.31313181367690784,0.9847222222222223
0.31316484968615793,0.9847222222222223
0.31572514040303934,0.9847222222222223
0.31575817641228937,0.9847222222222223
0.3203336636934258,0.9847222222222223
0.3203666997026759,0.9847222222222223
0.32198546415593,0.9847222222222223
0.32201850016518,0.9847222222222223
0.3220845721836802,0.9847222222222223
0.3221176081929303,0.9847222222222223
0.32221671622068054,0.9847222222222223
0.32221671622068054,0.9854166666666667
0.3223158242484308,0.9854166666666667
0.3223488602576809,0.9854166666666667
0.3229269904195573,0.9854166666666667
0.3229600264288074,0.9854166666666667
0.3246778989098117,0.9854166666666667
0.3247109349190618,0.9854166666666667
0.32609844730756526,0.9854166666666667
0.32613148331681535,0.9854166666666667
0.32692434753881733,0.9854166666666667
0.3269573835480674,0.9854166666666667
0.33105384869507765,0.9854166666666667
0.33108688470432773,0.9854166666666667
0.33186323092170467,0.9854166666666667
0.33189626693095475,0.9854166666666667
0.3334489593657086,0.9854166666666667
0.3334819953749587,0.9854166666666667
0.33477039973571193,0.9854166666666667
0.334803435744962,0.9854166666666667
0.33642220019821606,0.9854166666666667
0.33645523620746615,0.9854166666666667
0.33663693425834157,0.9854166666666667
0.33666997026759166,0.9854166666666667
0.33757846052196894,0.9854166666666667
0.337611496531219,0.9854166666666667
0.33820614469772053,0.9854166666666667
0.3382391807069706,0.9854166666666667
0.3382887347208457,0.9854166666666667
0.3383217707300958,0.9854166666666667
0.3395771390815989,0.9854166666666667
0.339610175090849,0.9854166666666667
0.3406838453914767,0.9854166666666667
0.3407168814007268,0.9854166666666667
0.34086554344235215,0.9854166666666667
0.34089857945160223,0.9854166666666667
0.34146019160885366,0.9854166666666667
0.34149322761810375,0.9854166666666667
0.3438718202841097,0.9854166666666667
0.34390485629335976,0.9854166666666667
0.3441691443673604,0.9854166666666667
0.3442021803766105,0.9854166666666667
0.3454079947142385,0.9854166666666667
0.3454410307234886,0.9854166666666667
0.34547406673273867,0.9854166666666667
0.34550710274198876,0.9854166666666667
0.3469606871489924,0.9854166666666667
0.3469937231582425,0.9854166666666667
0.34701024116286755,0.9854166666666667
0.34701024116286755,0.9861111111111112
0.34810042946812025,0.9861111111111112
0.34813346547737034,0.9861111111111112
0.3494383878427486,0.9861111111111112
0.3494714238519987,0.9861111111111112
0.349603567888999,0.9861111111111112
0.3496366038982491,0.9861111111111112
0.35175090849025437,0.9861111111111112
0.35178394449950445,0.9861111111111112
0.3521308225966303,0.9861111111111112
0.3521968946151305,0.9861111111111112
0.3529732408325074,0.9861111111111112
0.3529732408325074,0.9868055555555556
0.3532375289065081,0.9868055555555556
0.3532705649157582,0.9868055555555556
0.3581103402708953,0.9868055555555556
0.35814337628014536,0.9868055555555556
0.360786257020152,0.9868055555555556
0.360819293029402,0.9868055555555556
0.3608853650479022,0.9868055555555556
0.3609184010571523,0.9868055555555556
0.36146349520977866,0.9868055555555556
0.36149653121902875,0.9868055555555556
0.36674925668979186,0.9868055555555556
0.36678229269904195,0.9868055555555556
0.3685166831846713,0.9868055555555556
0.3685497191939214,0.9868055555555556
0.37238189626693097,0.9868055555555556
0.37241493227618105,0.9868055555555556
0.3739180706970598,0.9868055555555556
0.3739511067063099,0.9868055555555556
0.3745457548728114,0.9868055555555556
0.3745787908820615,0.9868055555555556
0.37594978526593986,0.9868055555555556
0.37594978526593986,0.9875
0.3777172117608193,0.9875
0.3777172117608193,0.9881944444444445
0.3823092170465808,0.9881944444444445
0.38234225305583086,0.9881944444444445
0.38310208126858275,0.9881944444444445
0.38310208126858275,0.9888888888888889
0.3835315493888338,0.9888888888888889
0.3835645853980839,0.9888888888888889
0.38386190948133464,0.9888888888888889
0.3838949454905847,0.9888888888888889
0.3870333663693426,0.9888888888888889
0.3870664023785927,0.9888888888888889
0.3870994383878428,0.9888888888888889
0.3870994383878428,0.9895833333333334
0.3928311859927321,0.9895833333333334
0.3928642220019822,0.9895833333333334
0.39522629666336306,0.9895833333333334
0.39525933267261315,0.9895833333333334
0.3962669309547407,0.9895833333333334
0.3962999669639907,0.9895833333333334
0.397208457218368,0.9895833333333334
0.3972414932276181,0.9895833333333334
0.3974397092831186,0.9895833333333334
0.3974727452923687,0.9895833333333334
0.39843078956062106,0.9895833333333334
0.39843078956062106,0.9902777777777778
0.40125536835150316,0.9902777777777778
0.40128840436075325,0.9902777777777778
0.40639246778989097,0.9902777777777778
0.40639246778989097,0.9909722222222223
0.40708622398414274,0.9909722222222223
0.4071192599933928,0.9909722222222223
0.40744962008589364,0.9909722222222223
0.4074826560951437,0.9909722222222223
0.4092831185992732,0.9909722222222223
0.4093161546085233,0.9909722222222223
0.41493227618103734,0.9909722222222223
0.41493227618103734,0.9916666666666667
0.41598942847703996,0.9916666666666667
0.41602246448629004,0.9916666666666667
0.416815328708292,0.9916666666666667
0.4168483647175421,0.9916666666666667
0.4194416914436736,0.9916666666666667
0.4194747274529237,0.9916666666666667
0.4195242814667988,0.9916666666666667
0.4195573174760489,0.9916666666666667
0.41993723158242485,0.9916666666666667
0.41997026759167494,0.9916666666666667
0.42058143376280144,0.9916666666666667
0.4206144697720515,0.9916666666666667
0.42193591014205484,0.9916666666666667
0.4219689461513049,0.9916666666666667
0.4238189626693096,0.9916666666666667
0.4238519986785596,0.9916666666666667
0.42639577139081597,0.9916666666666667
0.42642880740006606,0.9916666666666667
0.4283448959365709,0.9916666666666667
0.4283448959365709,0.9923611111111111
0.4292864222001982,0.9923611111111111
0.4293194582094483,0.9923611111111111
0.43125206475057815,0.9923611111111111
0.43128510075982823,0.9923611111111111
0.43173108688470435,0.9923611111111111
0.43173108688470435,0.9930555555555556
0.43296993723158245,0.9930555555555556
0.43303600925008257,0.9930555555555556
0.43402708952758506,0.9930555555555556
0.43406012553683515,0.9930555555555556
0.43518334985133794,0.9930555555555556
0.43521638586058803,0.9930555555555556
0.437594978526594,0.9930555555555556
0.43762801453584405,0.9930555555555556
0.44139411959035346,0.9930555555555556
0.44142715559960355,0.9930555555555556
0.44165840766435416,0.9930555555555556
0.44165840766435416,0.99375
0.4419557317476049,0.99375
0.44198876775685497,0.99375
0.4429963660389825,0.99375
0.4430294020482326,0.99375
0.4434588701684836,0.99375
0.4434919061777337,0.99375
0.44461513049223655,0.99375
0.44464816650148664,0.99375
0.4447637925338619,0.99375
0.444796828543112,0.99375
0.447588371324744,0.99375
0.447621407333994,0.99375
0.44975222993062436,0.99375
0.44975222993062436,0.9944444444444445
0.451602246448629,0.9944444444444445
0.451602246448629,0.9951388888888889
0.45307234886025766,0.9951388888888889
0.45310538486950774,0.9951388888888889
0.45313842087875783,0.9951388888888889
0.4531714568880079,0.9951388888888889
0.45642550379914104,0.9951388888888889
0.45645853980839113,0.9951388888888889
0.45964651470102413,0.9951388888888889
0.4596795507102742,0.9951388888888889
0.4607532210109019,0.9951388888888889
0.46078625702015197,0.9951388888888889
0.46139742319127847,0.9951388888888889
0.46143045920052855,0.9951388888888889
0.4615626032375289,0.9951388888888889
0.461595639246779,0.9951388888888889
0.46190948133465476,0.9951388888888889
0.46194251734390485,0.9951388888888889
0.4629831516352825,0.9951388888888889
0.46301618764453256,0.9951388888888889
0.4642054839775355,0.9951388888888889
0.4642385199867856,0.9951388888888889
0.46646845061116615,0.9951388888888889
0.46650148662041624,0.9951388888888889
0.4707300958044268,0.9951388888888889
0.4707631318136769,0.9951388888888889
0.4722001982160555,0.9951388888888889
0.4722332342253056,0.9951388888888889
0.4744796828543112,0.9951388888888889
0.4745127188635613,0.9951388888888889
0.47502477700693757,0.9951388888888889
0.47505781301618766,0.9951388888888889
0.4762471093491906,0.9951388888888889
0.4762801453584407,0.9951388888888889
0.47666005946481665,0.9951388888888889
0.47669309547406674,0.9951388888888889
0.4807234886025768,0.9951388888888889
0.4807565246118269,0.9951388888888889
0.4818962669309547,0.9951388888888889
0.4819293029402048,0.9951388888888889
0.48239180706970597,0.9951388888888889
0.48245787908820614,0.9951388888888889
0.4828377931945821,0.9951388888888889
0.4828708292038322,0.9951388888888889
0.4832342253055831,0.9951388888888889
0.48326726131483316,0.9951388888888889
0.48526593987446315,0.9951388888888889
0.48526593987446315,0.9958333333333333
0.485612817971589,0.9958333333333333
0.4856458539808391,0.9958333333333333
0.4857284440039643,0.9958333333333333
0.4857614800132144,0.9958333333333333
0.4865213082259663,0.9958333333333333
0.4865543442352164,0.9958333333333333
0.48761149653121905,0.9958333333333333
0.48764453254046913,0.9958333333333333
0.4884704327717212,0.9958333333333333
0.4885034687809713,0.9958333333333333
0.49008919722497524,0.9958333333333333
0.4901222332342253,0.9958333333333333
0.4925173439048563,0.9958333333333333
0.4925503799141064,0.9958333333333333
0.49258341592335647,0.9958333333333333
0.49261645193260656,0.9958333333333333
0.4935414601916088,0.9958333333333333
0.4935744962008589,0.9958333333333333
0.4954740667327387,0.9958333333333333
0.4955071027419888,0.9958333333333333
0.4970432771721176,0.9958333333333333
0.4970763131813677,0.9958333333333333
0.4981004294681203,0.9958333333333333
0.4981334654773703,0.9958333333333333
0.49938883382887345,0.9958333333333333
0.49942186983812353,0.9958333333333333
0.4994549058473736,0.9958333333333333
0.4994879418566237,0.9958333333333333
0.4999174099768748,0.9958333333333333
0.49995044598612487,0.9958333333333333
0.5017013544763792,0.9958333333333333
0.5017343904856293,0.9958333333333333
0.502411628675256,0.9958333333333333
0.5024446646845061,0.9958333333333333
0.5032210109018831,0.9958333333333333
0.5032540469111332,0.9958333333333333
0.5037826230591345,0.9958333333333333
0.5038156590683845,0.9958333333333333
0.5072679220350181,0.9958333333333333
0.5073009580442682,0.9958333333333333
0.5074661380905187,0.9958333333333333
0.5074991740997687,0.9958333333333333
0.5089197224975223,0.9958333333333333
0.5089527585067724,0.9958333333333333
0.5089692765113975,0.9958333333333333
0.5090023125206475,0.9958333333333333
0.5142385199867856,0.9958333333333333
0.5142715559960357,0.9958333333333333
0.5168483647175421,0.9958333333333333
0.5168814007267922,0.9958333333333333
0.5174264948794186,0.9958333333333333
0.5174595308886687,0.9958333333333333
0.5207300958044269,0.9958333333333333
0.520763131813677,0.9958333333333333
0.5213247439709283,0.9958333333333333
0.5213908159894285,0.9958333333333333
0.5219359101420549,0.9958333333333333
0.521968946151305,0.9958333333333333
0.5226792203501817,0.9958333333333333
0.5227122563594317,0.9958333333333333
0.5235711925999339,0.9958333333333333
0.523604228609184,0.9958333333333333
0.5249917409976875,0.9958333333333333
0.5250247770069376,0.9958333333333333
0.5257350512058143,0.9958333333333333
0.5257680872150644,0.9958333333333333
0.5260984473075653,0.9958333333333333
0.5261314833168154,0.9958333333333333
0.5261480013214404,0.9958333333333333
0.5261810373306904,0.9958333333333333
0.5266270234555666,0.9958333333333333
0.5266600594648166,0.9958333333333333
0.531615460852329,0.9958333333333333
0.5316484968615791,0.9958333333333333
0.5361413941195904,0.9958333333333333
0.5361744301288405,0.9958333333333333
0.5362570201519656,0.9958333333333333
0.5362900561612157,0.9958333333333333
0.5423356458539809,0.9958333333333333
0.542368681863231,0.9958333333333333
0.5452428146679881,0.9958333333333333
0.5452758506772382,0.9958333333333333
0.5458044268252396,0.9958333333333333
0.5458374628344896,0.9958333333333333
0.5459365708622398,0.9958333333333333
0.5459696068714899,0.9958333333333333
0.5472414932276181,0.9958333333333333
0.5472745292368681,0.9958333333333333
0.5484473075652461,0.9958333333333333
0.5484803435744962,0.9958333333333333
0.5490089197224975,0.9958333333333333
0.5490419557317476,0.9958333333333333
0.549603567888999,0.9958333333333333
0.5496366038982491,0.9958333333333333
0.5511562603237529,0.9958333333333333
0.551189296333003,0.9958333333333333
0.5520812685827552,0.9958333333333333
0.5521143045920053,0.9958333333333333
0.5535348529897588,0.9958333333333333
0.5535678889990089,0.9958333333333333
0.554377271225636,0.9958333333333333
0.554410307234886,0.9958333333333333
0.5546911133135117,0.9958333333333333
0.5547241493227618,0.9958333333333333
0.5553848695077634,0.9958333333333333
0.5554179055170135,0.9958333333333333
0.5567228278823918,0.9958333333333333
0.5567558638916419,0.9958333333333333
0.5574826560951437,0.9958333333333333
0.5575156921043938,0.9958333333333333
0.5583085563263958,0.9958333333333333
0.5583415923356458,0.9958333333333333
0.5585893624050214,0.9958333333333333
0.5586223984142715,0.9958333333333333
0.5593326726131483,0.9958333333333333
0.5593657086223984,0.9958333333333333
0.5611496531219029,0.9958333333333333
0.561182689131153,0.9958333333333333
0.5622068054179055,0.9958333333333333
0.5622398414271556,0.9958333333333333
0.5640568219359101,0.9958333333333333
0.5640898579451602,0.9958333333333333
0.5642054839775356,0.9958333333333333
0.5642385199867856,0.9958333333333333
0.5645853980839115,0.9958333333333333
0.5646184340931616,0.9958333333333333
0.5647175421209117,0.9958333333333333
0.5647175421209117,0.9965277777777778
0.5676907829534192,0.9965277777777778
0.5677238189626693,0.9965277777777778
0.5706970597951767,0.9965277777777778
0.5707300958044268,0.9965277777777778
0.5708622398414271,0.9965277777777778
0.5708952758506772,0.9965277777777778
0.5711595639246779,0.9965277777777778
0.571192599933928,0.9965277777777778
0.5733069045259332,0.9965277777777778
0.5733399405351833,0.9965277777777778
0.5780475718533201,0.9965277777777778
0.5780806078625702,0.9965277777777778
0.5787413280475718,0.9965277777777778
0.5787743640568219,0.9965277777777778
0.5794185662371986,0.9965277777777778
0.5794516022464486,0.9965277777777778
0.5812685827552032,0.9965277777777778
0.5813016187644533,0.9965277777777778
0.5825569871159564,0.9965277777777778
0.5825735051205815,0.9972222222222222
0.5842583415923357,0.9972222222222222
0.5842913776015858,0.9972222222222222
0.5847043277172118,0.9972222222222222
0.5847373637264618,0.9972222222222222
0.5861248761149653,0.9972222222222222
0.5861579121242154,0.9972222222222222
0.5876940865543442,0.9972222222222222
0.5877271225635943,0.9972222222222222
0.5896597291047242,0.9972222222222222
0.5896927651139743,0.9972222222222222
0.591179385530228,0.9972222222222222
0.5912124215394781,0.9972222222222222
0.5923356458539808,0.9972222222222222
0.5923686818632309,0.9972222222222222
0.5956888007928642,0.9972222222222222
0.5957218368021143,0.9972222222222222
0.5957879088206145,0.9972222222222222
0.5958209448298646,0.9972222222222222
0.5986620416253716,0.9972222222222222
0.5986950776346217,0.9972222222222222
0.5998348199537495,0.9972222222222222
0.5998678559629996,0.9972222222222222
0.6018995705318797,0.9972222222222222
0.6019326065411298,0.9972222222222222
0.6019656425503799,0.9972222222222222
0.60199867855963,0.9972222222222222
0.6023290386521308,0.9972222222222222
0.6023620746613809,0.9972222222222222
0.6031384208787578,0.9972222222222222
0.6031714568880079,0.9972222222222222
0.6036835150313842,0.9972222222222222
0.6037165510406343,0.9972222222222222
0.6046085232903865,0.9972222222222222
0.6046415592996366,0.9972222222222222
0.6051040634291378,0.9972222222222222
0.6051370994383879,0.9972222222222222
0.6074826560951437,0.9972222222222222
0.6075156921043938,0.9972222222222222
0.6088536504790222,0.9972222222222222
0.6088866864882723,0.9972222222222222
0.6128179715890321,0.9972222222222222
0.6128510075982821,0.9972222222222222
0.6131318136769078,0.9972222222222222
0.6131648496861579,0.9972222222222222
0.614420218037661,0.9972222222222222
0.6144532540469111,0.9972222222222222
0.6185662371985464,0.9972222222222222
0.6185992732077965,0.9972222222222222
0.621589032044929,0.9972222222222222
0.6216220680541791,0.9972222222222222
0.6233069045259333,0.9972222222222222
0.6233399405351834,0.9972222222222222
0.6254872811364387,0.9972222222222222
0.6255203171456888,0.9972222222222222
0.6270895275850678,0.9972222222222222
0.6271225635943178,0.9972222222222222
0.6278328377931945,0.9972222222222222
0.6278658738024446,0.9972222222222222
0.628807400066072,0.9972222222222222
0.6288404360753221,0.9972222222222222
0.6295672282788239,0.9972222222222222
0.629600264288074,0.9972222222222222
0.6307565246118269,0.9972222222222222
0.6307895606210769,0.9972222222222222
0.6309051866534523,0.9972222222222222
0.6309382226627024,0.9972222222222222
0.6313842087875785,0.9972222222222222
0.6314172447968286,0.9972222222222222
0.63197885695408,0.9972222222222222
0.63201189296333,0.9972222222222222
0.6356293359762141,0.9972222222222222
0.6356623719854642,0.9972222222222222
0.638371324743971,0.9972222222222222
0.638404360753221,0.9972222222222222
0.6385199867855963,0.9972222222222222
0.6385530227948464,0.9972222222222222
0.6386025768087215,0.9972222222222222
0.6386356128179715,0.9972222222222222
0.6445820944829864,0.9972222222222222
0.6446151304922365,0.9972222222222222
0.6451437066402379,0.9972222222222222
0.645176742649488,0.9972222222222222
0.6500991080277503,0.9972222222222222
0.6501321440370004,0.9972222222222222
0.6510075982821275,0.9972222222222222
0.6510406342913776,0.9972222222222222
0.6515692104393789,0.9972222222222222
0.651602246448629,0.9972222222222222
0.6516518004625041,0.9972222222222222
0.6516848364717542,0.9972222222222222
0.6519160885365048,0.9972222222222222
0.6519491245457548,0.9972222222222222
0.6529236868186323,0.9972222222222222
0.6529567228278824,0.9972222222222222
0.6554674595308887,0.9972222222222222
0.6555004955401388,0.9972222222222222
0.6558969276511397,0.9972222222222222
0.6559299636603898,0.9972222222222222
0.6603402708952758,0.9972222222222222
0.6603733069045259,0.9972222222222222
0.6608688470432772,0.9972222222222222
0.6609018830525273,0.9972222222222222
0.6627188635612818,0.9972222222222222
0.6627518995705319,0.9972222222222222
0.6629005616121573,0.9972222222222222
0.6629335976214074,0.9972222222222222
0.6633630657416584,0.9972222222222222
0.6633961017509085,0.9972222222222222
0.6638255698711596,0.9972222222222222
0.6638586058804097,0.9972222222222222
0.664007267922035,0.9972222222222222
0.6640403039312851,0.9972222222222222
0.6641724479682855,0.9972222222222222
0.6642054839775355,0.9972222222222222
0.6658903204492898,0.9972222222222222
0.6659233564585398,0.9972222222222222
0.6659729104724149,0.9972222222222222
0.666005946481665,0.9972222222222222
0.6660224644862901,0.9972222222222222
0.6660555004955402,0.9972222222222222
0.6663363065741659,0.9972222222222222
0.666369342583416,0.9972222222222222
0.671209117938553,0.9972222222222222
0.6712421539478031,0.9972222222222222
0.6720845721836802,0.9972222222222222
0.6721176081929303,0.9972222222222222
0.673174760488933,0.9972222222222222
0.673207796498183,0.9972222222222222
0.6737528906508093,0.9972222222222222
0.6737859266600594,0.9972222222222222
0.6748265609514371,0.9972222222222222
0.6748595969606872,0.9972222222222222
0.6750412950115626,0.9972222222222222
0.6750743310208127,0.9972222222222222
0.6794846382556987,0.9972222222222222
0.6795176742649488,0.9972222222222222
0.6808391146349521,0.9972222222222222
0.6808721506442021,0.9972222222222222
0.6817806408985795,0.9972222222222222
0.6818136769078296,0.9972222222222222
0.6832177073009581,0.9972222222222222
0.6832507433102081,0.9972222222222222
0.6840105715229601,0.9972222222222222
0.6840436075322102,0.9972222222222222
0.6846217376940865,0.9972222222222222
0.6846547737033366,0.9972222222222222
0.684819953749587,0.9972222222222222
0.6848529897588371,0.9972222222222222
0.6850016518004625,0.9972222222222222
0.6850346878097126,0.9972222222222222
0.685183349851338,0.9972222222222222
0.6852163858605881,0.9972222222222222
0.6868351503138421,0.9972222222222222
0.6868681863230922,0.9972222222222222
0.6870994383878427,0.9972222222222222
0.6871324743970928,0.9972222222222222
0.6878427485959696,0.9972222222222222
0.6878757846052197,0.9972222222222222
0.688817310868847,0.9972222222222222
0.6888503468780971,0.9972222222222222
0.6889494549058474,0.9972222222222222
0.6889824909150974,0.9972222222222222
0.6918070697059795,0.9972222222222222
0.6918401057152296,0.9972222222222222
0.6926825239511067,0.9972222222222222
0.6926825239511067,0.9979166666666667
0.693161546085233,0.9979166666666667
0.693194582094483,0.9979166666666667
0.6936901222332342,0.9979166666666667
0.6937231582424843,0.9979166666666667
0.6939709283118599,0.9979166666666667
0.69400396432111,0.9979166666666667
0.6956722827882392,0.9979166666666667
0.6957053187974893,0.9979166666666667
0.70003303600925,0.9979166666666667
0.7000660720185001,0.9979166666666667
0.7037661050545094,0.9979166666666667
0.7037991410637595,0.9979166666666667
0.707218368021143,0.9979166666666667
0.7072514040303931,0.9979166666666667
0.7093657086223984,0.9979166666666667
0.7093657086223984,0.9986111111111111
0.7100594648166502,0.9986111111111111
0.7100925008259003,0.9986111111111111
0.7114965312190288,0.9986111111111111
0.7115295672282789,0.9986111111111111
0.7129335976214073,0.9986111111111111
0.7129666336306574,0.9986111111111111
0.7137925338619094,0.9986111111111111
0.7138255698711595,0.9986111111111111
0.7142054839775355,0.9986111111111111
0.7142385199867856,0.9986111111111111
0.7164684506111662,0.9986111111111111
0.7165014866204162,0.9986111111111111
0.7169144367360423,0.9986111111111111
0.7169474727452924,0.9986111111111111
0.7182523951106706,0.9986111111111111
0.7182854311199207,0.9986111111111111
0.7193921374297985,0.9986111111111111
0.7194251734390485,0.9986111111111111
0.7206144697720516,0.9986111111111111
0.7206475057813017,0.9986111111111111
0.7223488602576809,0.9986111111111111
0.722381896266931,0.9986111111111111
0.7241328047571853,0.9986111111111111
0.7241328047571853,0.9993055555555556
0.724413610835811,0.9993055555555556
0.7244466468450611,0.9993055555555556
0.7256359431780641,0.9993055555555556
0.7256689791873142,0.9993055555555556
0.7264288074000661,0.9993055555555556
0.7264618434093162,0.9993055555555556
0.7273538156590684,0.9993055555555556
0.7273868516683185,0.9993055555555556
0.7280971258671952,0.9993055555555556
0.7281301618764453,0.9993055555555556
0.7282457879088207,0.9993055555555556
0.7282788239180708,0.9993055555555556
0.7287248100429468,0.9993055555555556
0.7287578460521968,0.9993055555555556
0.7322266270234555,0.9993055555555556
0.7322596630327056,0.9993055555555556
0.7340270895275851,0.9993055555555556
0.7340601255368352,0.9993055555555556
0.7349190617773373,0.9993055555555556
0.7349520977865874,0.9993055555555556
0.7383878427485959,0.9993055555555556
0.738420878757846,0.9993055555555556
0.7413776015857284,0.9993055555555556
0.7414106375949785,0.9993055555555556
0.7420713577799801,0.9993055555555556
0.7421043937892302,0.9993055555555556
0.7438222662702345,0.9993055555555556
0.7438553022794846,0.9993055555555556
0.7520151965642551,0.9993055555555556
0.7520482325735052,0.9993055555555556
0.754410307234886,0.9993055555555556
0.7544433432441361,0.9993055555555556
0.7546580773042616,0.9993055555555556
0.7546911133135117,0.9993055555555556
0.7608853650479022,0.9993055555555556
0.7609184010571522,0.9993055555555556
0.7648992401717872,0.9993055555555556
0.7649322761810373,0.9993055555555556
0.7651304922365378,0.9993055555555556
0.7651635282457879,0.9993055555555556
0.7654443343244136,0.9993055555555556
0.7654773703336637,0.9993055555555556
0.7679550710274199,0.9993055555555556
0.76798810703667,0.9993055555555556
0.7735711925999339,0.9993055555555556
0.773604228609184,0.9993055555555556
0.7739345887016849,0.9993055555555556
0.7739676247109349,0.9993055555555556
0.7741493227618104,0.9993055555555556
0.7741823587710605,0.9993055555555556
0.7755203171456888,0.9993055555555556
0.7755533531549389,0.9993055555555556
0.78600925008259,0.9993055555555556
0.7860422860918401,0.9993055555555556
0.7869507763462174,0.9993055555555556
0.7869838123554674,0.9993055555555556
0.7886686488272217,0.9993055555555556
0.7887016848364717,0.9993055555555556
0.7892632969937231,0.9993055555555556
0.7892963330029732,0.9993055555555556
0.7905517013544764,0.9993055555555556
0.7905847373637265,0.9993055555555556
0.7906342913776016,0.9993055555555556
0.7906673273868516,0.9993055555555556
0.791592335645854,0.9993055555555556
0.791625371655104,0.9993055555555556
0.7916914436736042,0.9993055555555556
0.7917244796828543,0.9993055555555556
0.7929798480343575,0.9993055555555556
0.7930128840436075,0.9993055555555556
0.7948794185662372,0.9993055555555556
0.7949124545754873,0.9993055555555556
0.7950445986124877,0.9993055555555556
0.7950776346217376,0.9993055555555556
0.8029732408325074,0.9993055555555556
0.8030062768417575,0.9993055555555556
0.8138090518665345,0.9993055555555556
0.8138420878757846,0.9993055555555556
0.8141394119590354,0.9993055555555556
0.8141724479682855,0.9993055555555556
0.8152791542781632,0.9993055555555556
0.8153121902874133,0.9993055555555556
0.8156260323752891,0.9993055555555556
0.8156590683845392,0.9993055555555556
0.8187479352494219,0.9993055555555556
0.818780971258672,0.9993055555555556
0.8205814337628015,0.9993055555555556
0.8206144697720515,0.9993055555555556
0.8206309877766765,0.9993055555555556
0.8206640237859266,0.9993055555555556
0.8218037661050545,0.9993055555555556
0.8218698381235546,0.9993055555555556
0.8219193921374298,0.9993055555555556
0.8219524281466799,0.9993055555555556
0.8245292368681864,0.9993055555555556
0.8245292368681864,1.0
0.8247109349190618,1.0
0.824777006937562,1.0
0.8254707631318137,1.0
0.8255037991410638,1.0
0.8270399735711926,1.0
0.8270730095804427,1.0
0.8274694416914437,1.0
0.8275024777006937,1.0
0.8288404360753221,1.0
0.8288734720845722,1.0
0.8297819623389494,1.0
0.8298149983481995,1.0
0.8387182028410968,1.0
0.8387512388503469,1.0
0.838817310868847,1.0
0.8388503468780971,1.0
0.8399405351833499,1.0
0.8399735711926,1.0
0.840023125206475,1.0
0.8400561612157251,1.0
0.8433597621407334,1.0
0.8433927981499835,1.0
0.8459530888668649,1.0
0.845986124876115,1.0
0.8461017509084903,1.0
0.8461347869177404,1.0
0.8485959696068714,1.0
0.8486290056161215,1.0
0.8503138420878757,1.0
0.8503468780971258,1.0
0.8505781301618764,1.0
0.8506111661711265,1.0
0.8531714568880079,1.0
0.853204492897258,1.0
0.8533201189296333,1.0
0.8533531549388834,1.0
0.8534522629666337,1.0
0.8534852989758838,1.0
0.8535844070036339,1.0
0.853617443012884,1.0
0.8542946812025107,1.0
0.8543277172117608,1.0
0.8548728113643872,1.0
0.8549058473736373,1.0
0.8550049554013875,1.0
0.8550379914106376,1.0
0.855219689461513,1.0
0.8552527254707631,1.0
0.856442021803766,1.0
0.8564750578130161,1.0
0.8577964981830195,1.0
0.8578295341922696,1.0
0.8610835811034027,1.0
0.8611166171126527,1.0
0.862784935579782,1.0
0.8628179715890321,1.0
0.8640898579451602,1.0
0.8641228939544103,1.0
0.8671456888007929,1.0
0.867178724810043,1.0
0.868004625041295,1.0
0.8680376610505451,1.0
0.8691443673604229,1.0
0.869177403369673,1.0
0.8716716220680542,1.0
0.8717046580773042,1.0
0.8719524281466798,1.0
0.8719854641559299,1.0
0.8720845721836802,1.0
0.8721176081929303,1.0
0.8724479682854311,1.0
0.8724810042946812,1.0
0.8754707631318137,1.0
0.8755037991410638,1.0
0.8790056161215725,1.0
0.8790386521308226,1.0
0.8791377601585728,1.0
0.8791707961678229,1.0
0.8795837462834489,1.0
0.879616782292699,1.0
0.8796993723158243,1.0
0.8797324083250744,1.0
0.8821935910142055,1.0
0.8822266270234556,1.0
0.8822761810373307,1.0
0.8823092170465807,1.0
0.8834489593657087,1.0
0.8834819953749588,1.0
0.8856954079947142,1.0
0.8857284440039643,1.0
0.8882887347208457,1.0
0.8883217707300958,1.0
0.889626693095474,1.0
0.8896597291047241,1.0
0.8898249091509746,1.0
0.8898579451602247,1.0
0.8899405351833498,1.0
0.8899735711925999,1.0
0.8917409976874794,1.0
0.8917740336967295,1.0
0.8918731417244797,1.0
0.8919061777337297,1.0
0.8952758506772381,1.0
0.8953088866864882,1.0
0.8977865873802444,1.0
0.8978196233894945,1.0
0.8999339279814998,1.0
0.8999669639907499,1.0
0.900412950115626,1.0
0.9004459861248761,1.0
0.9022299306243806,1.0
0.9022629666336307,1.0
0.903204492897258,1.0
0.9032375289065081,1.0
0.9061116617112652,1.0
0.9061446977205153,1.0
0.9070036339610175,1.0
0.9070366699702676,1.0
0.9136934258341592,1.0
0.9137264618434093,1.0
0.9161711265279154,1.0
0.9162041625371655,1.0
0.9177238189626693,1.0
0.9177568549719194,1.0
0.9177898909811695,1.0
0.9178229269904196,1.0
0.9199372315824248,1.0
0.9199702675916749,1.0
0.9226627023455567,1.0
0.9226957383548068,1.0
0.9259497852659399,1.0
0.9259828212751899,1.0
0.926395771390816,1.0
0.9264288074000661,1.0
0.9306739345887017,1.0
0.9307069705979518,1.0
0.9318301949124546,1.0
0.9318632309217046,1.0
0.9326891311529567,1.0
0.9327221671622068,1.0
0.9354806739345887,1.0
0.9355137099438388,1.0
0.9373967624710935,1.0
0.9374297984803436,1.0
0.93797489263297,1.0
0.93800792864222,1.0
0.9394449950445987,1.0
0.9394780310538487,1.0
0.94000660720185,1.0
0.9400396432111001,1.0
0.941608853650479,1.0
0.9416418896597291,1.0
0.9423521638586059,1.0
0.942385199867856,1.0
0.9430954740667328,1.0
0.9431285100759829,1.0
0.9433762801453585,1.0
0.9434093161546085,1.0
0.9454245127188635,1.0
0.9454575487281136,1.0
0.9485794516022464,1.0
0.9486124876114965,1.0
0.9490254377271226,1.0
0.9490584737363726,1.0
0.9501651800462504,1.0
0.9501982160555005,1.0
0.9518830525272547,1.0
0.9519160885365048,1.0
0.9521473406012554,1.0
0.9521803766105055,1.0
0.9522134126197556,1.0
0.9522464486290056,1.0
0.9546745953088867,1.0
0.9547076313181367,1.0
0.9557152296002643,1.0
0.9557482656095144,1.0
0.9588371324743971,1.0
0.9588701684836471,1.0
0.9594482986455236,1.0
0.9595143706640238,1.0
0.961595639246779,1.0
0.961628675256029,1.0
0.9677568549719194,1.0
0.9677898909811695,1.0
0.9678394449950446,1.0
0.9678724810042947,1.0
0.9730921704658078,1.0
0.9731252064750578,1.0
0.9742649487941857,1.0
0.9742979848034358,1.0
0.9771721176081929,1.0
0.977205153617443,1.0
0.9838453914767096,1.0
0.9838784274859597,1.0
0.9876775685497192,1.0
0.9877106045589693,1.0
0.9881400726792203,1.0
0.9881731086884704,1.0
0.9923191278493558,1.0
0.9923521638586059,1.0
0.9951602246448629,1.0
0.995193260654113,1.0
0.9960521968946151,1.0
0.9960852329038652,1.0
1.0,1.0
