fpr,tpr
0.0,0.0
0.0,0.0003403675970047651
0.0,0.21851599727705923
1.7075919538267136e-05,0.21851599727705923
1.7075919538267136e-05,0.3274336283185841
3.415183907653427e-05,0.3274336283185841
3.415183907653427e-05,0.3526208304969367
5.1227758614801405e-05,0.3526208304969367
5.1227758614801405e-05,0.3655547991831178
6.830367815306854e-05,0.3655547991831178
6.830367815306854e-05,0.3975493533015657
8.537959769133568e-05,0.3975493533015657
8.537959769133568e-05,0.4081007488087134
0.00010245551722960281,0.4081007488087134
0.00010245551722960281,0.4132062627637849
0.00011953143676786995,0.4132062627637849
0.00011953143676786995,0.42341729067392786
0.0001366073563061371,0.42341729067392786
0.0001366073563061371,0.42920353982300885
0.00015368327584440423,0.42920353982300885
0.00015368327584440423,0.4479237576582709
0.00017075919538267137,0.4479237576582709
0.00017075919538267137,0.478216473791695
0.00018783511492093848,0.478216473791695
0.00018783511492093848,0.48978897208985706
0.00020491103445920562,0.48978897208985706
0.00020491103445920562,0.4925119128658952
0.00022198695399747276,0.4925119128658952
0.00022198695399747276,0.49353301565690944
0.0002390628735357399,0.49353301565690944
0.0002390628735357399,0.5068073519400953
0.000256138793074007,0.5068073519400953
0.000256138793074007,0.5098706603131382
0.0002732147126122742,0.5098706603131382
0.0002732147126122742,0.5142954390742002
0.0002902906321505413,0.5142954390742002
0.0002902906321505413,0.5153165418652145
0.00030736655168880846,0.5153165418652145
0.00030736655168880846,0.5197413206262764
0.00032444247122707557,0.5197413206262764
0.00032444247122707557,0.5221238938053098
0.00035859431030360985,0.5221238938053098
0.00035859431030360985,0.5292716133424098
0.00037567022984187696,0.5292716133424098
0.00037567022984187696,0.5299523485364194
0.00039274614938014413,0.5299523485364194
0.00039274614938014413,0.5316541865214431
0.00040982206891841124,0.5316541865214431
0.00040982206891841124,0.5326752893124574
0.0004268979884566784,0.5326752893124574
0.0004268979884566784,0.533356024506467
0.0004439739079949455,0.533356024506467
0.0004439739079949455,0.5418652144315861
0.0004610498275332127,0.5418652144315861
0.0004610498275332127,0.5422055820285909
0.0004781257470714798,0.5422055820285909
0.0004781257470714798,0.5452688904016337
0.0004952016666097469,0.5452688904016337
0.0004952016666097469,0.5517358747447243
0.000512277586148014,0.5517358747447243
0.000512277586148014,0.5530973451327433
0.0005464294252245484,0.5530973451327433
0.0005464294252245484,0.5588835942818243
0.0005635053447628155,0.5588835942818243
0.0005635053447628155,0.5592239618788292
0.0005805812643010826,0.5592239618788292
0.0005805812643010826,0.5656909462219196
0.0005976571838393497,0.5656909462219196
0.0005976571838393497,0.5660313138189245
0.000631809022915884,0.5660313138189245
0.000631809022915884,0.5680735194009531
0.0006488849424541511,0.5680735194009531
0.0006488849424541511,0.5701157249829816
0.0006659608619924183,0.5701157249829816
0.0006659608619924183,0.5755616065350578
0.0006830367815306855,0.5755616065350578
0.0006830367815306855,0.5759019741320627
0.0007001127010689526,0.5759019741320627
0.0007001127010689526,0.5779441797140912
0.0007171886206072197,0.5779441797140912
0.0007171886206072197,0.578284547311096
0.0007342645401454868,0.578284547311096
0.0007342645401454868,0.5830496936691627
0.0007684163792220211,0.5830496936691627
0.0007684163792220211,0.5833900612661674
0.0008025682182985554,0.5833900612661674
0.0008025682182985554,0.5867937372362151
0.0008196441378368225,0.5867937372362151
0.0008196441378368225,0.5881552076242341
0.0008367200573750896,0.5881552076242341
0.0008367200573750896,0.5891763104152484
0.0008537959769133568,0.5891763104152484
0.0008537959769133568,0.5915588835942818
0.0008708718964516239,0.5915588835942818
0.0008708718964516239,0.5953029271613343
0.000887947815989891,0.5953029271613343
0.000887947815989891,0.6007488087134105
0.0009050237355281582,0.6007488087134105
0.0009050237355281582,0.6010891763104153
0.0009220996550664254,0.6010891763104153
0.0009220996550664254,0.6065350578624915
0.0009391755746046925,0.6065350578624915
0.0009391755746046925,0.6068754254594962
0.0009562514941429596,0.6068754254594962
0.0009562514941429596,0.6092579986385296
0.0009733274136812267,0.6092579986385296
0.0009733274136812267,0.6119809394145678
0.0009904033332194938,0.6119809394145678
0.0009904033332194938,0.6133424098025868
0.001007479252757761,0.6133424098025868
0.001007479252757761,0.6136827773995915
0.001024555172296028,0.6136827773995915
0.001024555172296028,0.6140231449965963
0.0010587070113725625,0.6140231449965963
0.0010587070113725625,0.6147038801906058
0.0010757829309108295,0.6147038801906058
0.0010757829309108295,0.6184479237576582
0.0010928588504490967,0.6184479237576582
0.0010928588504490967,0.6191286589516678
0.001127010689525631,0.6191286589516678
0.001127010689525631,0.6201497617426821
0.0011440866090638982,0.6201497617426821
0.0011440866090638982,0.6208304969366917
0.0011611625286021652,0.6208304969366917
0.0011611625286021652,0.6225323349217154
0.0011782384481404324,0.6225323349217154
0.0011782384481404324,0.6279782164737917
0.0011953143676786994,0.6279782164737917
0.0011953143676786994,0.6283185840707964
0.0012123902872169666,0.6283185840707964
0.0012123902872169666,0.6310415248468346
0.0012465421262935008,0.6310415248468346
0.0012465421262935008,0.6324029952348537
0.001263618045831768,0.6324029952348537
0.001263618045831768,0.6354663036078966
0.0012806939653700353,0.6354663036078966
0.0012806939653700353,0.6375085091899251
0.0012977698849083023,0.6375085091899251
0.0012977698849083023,0.6378488767869299
0.0013148458044465695,0.6378488767869299
0.0013148458044465695,0.6395507147719537
0.001383149482599638,0.6395507147719537
0.001383149482599638,0.6426140231449966
0.0014002254021379052,0.6426140231449966
0.0014002254021379052,0.6429543907420013
0.0014173013216761722,0.6429543907420013
0.0014173013216761722,0.64499659632403
0.0014343772412144394,0.64499659632403
0.0014343772412144394,0.6453369639210347
0.0014685290802909736,0.6453369639210347
0.0014685290802909736,0.6456773315180395
0.0014856049998292408,0.6456773315180395
0.0014856049998292408,0.6460176991150443
0.001519756838905775,0.6460176991150443
0.001519756838905775,0.6473791695030633
0.0015539086779823093,0.6473791695030633
0.0015539086779823093,0.6480599046970729
0.0015709845975205765,0.6480599046970729
0.0015709845975205765,0.6501021102791015
0.001622212356135378,0.6501021102791015
0.001622212356135378,0.6518039482641252
0.001639288275673645,0.6518039482641252
0.001639288275673645,0.65214431586113
0.0016563641952119122,0.65214431586113
0.0016563641952119122,0.6531654186521443
0.0017075919538267136,0.6531654186521443
0.0017075919538267136,0.6545268890401634
0.0017246678733649806,0.6545268890401634
0.0017246678733649806,0.6558883594281825
0.0017417437929032479,0.6558883594281825
0.0017417437929032479,0.6562287270251872
0.001758819712441515,0.6562287270251872
0.001758819712441515,0.6572498298162015
0.001775895631979782,0.6572498298162015
0.001775895631979782,0.6575901974132062
0.0018100474710563163,0.6575901974132062
0.0018100474710563163,0.6589516678012253
0.0018271233905945835,0.6589516678012253
0.0018271233905945835,0.6613342409802587
0.0018612752296711178,0.6613342409802587
0.0018612752296711178,0.6616746085772635
0.001878351149209385,0.6616746085772635
0.001878351149209385,0.6637168141592921
0.001895427068747652,0.6637168141592921
0.001895427068747652,0.6640571817562968
0.0019125029882859192,0.6640571817562968
0.0019125029882859192,0.6650782845473111
0.0019295789078241864,0.6650782845473111
0.0019295789078241864,0.6660993873383254
0.0019466548273624534,0.6660993873383254
0.0019466548273624534,0.6664397549353301
0.0019637307469007204,0.6664397549353301
0.0019637307469007204,0.6684819605173588
0.0019808066664389876,0.6684819605173588
0.0019808066664389876,0.6691626957113683
0.001997882585977255,0.6691626957113683
0.001997882585977255,0.6698434309053778
0.002014958505515522,0.6698434309053778
0.002014958505515522,0.6708645336963921
0.002049110344592056,0.6708645336963921
0.002049110344592056,0.6732471068754254
0.0020832621836685905,0.6732471068754254
0.0020832621836685905,0.6735874744724302
0.0021003381032068578,0.6735874744724302
0.0021003381032068578,0.6742682096664397
0.002117414022745125,0.6742682096664397
0.002117414022745125,0.675289312457454
0.0021344899422833918,0.675289312457454
0.0021344899422833918,0.6759700476514636
0.002168641781359926,0.6759700476514636
0.002168641781359926,0.678352620830497
0.0021857177008981934,0.678352620830497
0.0021857177008981934,0.6803948264125256
0.0022027936204364607,0.6803948264125256
0.0022027936204364607,0.6817562968005446
0.0022198695399747274,0.6817562968005446
0.0022198695399747274,0.6831177671885637
0.002271097298589529,0.6831177671885637
0.002271097298589529,0.6844792375765827
0.0022881732181277963,0.6844792375765827
0.0022881732181277963,0.6851599727705923
0.002305249137666063,0.6851599727705923
0.002305249137666063,0.6865214431586113
0.0023394009767425976,0.6865214431586113
0.0023394009767425976,0.6882232811436352
0.0023564768962808648,0.6882232811436352
0.0023564768962808648,0.6889040163376446
0.0024247805744339332,0.6889040163376446
0.0024247805744339332,0.689925119128659
0.0024589324135104677,0.689925119128659
0.0024589324135104677,0.6902654867256637
0.002476008333048735,0.6902654867256637
0.002476008333048735,0.6909462219196733
0.002527236091663536,0.6909462219196733
0.002527236091663536,0.6916269571136828
0.0025443120112018033,0.6916269571136828
0.0025443120112018033,0.6919673247106876
0.0025613879307400706,0.6919673247106876
0.0025613879307400706,0.692648059904697
0.0025955397698166046,0.692648059904697
0.0025955397698166046,0.6936691626957113
0.002629691608893139,0.6936691626957113
0.002629691608893139,0.6946902654867256
0.0026467675284314062,0.6946902654867256
0.0026467675284314062,0.6953710006807352
0.002663843447969673,0.6953710006807352
0.002663843447969673,0.6957113682777399
0.0026809193675079402,0.6957113682777399
0.0026809193675079402,0.6960517358747447
0.0027150712065844747,0.6960517358747447
0.0027150712065844747,0.6987746766507829
0.002766298965199276,0.6987746766507829
0.002766298965199276,0.6994554118447924
0.002783374884737543,0.6994554118447924
0.002783374884737543,0.6997957794417972
0.0028004508042758103,0.6997957794417972
0.0028004508042758103,0.7001361470388019
0.0028175267238140776,0.7001361470388019
0.0028175267238140776,0.7011572498298162
0.0028516785628906116,0.7011572498298162
0.0028516785628906116,0.7014976174268209
0.002868754482428879,0.7014976174268209
0.002868754482428879,0.7021783526208305
0.002885830401967146,0.7021783526208305
0.002885830401967146,0.7028590878148401
0.0029029063215054132,0.7028590878148401
0.0029029063215054132,0.7031994554118448
0.00291998224104368,0.7031994554118448
0.00291998224104368,0.7035398230088495
0.0029370581605819472,0.7035398230088495
0.0029370581605819472,0.7045609257998638
0.0029712099996584817,0.7045609257998638
0.0029712099996584817,0.7055820285908782
0.002988285919196749,0.7055820285908782
0.002988285919196749,0.7066031313818925
0.0030053618387350157,0.7066031313818925
0.0030053618387350157,0.7086453369639211
0.00303951367781155,0.7086453369639211
0.00303951367781155,0.7100068073519401
0.0030736655168880846,0.7100068073519401
0.0030736655168880846,0.7103471749489448
0.0031078173559646186,0.7103471749489448
0.0031078173559646186,0.7113682777399591
0.003141969195041153,0.7113682777399591
0.003141969195041153,0.7127297481279782
0.0031590451145794203,0.7127297481279782
0.0031590451145794203,0.713070115724983
0.003176121034117687,0.713070115724983
0.003176121034117687,0.7147719537100068
0.0032102728731942215,0.7147719537100068
0.0032102728731942215,0.7151123213070115
0.0032273487927324887,0.7151123213070115
0.0032273487927324887,0.7154526889040164
0.003244424712270756,0.7154526889040164
0.003244424712270756,0.7157930565010211
0.0032615006318090227,0.7157930565010211
0.0032615006318090227,0.717494894486045
0.0033127283904238244,0.717494894486045
0.0033127283904238244,0.7181756296800544
0.0033639561490386256,0.7181756296800544
0.0033639561490386256,0.7191967324710687
0.00339810798811516,0.7191967324710687
0.00339810798811516,0.7208985704560926
0.0034322598271916945,0.7208985704560926
0.0034322598271916945,0.723281143635126
0.0034493357467299613,0.723281143635126
0.0034493357467299613,0.7239618788291354
0.0034664116662682285,0.7239618788291354
0.0034664116662682285,0.7243022464261403
0.0034834875858064957,0.7243022464261403
0.0034834875858064957,0.7256637168141593
0.00351763942488303,0.7256637168141593
0.00351763942488303,0.7270251872021783
0.003534715344421297,0.7270251872021783
0.003534715344421297,0.7277059223961879
0.003551791263959564,0.7277059223961879
0.003551791263959564,0.7283866575901974
0.003603019022574366,0.7283866575901974
0.003603019022574366,0.7294077603812117
0.0036371708616509,0.7294077603812117
0.0036371708616509,0.7297481279782164
0.0036713227007274343,0.7297481279782164
0.0036713227007274343,0.7300884955752213
0.0036883986202657015,0.7300884955752213
0.0036883986202657015,0.7307692307692307
0.0037225504593422355,0.7307692307692307
0.0037225504593422355,0.7314499659632403
0.0037396263788805027,0.7314499659632403
0.0037396263788805027,0.7324710687542546
0.00375670229841877,0.7324710687542546
0.00375670229841877,0.7328114363512593
0.003790854137495304,0.7328114363512593
0.003790854137495304,0.7331518039482642
0.0038250059765718384,0.7331518039482642
0.0038250059765718384,0.7338325391422736
0.0038420818961101056,0.7338325391422736
0.0038420818961101056,0.7341729067392784
0.0038762337351866396,0.7341729067392784
0.0038762337351866396,0.734853641933288
0.003893309654724907,0.734853641933288
0.003893309654724907,0.7365554799183118
0.003910385574263174,0.7365554799183118
0.003910385574263174,0.7385976855003403
0.003927461493801441,0.7385976855003403
0.003927461493801441,0.7396187882913546
0.003978689252416243,0.7396187882913546
0.003978689252416243,0.7399591558883595
0.00399576517195451,0.7399591558883595
0.00399576517195451,0.7402995234853642
0.0040128410914927765,0.7402995234853642
0.0040128410914927765,0.7423417290673928
0.004029917011031044,0.7423417290673928
0.004029917011031044,0.7426820966643976
0.004046992930569311,0.7426820966643976
0.004046992930569311,0.7430224642614023
0.00411529660872238,0.7430224642614023
0.00411529660872238,0.7433628318584071
0.004132372528260647,0.7433628318584071
0.004132372528260647,0.7437031994554119
0.004149448447798914,0.7437031994554119
0.004149448447798914,0.7443839346494214
0.0042006762064137155,0.7443839346494214
0.0042006762064137155,0.7447243022464262
0.00423482804549025,0.7447243022464262
0.00423482804549025,0.7457454050374405
0.004286055804105051,0.7457454050374405
0.004286055804105051,0.7460857726344452
0.004303131723643318,0.7460857726344452
0.004303131723643318,0.7471068754254595
0.004337283562719852,0.7471068754254595
0.004337283562719852,0.7474472430224642
0.004354359482258119,0.7474472430224642
0.004354359482258119,0.7477876106194691
0.004439739079949455,0.7477876106194691
0.004439739079949455,0.7491490810074881
0.004473890919025989,0.7491490810074881
0.004473890919025989,0.7498298162014976
0.004490966838564257,0.7498298162014976
0.004490966838564257,0.7508509189925119
0.004559270516717325,0.7508509189925119
0.004559270516717325,0.7511912865895167
0.004576346436255593,0.7511912865895167
0.004576346436255593,0.7515316541865215
0.0045934223557938594,0.7515316541865215
0.0045934223557938594,0.7525527569775358
0.004610498275332126,0.7525527569775358
0.004610498275332126,0.7528931245745405
0.004644650114408661,0.7528931245745405
0.004644650114408661,0.7532334921715452
0.004661726033946928,0.7532334921715452
0.004661726033946928,0.7545949625595644
0.004678801953485195,0.7545949625595644
0.004678801953485195,0.7559564329475834
0.0047129537925617295,0.7559564329475834
0.0047129537925617295,0.7562968005445881
0.0047812574707147976,0.7562968005445881
0.0047812574707147976,0.7569775357385977
0.004798333390253065,0.7569775357385977
0.004798333390253065,0.7573179033356024
0.0048324852293296,0.7573179033356024
0.0048324852293296,0.757998638529612
0.0048495611488678664,0.757998638529612
0.0048495611488678664,0.7590197413206263
0.004883712987944401,0.7590197413206263
0.004883712987944401,0.7597004765146358
0.004917864827020935,0.7597004765146358
0.004917864827020935,0.7610619469026548
0.00495201666609747,0.7610619469026548
0.00495201666609747,0.7648059904697073
0.004986168505174003,0.7648059904697073
0.004986168505174003,0.7661674608577264
0.005020320344250538,0.7661674608577264
0.005020320344250538,0.7665078284547311
0.005071548102865339,0.7665078284547311
0.005071548102865339,0.7668481960517358
0.005122775861480141,0.7668481960517358
0.005122775861480141,0.7678692988427501
0.005139851781018408,0.7678692988427501
0.005139851781018408,0.7688904016337644
0.005156927700556675,0.7688904016337644
0.005156927700556675,0.769571136827774
0.005174003620094942,0.769571136827774
0.005174003620094942,0.7699115044247787
0.005191079539633209,0.7699115044247787
0.005191079539633209,0.7702518720217836
0.005208155459171477,0.7702518720217836
0.005208155459171477,0.770932607215793
0.005225231378709744,0.770932607215793
0.005225231378709744,0.7712729748127978
0.00524230729824801,0.7712729748127978
0.00524230729824801,0.7716133424098026
0.0052935350568628125,0.7716133424098026
0.0052935350568628125,0.7722940776038121
0.005310610976401079,0.7722940776038121
0.005310610976401079,0.7726344452008169
0.005327686895939346,0.7726344452008169
0.005327686895939346,0.7736555479918312
0.005430142413168949,0.7736555479918312
0.005430142413168949,0.773995915588836
0.005498446091322017,0.773995915588836
0.005498446091322017,0.7743362831858407
0.005532597930398552,0.7743362831858407
0.005532597930398552,0.7750170183798503
0.005566749769475086,0.7750170183798503
0.005566749769475086,0.7756977535738597
0.005583825689013353,0.7756977535738597
0.005583825689013353,0.7763784887678693
0.005669205286704689,0.7763784887678693
0.005669205286704689,0.7777399591558883
0.005703357125781223,0.7777399591558883
0.005703357125781223,0.7780803267528931
0.005720433045319491,0.7780803267528931
0.005720433045319491,0.7784206943498979
0.005754584884396024,0.7784206943498979
0.005754584884396024,0.7791014295439074
0.005771660803934292,0.7791014295439074
0.005771660803934292,0.7794417971409122
0.005857040401625628,0.7794417971409122
0.005857040401625628,0.7801225323349217
0.005891192240702162,0.7801225323349217
0.005891192240702162,0.7804628999319265
0.005908268160240429,0.7804628999319265
0.005908268160240429,0.781143635125936
0.005925344079778696,0.781143635125936
0.005925344079778696,0.7814840027229408
0.005942419999316963,0.7814840027229408
0.005942419999316963,0.7821647379169503
0.005976571838393498,0.7821647379169503
0.005976571838393498,0.782505105513955
0.006027799597008299,0.782505105513955
0.006027799597008299,0.7828454731109599
0.0060619514360848335,0.7828454731109599
0.0060619514360848335,0.7838665759019742
0.006096103275161367,0.7838665759019742
0.006096103275161367,0.7842069434989789
0.0061302551142379015,0.7842069434989789
0.0061302551142379015,0.7845473110959836
0.006147331033776169,0.7845473110959836
0.006147331033776169,0.7848876786929885
0.00619855879239097,0.7848876786929885
0.00619855879239097,0.7852280462899932
0.006301014309620573,0.7852280462899932
0.006301014309620573,0.7855684138869979
0.006352242068235374,0.7855684138869979
0.006352242068235374,0.7859087814840027
0.006369317987773642,0.7859087814840027
0.006369317987773642,0.7862491490810075
0.0063863939073119085,0.7862491490810075
0.0063863939073119085,0.7865895166780122
0.006403469826850176,0.7865895166780122
0.006403469826850176,0.786929884275017
0.006454697585464977,0.786929884275017
0.006454697585464977,0.7872702518720218
0.006471773505003244,0.7872702518720218
0.006471773505003244,0.7876106194690266
0.006488849424541512,0.7876106194690266
0.006488849424541512,0.7882913546630361
0.006540077183156313,0.7882913546630361
0.006540077183156313,0.7893124574540503
0.00655715310269458,0.7893124574540503
0.00655715310269458,0.7903335602450646
0.0065742290222328475,0.7903335602450646
0.0065742290222328475,0.7906739278420695
0.0066425327003859155,0.7906739278420695
0.0066425327003859155,0.7916950306330838
0.006693760459000717,0.7916950306330838
0.006693760459000717,0.7923757658270932
0.006710836378538984,0.7923757658270932
0.006710836378538984,0.7933968686181075
0.006762064137153786,0.7933968686181075
0.006762064137153786,0.7957794417971409
0.006813291895768587,0.7957794417971409
0.006813291895768587,0.7964601769911505
0.006847443734845121,0.7964601769911505
0.006847443734845121,0.7968005445881552
0.0068986714934599225,0.7968005445881552
0.0068986714934599225,0.7971409121851599
0.00691574741299819,0.7971409121851599
0.00691574741299819,0.7978216473791695
0.007018202930227793,0.7978216473791695
0.007018202930227793,0.7985023825731791
0.007069430688842594,0.7985023825731791
0.007069430688842594,0.7998638529611981
0.0070865066083808615,0.7998638529611981
0.0070865066083808615,0.8002042205582028
0.007103582527919128,0.8002042205582028
0.007103582527919128,0.8012253233492171
0.007120658447457396,0.8012253233492171
0.007120658447457396,0.8015656909462219
0.007206038045148732,0.8015656909462219
0.007206038045148732,0.8022464261402315
0.007359721320993135,0.8022464261402315
0.007359721320993135,0.802927161334241
0.00739387316006967,0.802927161334241
0.00739387316006967,0.8036078965282505
0.007445100918684471,0.8036078965282505
0.007445100918684471,0.8039482641252553
0.007496328677299272,0.8039482641252553
0.007496328677299272,0.8042886317222601
0.007530480516375807,0.8042886317222601
0.007530480516375807,0.8046289993192648
0.007581708274990608,0.8046289993192648
0.007581708274990608,0.8049693669162695
0.007650011953143677,0.8049693669162695
0.007650011953143677,0.8053097345132744
0.007684163792220211,0.8053097345132744
0.007684163792220211,0.8056501021102791
0.007701239711758478,0.8056501021102791
0.007701239711758478,0.8059904697072838
0.0077353915508350125,0.8059904697072838
0.0077353915508350125,0.8063308373042887
0.007786619309449814,0.8063308373042887
0.007786619309449814,0.8066712049012934
0.007820771148526348,0.8066712049012934
0.007820771148526348,0.8076923076923077
0.007837847068064615,0.8076923076923077
0.007837847068064615,0.808713410483322
0.007854922987602882,0.808713410483322
0.007854922987602882,0.8090537780803267
0.007889074826679417,0.8090537780803267
0.007889074826679417,0.8093941456773315
0.007940302585294217,0.8093941456773315
0.007940302585294217,0.8097345132743363
0.007974454424370753,0.8097345132743363
0.007974454424370753,0.810074880871341
0.00799153034390902,0.810074880871341
0.00799153034390902,0.8104152484683458
0.008008606263447286,0.8104152484683458
0.008008606263447286,0.8107556160653506
0.008042758102523822,0.8107556160653506
0.008042758102523822,0.8121170864533697
0.008059834022062088,0.8121170864533697
0.008059834022062088,0.8124574540503744
0.008076909941600355,0.8124574540503744
0.008076909941600355,0.813138189244384
0.008128137700215157,0.813138189244384
0.008128137700215157,0.8134785568413887
0.008145213619753424,0.8134785568413887
0.008145213619753424,0.8141592920353983
0.00816228953929169,0.8141592920353983
0.00816228953929169,0.814499659632403
0.008196441378368224,0.814499659632403
0.008196441378368224,0.8148400272294077
0.00823059321744476,0.8148400272294077
0.00823059321744476,0.815861130020422
0.008247669136983026,0.815861130020422
0.008247669136983026,0.8162014976174268
0.008264745056521293,0.8162014976174268
0.008264745056521293,0.8165418652144316
0.008350124654212629,0.8165418652144316
0.008350124654212629,0.8172226004084411
0.008384276493289164,0.8172226004084411
0.008384276493289164,0.8175629680054459
0.008401352412827431,0.8175629680054459
0.008401352412827431,0.8179033356024507
0.008418428332365698,0.8179033356024507
0.008418428332365698,0.8182437031994554
0.008537959769133567,0.8182437031994554
0.008537959769133567,0.8185840707964602
0.008555035688671836,0.8185840707964602
0.008555035688671836,0.818924438393465
0.00858918752774837,0.818924438393465
0.00858918752774837,0.8192648059904697
0.008606263447286636,0.8192648059904697
0.008606263447286636,0.8199455411844793
0.008640415286363171,0.8199455411844793
0.008640415286363171,0.820285908781484
0.008674567125439705,0.820285908781484
0.008674567125439705,0.8206262763784887
0.008691643044977972,0.8206262763784887
0.008691643044977972,0.8213070115724983
0.008725794884054507,0.8213070115724983
0.008725794884054507,0.821647379169503
0.008742870803592774,0.821647379169503
0.008742870803592774,0.8219877467665079
0.00875994672313104,0.8219877467665079
0.00875994672313104,0.8223281143635126
0.00887947815989891,0.8223281143635126
0.00887947815989891,0.8226684819605173
0.008913629998975445,0.8226684819605173
0.008913629998975445,0.8230088495575221
0.008930705918513712,0.8230088495575221
0.008930705918513712,0.8233492171545269
0.009050237355281581,0.8233492171545269
0.009050237355281581,0.8236895847515316
0.00906731327481985,0.8236895847515316
0.00906731327481985,0.8240299523485364
0.00911854103343465,0.8240299523485364
0.00911854103343465,0.824710687542546
0.009135616952972917,0.824710687542546
0.009135616952972917,0.8264125255275698
0.009323452067893857,0.8264125255275698
0.009323452067893857,0.8270932607215793
0.009340527987432123,0.8270932607215793
0.009340527987432123,0.8277739959155889
0.00935760390697039,0.8277739959155889
0.00935760390697039,0.8291354663036079
0.009374679826508657,0.8291354663036079
0.009374679826508657,0.8294758339006126
0.009408831665585192,0.8294758339006126
0.009408831665585192,0.8308373042886317
0.009425907585123459,0.8308373042886317
0.009425907585123459,0.831858407079646
0.009460059424199993,0.831858407079646
0.009460059424199993,0.8325391422736556
0.00947713534373826,0.8325391422736556
0.00947713534373826,0.8335602450646699
0.009528363102353062,0.8335602450646699
0.009528363102353062,0.8339006126616746
0.009545439021891328,0.8339006126616746
0.009545439021891328,0.8342409802586793
0.009579590860967864,0.8342409802586793
0.009579590860967864,0.8345813478556842
0.009716198217274,0.8345813478556842
0.009716198217274,0.8349217154526889
0.009733274136812268,0.8349217154526889
0.009733274136812268,0.8356024506466985
0.009767425975888802,0.8356024506466985
0.009767425975888802,0.8359428182437032
0.009784501895427069,0.8359428182437032
0.009784501895427069,0.8362831858407079
0.009852805573580137,0.8362831858407079
0.009852805573580137,0.8369639210347175
0.009886957412656671,0.8369639210347175
0.009886957412656671,0.8373042886317222
0.009972337010348007,0.8373042886317222
0.009972337010348007,0.8376446562287271
0.009989412929886275,0.8376446562287271
0.009989412929886275,0.8379850238257318
0.010040640688501076,0.8379850238257318
0.010040640688501076,0.8383253914227365
0.010057716608039342,0.8383253914227365
0.010057716608039342,0.8386657590197413
0.010074792527577611,0.8386657590197413
0.010074792527577611,0.8393464942137508
0.010108944366654144,0.8393464942137508
0.010108944366654144,0.8396868618107556
0.010177248044807213,0.8396868618107556
0.010177248044807213,0.8400272294077604
0.010211399883883747,0.8400272294077604
0.010211399883883747,0.8403675970047652
0.010245551722960282,0.8403675970047652
0.010245551722960282,0.8410483321987747
0.010296779481575083,0.8410483321987747
0.010296779481575083,0.8413886997957795
0.01031385540111335,0.8413886997957795
0.01031385540111335,0.8417290673927842
0.010365083159728151,0.8417290673927842
0.010365083159728151,0.8420694349897889
0.01050169051603429,0.8420694349897889
0.01050169051603429,0.8424098025867938
0.010535842355110823,0.8424098025867938
0.010535842355110823,0.8434309053778081
0.010638297872340425,0.8434309053778081
0.010638297872340425,0.8441116405718175
0.01067244971141696,0.8441116405718175
0.01067244971141696,0.8447923757658271
0.010689525630955227,0.8447923757658271
0.010689525630955227,0.8451327433628318
0.010723677470031761,0.8451327433628318
0.010723677470031761,0.8454731109598366
0.010774905228646563,0.8454731109598366
0.010774905228646563,0.8458134785568414
0.010928588504490968,0.8458134785568414
0.010928588504490968,0.8468345813478557
0.011013968102182303,0.8468345813478557
0.011013968102182303,0.8471749489448605
0.01103104402172057,0.8471749489448605
0.01103104402172057,0.84785568413887
0.011048119941258837,0.84785568413887
0.011048119941258837,0.8481960517358748
0.01115057545848844,0.8481960517358748
0.01115057545848844,0.8485364193328795
0.011184727297564975,0.8485364193328795
0.011184727297564975,0.8488767869298843
0.01138963833202418,0.8488767869298843
0.01138963833202418,0.8492171545268891
0.011457942010177248,0.8492171545268891
0.011457942010177248,0.8498978897208985
0.011475017929715515,0.8498978897208985
0.011475017929715515,0.8502382573179034
0.011492093849253782,0.8502382573179034
0.011492093849253782,0.8505786249149081
0.011509169768792049,0.8505786249149081
0.011509169768792049,0.8509189925119128
0.01162870120555992,0.8509189925119128
0.01162870120555992,0.8512593601089177
0.011697004883712989,0.8512593601089177
0.011697004883712989,0.8515997277059224
0.011714080803251255,0.8515997277059224
0.011714080803251255,0.8519400953029271
0.011731156722789522,0.8519400953029271
0.011731156722789522,0.852280462899932
0.011748232642327789,0.852280462899932
0.011748232642327789,0.8526208304969367
0.011765308561866056,0.8526208304969367
0.011765308561866056,0.8533015656909462
0.011782384481404324,0.8533015656909462
0.011782384481404324,0.853641933287951
0.011816536320480858,0.853641933287951
0.011816536320480858,0.8543226684819605
0.011884839998633927,0.8543226684819605
0.011884839998633927,0.8546630360789653
0.012175130630784467,0.8546630360789653
0.012175130630784467,0.85500340367597
0.012209282469861003,0.85500340367597
0.012209282469861003,0.8556841388699796
0.012328813906628872,0.8556841388699796
0.012328813906628872,0.8560245064669844
0.012380041665243674,0.8560245064669844
0.012380041665243674,0.8563648740639891
0.012567876780164612,0.8563648740639891
0.012567876780164612,0.8567052416609938
0.012670332297394215,0.8567052416609938
0.012670332297394215,0.8570456092579987
0.012687408216932481,0.8570456092579987
0.012687408216932481,0.8573859768550034
0.012721560056009017,0.8573859768550034
0.012721560056009017,0.8577263444520081
0.01275571189508555,0.8577263444520081
0.01275571189508555,0.858066712049013
0.012772787814623817,0.858066712049013
0.012772787814623817,0.8587474472430224
0.012789863734162084,0.8587474472430224
0.012789863734162084,0.8590878148400273
0.012841091492776886,0.8590878148400273
0.012841091492776886,0.859428182437032
0.012909395170929955,0.859428182437032
0.012909395170929955,0.8597685500340367
0.012960622929544755,0.8597685500340367
0.012960622929544755,0.8601089176310415
0.01299477476862129,0.8601089176310415
0.01299477476862129,0.860789652825051
0.01306307844677436,0.860789652825051
0.01306307844677436,0.8611300204220558
0.01323383764215703,0.8611300204220558
0.01323383764215703,0.8614703880190606
0.013387520918001434,0.8614703880190606
0.013387520918001434,0.8618107556160653
0.013421672757077969,0.8618107556160653
0.013421672757077969,0.8624914908100749
0.013489976435231038,0.8624914908100749
0.013489976435231038,0.8628318584070797
0.013558280113384105,0.8628318584070797
0.013558280113384105,0.8631722260040844
0.01359243195246064,0.8631722260040844
0.01359243195246064,0.8635125936010892
0.013729039308766778,0.8635125936010892
0.013729039308766778,0.863852961198094
0.013780267067381578,0.863852961198094
0.013780267067381578,0.8645336963921034
0.013848570745534647,0.8645336963921034
0.013848570745534647,0.865214431586113
0.014019329940917319,0.865214431586113
0.014019329940917319,0.8662355343771273
0.014173013216761723,0.8662355343771273
0.014173013216761723,0.8669162695711369
0.014241316894914792,0.8669162695711369
0.014241316894914792,0.8672566371681416
0.014258392814453059,0.8672566371681416
0.014258392814453059,0.8675970047651463
0.014309620573067859,0.8675970047651463
0.014309620573067859,0.8679373723621511
0.014326696492606128,0.8679373723621511
0.014326696492606128,0.8686181075561606
0.014377924251220928,0.8686181075561606
0.014377924251220928,0.8689584751531654
0.014634063044294935,0.8689584751531654
0.014634063044294935,0.8692988427501702
0.014651138963833202,0.8692988427501702
0.014651138963833202,0.869639210347175
0.014685290802909737,0.869639210347175
0.014685290802909737,0.8699795779441797
0.014736518561524537,0.8699795779441797
0.014736518561524537,0.8703199455411845
0.014856049998292408,0.8703199455411845
0.014856049998292408,0.871000680735194
0.014941429595983744,0.871000680735194
0.014941429595983744,0.8716814159292036
0.015163416549981216,0.8716814159292036
0.015163416549981216,0.8720217835262083
0.015197568389057751,0.8720217835262083
0.015197568389057751,0.872362151123213
0.015282947986749087,0.872362151123213
0.015282947986749087,0.8727025187202179
0.015419555343055223,0.8727025187202179
0.015419555343055223,0.8733832539142273
0.015522010860284827,0.8733832539142273
0.015522010860284827,0.8740639891082369
0.015641542297052696,0.8740639891082369
0.015641542297052696,0.8744043567052416
0.015726921894744034,0.8744043567052416
0.015726921894744034,0.8747447243022465
0.015761073733820567,0.8747447243022465
0.015761073733820567,0.8754254594962559
0.015778149653358834,0.8754254594962559
0.015778149653358834,0.8757658270932607
0.015812301492435368,0.8757658270932607
0.015812301492435368,0.8764465622872702
0.015914757009664972,0.8764465622872702
0.015914757009664972,0.876786929884275
0.015948908848741505,0.876786929884275
0.015948908848741505,0.8771272974812798
0.01598306068781804,0.8771272974812798
0.01598306068781804,0.8774676650782846
0.016119668044124177,0.8774676650782846
0.016119668044124177,0.8778080326752893
0.016239199480892048,0.8778080326752893
0.016239199480892048,0.8781484002722941
0.016427034595812986,0.8781484002722941
0.016427034595812986,0.8784887678692989
0.01646118643488952,0.8784887678692989
0.01646118643488952,0.8788291354663036
0.016495338273966053,0.8788291354663036
0.016495338273966053,0.8791695030633083
0.01651241419350432,0.8791695030633083
0.01651241419350432,0.8795098706603132
0.016614869710733924,0.8795098706603132
0.016614869710733924,0.8798502382573179
0.01663194563027219,0.8798502382573179
0.01663194563027219,0.8801906058543226
0.01675147706704006,0.8801906058543226
0.01675147706704006,0.8805309734513275
0.01681978074519313,0.8805309734513275
0.01681978074519313,0.8808713410483322
0.01687100850380793,0.8808713410483322
0.01687100850380793,0.8812117086453369
0.017314982411802876,0.8812117086453369
0.017314982411802876,0.8815520762423418
0.017383286089955943,0.8815520762423418
0.017383286089955943,0.8822328114363512
0.017485741607185547,0.8822328114363512
0.017485741607185547,0.882573179033356
0.017741880400259553,0.882573179033356
0.017741880400259553,0.8835942818243703
0.01777603223933609,0.8835942818243703
0.01777603223933609,0.8839346494213751
0.017861411837027424,0.8839346494213751
0.017861411837027424,0.8846153846153846
0.017963867354257028,0.8846153846153846
0.017963867354257028,0.8849557522123894
0.018083398791024895,0.8849557522123894
0.018083398791024895,0.8852961198093942
0.018117550630101432,0.8852961198093942
0.018117550630101432,0.8863172226004085
0.018288309825484104,0.8863172226004085
0.018288309825484104,0.8866575901974132
0.018424917181790238,0.8866575901974132
0.018424917181790238,0.8873383253914228
0.01871520781394078,0.8873383253914228
0.01871520781394078,0.8876786929884275
0.018851815170246918,0.8876786929884275
0.018851815170246918,0.8880190605854322
0.018868891089785185,0.8880190605854322
0.018868891089785185,0.8883594281824371
0.01895427068747652,0.8883594281824371
0.01895427068747652,0.8890401633764465
0.018988422526553056,0.8890401633764465
0.018988422526553056,0.8893805309734514
0.019005498446091323,0.8893805309734514
0.019005498446091323,0.8897208985704561
0.01907380212424439,0.8897208985704561
0.01907380212424439,0.8900612661674608
0.019090878043782657,0.8900612661674608
0.019090878043782657,0.8904016337644656
0.019107953963320923,0.8904016337644656
0.019107953963320923,0.8907420013614704
0.019261637239165328,0.8907420013614704
0.019261637239165328,0.8910823689584751
0.019364092756394932,0.8910823689584751
0.019364092756394932,0.892784206943499
0.019432396434548,0.892784206943499
0.019432396434548,0.8931245745405038
0.019449472354086266,0.8931245745405038
0.019449472354086266,0.8934649421375085
0.019534851951777604,0.8934649421375085
0.019534851951777604,0.8938053097345132
0.019620231549468937,0.8938053097345132
0.019620231549468937,0.8941456773315181
0.01967145930808374,0.8941456773315181
0.01967145930808374,0.8944860449285228
0.019773914825313342,0.8944860449285228
0.019773914825313342,0.8948264125255275
0.01979099074485161,0.8948264125255275
0.01979099074485161,0.8951667801225324
0.01991052218161948,0.8951667801225324
0.01991052218161948,0.8955071477195371
0.019927598101157747,0.8955071477195371
0.019927598101157747,0.8958475153165418
0.02003005361838735,0.8958475153165418
0.02003005361838735,0.8961878829135467
0.020098357296540418,0.8961878829135467
0.020098357296540418,0.8965282505105514
0.02016666097469349,0.8965282505105514
0.02016666097469349,0.8968686181075561
0.020354496089614427,0.8968686181075561
0.020354496089614427,0.897208985704561
0.020456951606844027,0.897208985704561
0.020456951606844027,0.8975493533015657
0.020474027526382294,0.8975493533015657
0.020474027526382294,0.8978897208985704
0.020815545917147637,0.8978897208985704
0.020815545917147637,0.8982300884955752
0.020849697756224174,0.8982300884955752
0.020849697756224174,0.89857045609258
0.021020456951606845,0.89857045609258
0.021020456951606845,0.8989108236895847
0.02115706430791298,0.8989108236895847
0.02115706430791298,0.8995915588835943
0.02117414022745125,0.8995915588835943
0.02117414022745125,0.899931926480599
0.021379051261910455,0.899931926480599
0.021379051261910455,0.9002722940776038
0.02139612718144872,0.9002722940776038
0.02139612718144872,0.9006126616746086
0.021601038215907926,0.9006126616746086
0.021601038215907926,0.9012933968686181
0.02199378436528807,0.9012933968686181
0.02199378436528807,0.9016337644656228
0.02206208804344114,0.9016337644656228
0.02206208804344114,0.9019741320626277
0.022198695399747278,0.9019741320626277
0.022198695399747278,0.9023144996596324
0.022335302756053412,0.9023144996596324
0.022335302756053412,0.9026548672566371
0.022403606434206483,0.9026548672566371
0.022403606434206483,0.902995234853642
0.02242068235374475,0.902995234853642
0.02242068235374475,0.9033356024506467
0.02247191011235955,0.9033356024506467
0.02247191011235955,0.9036759700476514
0.02259144154912742,0.9036759700476514
0.02259144154912742,0.9040163376446563
0.02264266930774222,0.9040163376446563
0.02264266930774222,0.9046970728386657
0.023274478330658106,0.9046970728386657
0.023274478330658106,0.9050374404356705
0.023598920801885182,0.9050374404356705
0.023598920801885182,0.9053778080326753
0.023650148560499983,0.9053778080326753
0.023650148560499983,0.9063989108236896
0.023701376319114783,0.9063989108236896
0.023701376319114783,0.9067392784206944
0.02390628735357399,0.9067392784206944
0.02390628735357399,0.9070796460176991
0.02397459103172706,0.9070796460176991
0.02397459103172706,0.9074200136147039
0.024042894709880126,0.9074200136147039
0.024042894709880126,0.9077603812117087
0.024111198388033196,0.9077603812117087
0.024111198388033196,0.9084411164057182
0.024350261261568935,0.9084411164057182
0.024350261261568935,0.908781484002723
0.025238209077558825,0.908781484002723
0.025238209077558825,0.9091218515997277
0.025323588675250162,0.9091218515997277
0.025323588675250162,0.9094622191967324
0.02539189235340323,0.9094622191967324
0.02539189235340323,0.9098025867937373
0.025545575629247634,0.9098025867937373
0.025545575629247634,0.910142954390742
0.02563095522693897,0.910142954390742
0.02563095522693897,0.9104833219877467
0.025665107066015505,0.9104833219877467
0.025665107066015505,0.9108236895847516
0.025716334824630305,0.9108236895847516
0.025716334824630305,0.9111640571817563
0.025852942180936443,0.9111640571817563
0.025852942180936443,0.911504424778761
0.02629691608893139,0.911504424778761
0.02629691608893139,0.9118447923757659
0.02653597896246713,0.9118447923757659
0.02653597896246713,0.9125255275697753
0.02682626959461767,0.9125255275697753
0.02682626959461767,0.9128658951667801
0.026894573272770738,0.9128658951667801
0.026894573272770738,0.9132062627637849
0.026997028790000342,0.9132062627637849
0.026997028790000342,0.9135466303607896
0.027082408387691676,0.9135466303607896
0.027082408387691676,0.9138869979577944
0.027167787985383014,0.9138869979577944
0.027167787985383014,0.9142273655547992
0.02718486390492128,0.9142273655547992
0.02718486390492128,0.914567733151804
0.02723609166353608,0.914567733151804
0.02723609166353608,0.9149081007488087
0.027560534134763157,0.9149081007488087
0.027560534134763157,0.9152484683458135
0.027884976605990233,0.9152484683458135
0.027884976605990233,0.9155888359428183
0.027919128445066766,0.9155888359428183
0.027919128445066766,0.915929203539823
0.028038659881834637,0.915929203539823
0.028038659881834637,0.9162695711368277
0.028089887640449437,0.9162695711368277
0.028089887640449437,0.9166099387338326
0.028465557870291314,0.9166099387338326
0.028465557870291314,0.9169503063308373
0.028568013387520918,0.9169503063308373
0.028568013387520918,0.917290673927842
0.028926607697824527,0.917290673927842
0.028926607697824527,0.9176310415248469
0.028977835456439328,0.9176310415248469
0.028977835456439328,0.9179714091218516
0.029080290973668932,0.9179714091218516
0.029080290973668932,0.9183117767188563
0.0290973668932072,0.9183117767188563
0.0290973668932072,0.9186521443158612
0.029251050169051603,0.9186521443158612
0.029251050169051603,0.9189925119128659
0.029353505686281207,0.9189925119128659
0.029353505686281207,0.9193328795098706
0.029370581605819474,0.9193328795098706
0.029370581605819474,0.9196732471068755
0.029507188962125612,0.9196732471068755
0.029507188962125612,0.9200136147038802
0.029643796318431746,0.9200136147038802
0.029643796318431746,0.9203539823008849
0.029814555513814418,0.9203539823008849
0.029814555513814418,0.9206943498978897
0.030002390628735356,0.9206943498978897
0.030002390628735356,0.9210347174948945
0.030138997985041494,0.9210347174948945
0.030138997985041494,0.9213750850918992
0.030241453502271098,0.9213750850918992
0.030241453502271098,0.921715452688904
0.03041221269765377,0.921715452688904
0.03041221269765377,0.9220558202859088
0.030548820053959907,0.9220558202859088
0.03058297189303644,0.9220558202859088
0.030651275571189508,0.9220558202859088
0.030651275571189508,0.9223961878829136
0.030975718042416583,0.9223961878829136
0.030975718042416583,0.9227365554799183
0.03099279396195485,0.9227365554799183
0.03099279396195485,0.9230769230769231
0.03130016051364366,0.9230769230769231
0.03130016051364366,0.9234172906739279
0.031334312352720196,0.9234172906739279
0.031334312352720196,0.9237576582709326
0.0314367678699498,0.9237576582709326
0.0314367678699498,0.9240980258679373
0.03145384378948807,0.9240980258679373
0.03145384378948807,0.9244383934649422
0.03147091970902633,0.9244383934649422
0.03147091970902633,0.9247787610619469
0.03177828626071514,0.9247787610619469
0.03177828626071514,0.9251191286589516
0.03222226016871008,0.9251191286589516
0.03222226016871008,0.9254594962559565
0.03230763976640142,0.9254594962559565
0.03230763976640142,0.9257998638529612
0.03271746183531983,0.9257998638529612
0.03271746183531983,0.9261402314499659
0.0327345377548581,0.9261402314499659
0.0327345377548581,0.9264805990469708
0.03307605614562344,0.9264805990469708
0.03307605614562344,0.9268209666439755
0.03334927085823572,0.9268209666439755
0.03334927085823572,0.9271613342409802
0.033400498616850516,0.9271613342409802
0.033400498616850516,0.927501701837985
0.03345172637546532,0.927501701837985
0.03345172637546532,0.9278420694349898
0.03346880229500358,0.9278420694349898
0.03346880229500358,0.9281824370319945
0.03353710597315666,0.9281824370319945
0.03353710597315666,0.9285228046289993
0.033998155800689864,0.9285228046289993
0.033998155800689864,0.9288631722260041
0.034561661145452685,0.9288631722260041
0.034561661145452685,0.9292035398230089
0.0350227109729859,0.9292035398230089
0.0350227109729859,0.9295439074200136
0.03541545712236604,0.9295439074200136
0.03541545712236604,0.9298842750170184
0.035603292237286976,0.9298842750170184
0.035603292237286976,0.9302246426140232
0.03572282367405485,0.9302246426140232
0.03572282367405485,0.9305650102110279
0.03573989959359312,0.9305650102110279
0.03573989959359312,0.9309053778080327
0.03577405143266965,0.9309053778080327
0.03577405143266965,0.9315861130020422
0.03584235511082272,0.9315861130020422
0.03584235511082272,0.9319264805990469
0.03659369557050647,0.9319264805990469
0.03659369557050647,0.9322668481960518
0.03671322700727434,0.9322668481960518
0.03671322700727434,0.9326072157930565
0.036952289880810084,0.9326072157930565
0.036952289880810084,0.9329475833900612
0.03696936580034835,0.9329475833900612
0.03696936580034835,0.9332879509870661
0.037157200915269285,0.9332879509870661
0.037157200915269285,0.9339686861810755
0.03720842867388409,0.9339686861810755
0.03720842867388409,0.9343090537780804
0.03731088419111369,0.9343090537780804
0.03731088419111369,0.9346494213750851
0.037464567466958094,0.9346494213750851
0.037464567466958094,0.9349897889720898
0.037874389535876504,0.9349897889720898
0.037874389535876504,0.9353301565690946
0.037891465455414775,0.9353301565690946
0.037891465455414775,0.9356705241660994
0.037993920972644375,0.9356705241660994
0.037993920972644375,0.9360108917631041
0.038113452409412246,0.9360108917631041
0.038113452409412246,0.9363512593601089
0.038437894880639326,0.9363512593601089
0.038437894880639326,0.9366916269571137
0.038728185512789864,0.9366916269571137
0.038728185512789864,0.9370319945541185
0.0388135651104812,0.9370319945541185
0.0388135651104812,0.9373723621511232
0.03893309654724907,0.9373723621511232
0.03893309654724907,0.937712729748128
0.03918923534032308,0.937712729748128
0.03918923534032308,0.9380530973451328
0.03922338717939961,0.9380530973451328
0.03922338717939961,0.9383934649421375
0.03944537413339708,0.9383934649421375
0.03944537413339708,0.9387338325391422
0.03951367781155015,0.9387338325391422
0.03951367781155015,0.9390742001361471
0.03959905740924149,0.9390742001361471
0.03959905740924149,0.9394145677331518
0.03963320924831802,0.9394145677331518
0.03963320924831802,0.9397549353301565
0.039769816604624156,0.9397549353301565
0.039769816604624156,0.9400953029271614
0.039974727639083364,0.9400953029271614
0.039974727639083364,0.9404356705241661
0.040094259075851235,0.9404356705241661
0.040094259075851235,0.9407760381211708
0.0402650182712339,0.9407760381211708
0.0402650182712339,0.9411164057181757
0.04031624602984871,0.9411164057181757
0.04031624602984871,0.9414567733151804
0.04043577746661658,0.9414567733151804
0.04043577746661658,0.9417971409121851
0.04057238482292271,0.9417971409121851
0.04057238482292271,0.94213750850919
0.040811447696458454,0.94213750850919
0.040811447696458454,0.9424778761061947
0.04128957344352993,0.9424778761061947
0.04128957344352993,0.9428182437031994
0.041340801202144735,0.9428182437031994
0.041340801202144735,0.9431586113002042
0.042160445339981555,0.9431586113002042
0.042160445339981555,0.943498978897209
0.04292886171920358,0.943498978897209
0.04292886171920358,0.9438393464942137
0.04357774666165773,0.9438393464942137
0.04357774666165773,0.9441797140912185
0.04376558177657867,0.9441797140912185
0.04376558177657867,0.9445200816882233
0.04381680953519347,0.9445200816882233
0.043833885454731734,0.944860449285228
0.043833885454731734,0.9452008168822328
0.04388511321334654,0.9452008168822328
0.04388511321334654,0.9455411844792376
0.04419247976503535,0.9455411844792376
0.04419247976503535,0.9458815520762424
0.04443154263857109,0.9458815520762424
0.04443154263857109,0.9462219196732471
0.04451692223626242,0.9462219196732471
0.04451692223626242,0.9465622872702518
0.045114579420101775,0.9465622872702518
0.045114579420101775,0.9469026548672567
0.04554147740855845,0.9469026548672567
0.04554147740855845,0.947923757658271
0.04557562924763499,0.947923757658271
0.04557562924763499,0.9482641252552757
0.04600252723609166,0.9482641252552757
0.04600252723609166,0.9486044928522804
0.04632696970731874,0.9486044928522804
0.04632696970731874,0.9489448604492853
0.04747105631638264,0.9489448604492853
0.04747105631638264,0.94928522804629
0.04757351183361224,0.94928522804629
0.04757351183361224,0.9496255956432947
0.04777842286807145,0.9496255956432947
0.04777842286807145,0.9499659632402995
0.047829650626686246,0.9499659632402995
0.047829650626686246,0.9503063308373043
0.04806871350022199,0.9503063308373043
0.04806871350022199,0.950646698434309
0.04851268740821693,0.950646698434309
0.04851268740821693,0.9509870660313138
0.04871759844267614,0.9509870660313138
0.04871759844267614,0.9513274336283186
0.04878590212082921,0.9513274336283186
0.04878590212082921,0.9516678012253234
0.04882005395990574,0.9516678012253234
0.04882005395990574,0.9520081688223281
0.04965677401728083,0.9520081688223281
0.04965677401728083,0.9523485364193329
0.049793381373586965,0.9523485364193329
0.049793381373586965,0.9526889040163377
0.04986168505174004,0.9526889040163377
0.04986168505174004,0.9530292716133424
0.049912912810354836,0.9530292716133424
0.049912912810354836,0.9533696392103471
0.050322734879273245,0.9533696392103471
0.050322734879273245,0.953710006807352
0.050544721833270724,0.953710006807352
0.050544721833270724,0.9540503744043567
0.05088624022403607,0.9540503744043567
0.05088624022403607,0.9543907420013614
0.05114237901711007,0.9543907420013614
0.05114237901711007,0.9547311095983663
0.05126191045387794,0.9547311095983663
0.05126191045387794,0.955071477195371
0.051364365971107544,0.955071477195371
0.051364365971107544,0.9554118447923757
0.051483897407875415,0.9554118447923757
0.051483897407875415,0.9557522123893806
0.05155220108602848,0.9557522123893806
0.05155220108602848,0.9560925799863853
0.05165465660325808,0.9560925799863853
0.05165465660325808,0.95643294758339
0.05184249171817902,0.95643294758339
0.05184249171817902,0.9567733151803949
0.05197909907448516,0.9567733151803949
0.05197909907448516,0.9571136827773996
0.052013250913561695,0.9571136827773996
0.052013250913561695,0.9574540503744043
0.05214985826986783,0.9574540503744043
0.05214985826986783,0.9577944179714091
0.05237184522386531,0.9577944179714091
0.05237184522386531,0.9581347855684139
0.05259383217786278,0.9581347855684139
0.05259383217786278,0.9584751531654186
0.05264505993647758,0.9584751531654186
0.05264505993647758,0.9588155207624234
0.05266213585601585,0.9588155207624234
0.05266213585601585,0.9591558883594282
0.053276868959393466,0.9591558883594282
0.053276868959393466,0.959496255956433
0.05334517263754653,0.959496255956433
0.05334517263754653,0.9598366235534377
0.053550083672005734,0.9598366235534377
0.053550083672005734,0.9601769911504425
0.053567159591544004,0.9601769911504425
0.053567159591544004,0.9605173587474473
0.05626515487859021,0.9605173587474473
0.05626515487859021,0.960857726344452
0.05645298999351115,0.960857726344452
0.05645298999351115,0.9611980939414567
0.05676035654519996,0.9611980939414567
0.05676035654519996,0.9615384615384616
0.05746046924626891,0.9615384615384616
0.05746046924626891,0.9618788291354663
0.05751169700488371,0.9618788291354663
0.05751169700488371,0.962219196732471
0.05792151907380212,0.962219196732471
0.05792151907380212,0.9625595643294759
0.057989822751955196,0.9625595643294759
0.057989822751955196,0.9628999319264806
0.058280113384105735,0.9628999319264806
0.058280113384105735,0.9632402995234853
0.058382568901335335,0.9632402995234853
0.058382568901335335,0.9635806671204902
0.05843379665995014,0.9635806671204902
0.05843379665995014,0.9639210347174949
0.060073084935623786,0.9639210347174949
0.060073084935623786,0.9642614023144996
0.06096103275161367,0.9642614023144996
0.06096103275161367,0.9646017699115044
0.06102933642976674,0.9646017699115044
0.06102933642976674,0.9649421375085092
0.061097640107919814,0.9649421375085092
0.061097640107919814,0.9652825051055139
0.06164406953314436,0.9652825051055139
0.06164406953314436,0.9656228727025187
0.061729449130835695,0.9656228727025187
0.061729449130835695,0.9659632402995235
0.06207096752160104,0.9659632402995235
0.06207096752160104,0.9663036078965282
0.06260032102728733,0.9663036078965282
0.06260032102728733,0.966643975493533
0.06324920596974147,0.966643975493533
0.06324920596974147,0.9669843430905378
0.06333458556743281,0.9669843430905378
0.06333458556743281,0.9673247106875426
0.06384686315358082,0.9673247106875426
0.06384686315358082,0.9676650782845473
0.06451282401557323,0.9676650782845473
0.06451282401557323,0.9680054458815521
0.06480311464772379,0.9680054458815521
0.06480311464772379,0.9683458134785569
0.06482019056726204,0.9683458134785569
0.06482019056726204,0.9686861810755616
0.06505925344079778,0.9686861810755616
0.06505925344079778,0.9690265486725663
0.06575936614186674,0.9690265486725663
0.06575936614186674,0.9693669162695712
0.06738157849800212,0.9693669162695712
0.06738157849800212,0.9697072838665759
0.0678084764864588,0.9697072838665759
0.0678084764864588,0.9703880190605855
0.06809876711860934,0.9703880190605855
0.06809876711860934,0.9707283866575902
0.06849151326798948,0.9707283866575902
0.06849151326798948,0.9710687542545949
0.0695160684402855,0.9710687542545949
0.0695160684402855,0.9714091218515998
0.06977220723335952,0.9714091218515998
0.06977220723335952,0.9717494894486045
0.07122366039411222,0.9717494894486045
0.07122366039411222,0.9720898570456092
0.07132611591134183,0.9720898570456092
0.07132611591134183,0.972430224642614
0.07149687510672449,0.972430224642614
0.07149687510672449,0.9727705922396188
0.07453638878453604,0.9727705922396188
0.07453638878453604,0.9731109598366235
0.07655134729005157,0.9731109598366235
0.07655134729005157,0.9734513274336283
0.07679041016358731,0.9734513274336283
0.07679041016358731,0.9737916950306331
0.07822478740480175,0.9737916950306331
0.07822478740480175,0.9741320626276379
0.07909565930125337,0.9741320626276379
0.07912981114032991,0.9741320626276379
0.08184488234691438,0.9741320626276379
0.08187903418599092,0.9741320626276379
0.08259622280659813,0.9741320626276379
0.08259622280659813,0.9744724302246426
0.08276698200198081,0.9744724302246426
0.08276698200198081,0.9748127978216474
0.08278405792151908,0.9748127978216474
0.08278405792151908,0.9751531654186522
0.0833987910248967,0.9751531654186522
0.0833987910248967,0.9754935330156569
0.0835524743007411,0.9754935330156569
0.0835524743007411,0.9758339006126616
0.08356955022027936,0.9758339006126616
0.08356955022027936,0.9761742682096665
0.08438919435811619,0.9761742682096665
0.08438919435811619,0.9765146358066712
0.08473071274888153,0.9765146358066712
0.08473071274888153,0.9768550034036759
0.08481609234657286,0.9768550034036759
0.08481609234657286,0.9771953710006808
0.08483316826611113,0.9771953710006808
0.08483316826611113,0.9775357385976855
0.08488439602472593,0.9775357385976855
0.08488439602472593,0.9778761061946902
0.08544790136948875,0.9778761061946902
0.08544790136948875,0.9782164737916951
0.08601140671425156,0.9782164737916951
0.08601140671425156,0.9785568413886998
0.08662613981762918,0.9785568413886998
0.08662613981762918,0.9788972089857045
0.0877531505071548,0.9788972089857045
0.0877531505071548,0.9792375765827094
0.0883849595300707,0.9792375765827094
0.0883849595300707,0.9795779441797141
0.08923875550698405,0.9795779441797141
0.08923875550698405,0.9799183117767188
0.0900925514838974,0.9799183117767188
0.0900925514838974,0.9802586793737236
0.092175813667566,0.9802586793737236
0.092175813667566,0.9805990469707284
0.09231242102387213,0.9805990469707284
0.09231242102387213,0.9809394145677331
0.0923294969434104,0.9809394145677331
0.0923294969434104,0.9812797821647379
0.09309791332263243,0.9812797821647379
0.09313206516170895,0.9812797821647379
0.09359311498924217,0.9812797821647379
0.09359311498924217,0.9816201497617427
0.0945664424029234,0.9816201497617427
0.0945664424029234,0.9819605173587475
0.09588128820736996,0.9819605173587475
0.09588128820736996,0.9823008849557522
0.09635941395444145,0.9823008849557522
0.09635941395444145,0.9829816201497618
0.09717905809227827,0.9829816201497618
0.09717905809227827,0.9833219877467665
0.0973156654485844,0.9833219877467665
0.0973156654485844,0.9836623553437712
0.09828899286226564,0.9836623553437712
0.09828899286226564,0.9840027229407761
0.10056009016085517,0.9840027229407761
0.10056009016085517,0.9843430905377808
0.10288241521805949,0.9843430905377808
0.10288241521805949,0.9846834581347855
0.10329223728697791,0.9846834581347855
0.10329223728697791,0.9850238257317904
0.10375328711451112,0.9850238257317904
0.10375328711451112,0.9853641933287951
0.10387281855127899,0.9853641933287951
0.10387281855127899,0.9857045609257998
0.10631467504525119,0.9857045609257998
0.10631467504525119,0.9860449285228047
0.10711724326354974,0.9860449285228047
0.10715139510262628,0.9860449285228047
0.10836378538984325,0.9860449285228047
0.10836378538984325,0.9863852961198094
0.10882483521737646,0.9863852961198094
0.10882483521737646,0.9867256637168141
0.10887606297599126,0.9867256637168141
0.10887606297599126,0.9870660313138189
0.10914927768860354,0.9870660313138189
0.10914927768860354,0.9874063989108237
0.10991769406782555,0.9874063989108237
0.10991769406782555,0.9877467665078284
0.11083979372289197,0.9877467665078284
0.11083979372289197,0.9880871341048332
0.11288890406748403,0.9880871341048332
0.11288890406748403,0.988427501701838
0.11350363717086165,0.988427501701838
0.11350363717086165,0.9887678692988427
0.1136914722857826,0.9887678692988427
0.1136914722857826,0.9891082368958475
0.11615040469929305,0.9891082368958475
0.1161845565383696,0.9891082368958475
0.12021447354940064,0.9891082368958475
0.12024862538847716,0.9891082368958475
0.12434684607766128,0.9891082368958475
0.12434684607766128,0.9894486044928523
0.12489327550288583,0.9894486044928523
0.12489327550288583,0.989788972089857
0.12523479389365116,0.989788972089857
0.12523479389365116,0.9901293396868618
0.1267887025716335,0.9901293396868618
0.1267887025716335,0.9904697072838666
0.1288548888357638,0.9904697072838666
0.1288548888357638,0.9908100748808714
0.13078446774358798,0.9908100748808714
0.13078446774358798,0.9911504424778761
0.1362316860762952,0.9911504424778761
0.1362316860762952,0.9914908100748808
0.1401420716505584,0.9914908100748808
0.1401420716505584,0.9918311776718857
0.14120077866193095,0.9918311776718857
0.14120077866193095,0.9921715452688904
0.1431474334892934,0.9921715452688904
0.1431474334892934,0.9925119128658951
0.1518732283733479,0.9925119128658951
0.1518732283733479,0.9928522804629
0.1530685427410266,0.9928522804629
0.15310269458010314,0.9928522804629
0.1539052627984017,0.9928522804629
0.1539052627984017,0.9931926480599047
0.15656910624637135,0.9931926480599047
0.15656910624637135,0.9935330156569094
0.15808886308527714,0.9935330156569094
0.15808886308527714,0.9938733832539143
0.15964277176325944,0.9938733832539143
0.15964277176325944,0.994213750850919
0.16910283118745945,0.994213750850919
0.16910283118745945,0.9945541184479237
0.17357672210648542,0.9945541184479237
0.17361087394556196,0.9945541184479237
0.17796523342782009,0.9945541184479237
0.17796523342782009,0.9948944860449285
0.18324169256514464,0.9948944860449285
0.18324169256514464,0.9952348536419333
0.18431747549605546,0.9952348536419333
0.18431747549605546,0.995575221238938
0.18597383969126738,0.995575221238938
0.18600799153034392,0.995575221238938
0.18862060721969878,0.995575221238938
0.18862060721969878,0.9959155888359428
0.19085755267921178,0.9959155888359428
0.19085755267921178,0.9962559564329476
0.19263344831119156,0.9962559564329476
0.19263344831119156,0.9965963240299524
0.1944776476213244,0.9965963240299524
0.1944776476213244,0.9969366916269571
0.19932720877019228,0.9969366916269571
0.19932720877019228,0.9972770592239619
0.20550869164304497,0.9972770592239619
0.20550869164304497,0.9976174268209667
0.21290256480311465,0.9976174268209667
0.21290256480311465,0.9979577944179714
0.2131928554352652,0.9979577944179714
0.2131928554352652,0.9982981620149761
0.21380758853864282,0.9982981620149761
0.21384174037771933,0.9982981620149761
0.23503295652470885,0.9982981620149761
0.2350671083637854,0.9982981620149761
0.24418564939722004,0.9982981620149761
0.24418564939722004,0.998638529611981
0.24430518083398792,0.998638529611981
0.24433933267306446,0.998638529611981
0.24580786175335542,0.998638529611981
0.24584201359243196,0.998638529611981
0.24725931491410813,0.998638529611981
0.24729346675318467,0.998638529611981
0.25817082749906084,0.998638529611981
0.25820497933813735,0.998638529611981
0.2640107919811482,0.998638529611981
0.2640449438202247,0.998638529611981
0.2688432772104778,0.998638529611981
0.2688432772104778,0.9989788972089857
0.27956695468050957,0.9989788972089857
0.27956695468050957,0.9993192648059904
0.2940131826098835,0.9993192648059904
0.2940473344489601,0.9993192648059904
0.2951743451384857,0.9993192648059904
0.29520849697756224,0.9993192648059904
0.310662204159694,0.9993192648059904
0.31069635599877055,0.9993192648059904
0.31354803456166114,0.9993192648059904
0.31354803456166114,0.9996596324029953
0.31438475461903626,0.9996596324029953
0.31441890645811277,0.9996596324029953
0.3239131177213893,0.9996596324029953
0.3239472695604658,0.9996596324029953
0.3267647962842799,0.9996596324029953
0.32679894812335647,0.9996596324029953
0.3298896895597828,0.9996596324029953
0.32992384139885933,0.9996596324029953
0.335524743007411,0.9996596324029953
0.3355588948464875,0.9996596324029953
0.3523274478330658,0.9996596324029953
0.35236159967214237,0.9996596324029953
0.37792425122092826,0.9996596324029953
0.3779584030600048,0.9996596324029953
0.3828762678870257,0.9996596324029953
0.38291041972610224,0.9996596324029953
0.3914483794952358,0.9996596324029953
0.3914825313343124,0.9996596324029953
0.39257539018476145,0.9996596324029953
0.39260954202383797,0.9996596324029953
0.4070386940336737,0.9996596324029953
0.4070728458727502,0.9996596324029953
0.4257709777671528,0.9996596324029953
0.4258051296062293,0.9996596324029953
0.4308425258700181,0.9996596324029953
0.43087667770909466,0.9996596324029953
0.43804856391516683,0.9996596324029953
0.43808271575424335,0.9996596324029953
0.44108807759297836,0.9996596324029953
0.4411222294320549,0.9996596324029953
0.4425907585123459,0.9996596324029953
0.44262491035142243,0.9996596324029953
0.45661008845326323,0.9996596324029953
0.45664424029233974,0.9996596324029953
0.46526757965916465,0.9996596324029953
0.46530173149824117,0.9996596324029953
0.4696731669000376,0.9996596324029953
0.4697073187391141,0.9996596324029953
0.47255899730200474,0.9996596324029953
0.47259314914108125,0.9996596324029953
0.4832314470134217,0.9996596324029953
0.4832655988524982,0.9996596324029953
0.494313718793757,0.9996596324029953
0.4943478706328336,0.9996596324029953
0.5001878351149209,0.9996596324029953
0.5002219869539974,0.9996596324029953
0.5005976571838393,0.9996596324029953
0.5006318090229159,0.9996596324029953
0.5013660735630614,0.9996596324029953
0.5014002254021379,0.9996596324029953
0.5049349407465592,0.9996596324029953
0.5049690925856357,0.9996596324029953
0.5174003620094942,0.9996596324029953
0.5174345138485708,0.9996596324029953
0.5206960144803797,0.9996596324029953
0.5207301663194563,0.9996596324029953
0.5209863051125303,0.9996596324029953
0.5210204569516068,0.9996596324029953
0.5449438202247191,0.9996596324029953
0.5449438202247191,1.0
0.5522181619480209,1.0
0.5522523137870974,1.0
0.5642054574638844,1.0
0.5642396093029609,1.0
0.5796250128069397,1.0
0.5796591646460162,1.0
0.5909463474608108,1.0
0.5909804992998873,1.0
0.5963423380349032,1.0
0.5963764898739797,1.0
0.6049827533212664,1.0
0.6050169051603429,1.0
0.6294866978586797,1.0
0.6295208496977562,1.0
0.6466650729141764,1.0
0.6466992247532529,1.0
0.6769406782555241,1.0
0.6769748300946006,1.0
0.7035620368156825,1.0
0.703596188654759,1.0
0.7055257675625832,1.0
0.7055599194016597,1.0
0.7081042314128616,1.0
0.7081383832519381,1.0
0.7123902872169666,1.0
0.7124244390560431,1.0
0.7181960998599775,1.0
0.718230251699054,1.0
0.729927256582767,1.0
0.7299614084218435,1.0
0.7331546053754995,1.0
0.733188757214576,1.0
0.7333765923294969,1.0
0.7334107441685734,1.0
0.7588709402001298,1.0
0.7589050920392063,1.0
0.7668966223831153,1.0
0.7669307742221919,1.0
0.7700556674976947,1.0
0.7700898193367712,1.0
0.8308117892148492,1.0
0.8308459410539257,1.0
0.8317338888699156,1.0
0.8317680407089921,1.0
0.8354735152487961,1.0
0.8355076670878727,1.0
0.8667736757624398,1.0
0.8668078276015163,1.0
0.8682934326013456,1.0
0.8683275844404221,1.0
0.8829957993237936,1.0
0.8830299511628701,1.0
0.8857279464499164,1.0
0.8857620982889929,1.0
0.8912263925412384,1.0
0.8912605443803149,1.0
0.8918240497250777,1.0
0.8918582015641542,1.0
0.8928486048973737,1.0
0.8928827567364502,1.0
0.9223899456985759,1.0
0.9224240975376524,1.0
0.9483282674772037,1.0
0.9483624193162802,1.0
0.9809091219562174,1.0
0.9809432737952939,1.0
1.0,1.0
