fpr,tpr
0.0,0.0
1.6518004625041296e-05,0.0
3.303600925008259e-05,0.0
3.303600925008259e-05,0.002777777777777778
4.955401387512388e-05,0.002777777777777778
4.955401387512388e-05,0.029861111111111113
6.607201850016519e-05,0.029861111111111113
6.607201850016519e-05,0.04027777777777778
8.259002312520647e-05,0.04027777777777778
8.259002312520647e-05,0.04861111111111111
9.910802775024777e-05,0.04861111111111111
9.910802775024777e-05,0.06388888888888888
0.00011562603237528906,0.06388888888888888
0.00011562603237528906,0.0798611111111111
0.00013214403700033037,0.0798611111111111
0.00013214403700033037,0.08055555555555556
0.00013214403700033037,0.08194444444444444
0.00013214403700033037,0.08819444444444445
0.00016518004625041294,0.08819444444444445
0.00016518004625041294,0.09861111111111111
0.00018169805087545423,0.09861111111111111
0.00018169805087545423,0.10416666666666667
0.00019821605550049553,0.10416666666666667
0.00019821605550049553,0.1111111111111111
0.00021473406012553683,0.1111111111111111
0.00021473406012553683,0.11597222222222223
0.00023125206475057812,0.11597222222222223
0.00023125206475057812,0.11875
0.0002477700693756194,0.11875
0.0002477700693756194,0.13333333333333333
0.0002477700693756194,0.13472222222222222
0.0002477700693756194,0.16527777777777777
0.00026428807400066074,0.16527777777777777
0.000280806078625702,0.16597222222222222
0.000280806078625702,0.16875
0.0003138420878757846,0.16875
0.0003138420878757846,0.175
0.0003303600925008259,0.175
0.0003303600925008259,0.1763888888888889
0.0003468780971258672,0.1763888888888889
0.0003468780971258672,0.18125
0.00036339610175090847,0.18125
0.00036339610175090847,0.1875
0.0003799141063759498,0.1875
0.0003799141063759498,0.2048611111111111
0.00039643211100099106,0.2048611111111111
0.00039643211100099106,0.2076388888888889
0.00039643211100099106,0.20902777777777778
0.00039643211100099106,0.21666666666666667
0.0004129501156260324,0.21666666666666667
0.0004129501156260324,0.21736111111111112
0.00042946812025107365,0.21736111111111112
0.00042946812025107365,0.21875
0.000445986124876115,0.21875
0.000445986124876115,0.24166666666666667
0.00046250412950115625,0.24166666666666667
0.00046250412950115625,0.24444444444444444
0.00047902213412619757,0.24444444444444444
0.00047902213412619757,0.25
0.0004955401387512388,0.25
0.0004955401387512388,0.25069444444444444
0.0005120581433762802,0.25069444444444444
0.0005120581433762802,0.2534722222222222
0.0005285761480013215,0.2534722222222222
0.0005285761480013215,0.2652777777777778
0.0005450941526263627,0.2652777777777778
0.0005450941526263627,0.26944444444444443
0.000561612157251404,0.26944444444444443
0.000561612157251404,0.27291666666666664
0.0005781301618764453,0.27291666666666664
0.0005781301618764453,0.2798611111111111
0.0005781301618764453,0.28125
0.0005781301618764453,0.2951388888888889
0.0005946481665014867,0.2951388888888889
0.0005946481665014867,0.30833333333333335
0.0006111661711265279,0.30833333333333335
0.0006111661711265279,0.3111111111111111
0.0006276841757515692,0.3111111111111111
0.0006276841757515692,0.31319444444444444
0.0006442021803766105,0.31319444444444444
0.0006442021803766105,0.31666666666666665
0.0006607201850016518,0.31666666666666665
0.0006607201850016518,0.3215277777777778
0.0006772381896266931,0.3215277777777778
0.0006772381896266931,0.3229166666666667
0.0006937561942517344,0.3229166666666667
0.0006937561942517344,0.3333333333333333
0.0006937561942517344,0.3347222222222222
0.0006937561942517344,0.33958333333333335
0.0007102741988767757,0.33958333333333335
0.0007102741988767757,0.34097222222222223
0.0007102741988767757,0.3423611111111111
0.0007102741988767757,0.34305555555555556
0.0007267922035018169,0.34305555555555556
0.0007267922035018169,0.35138888888888886
0.0007433102081268583,0.35138888888888886
0.0007433102081268583,0.3548611111111111
0.0007763462173769409,0.3548611111111111
0.0007763462173769409,0.36041666666666666
0.0007928642220019821,0.36041666666666666
0.0007928642220019821,0.3638888888888889
0.0008093822266270234,0.3638888888888889
0.0008093822266270234,0.3645833333333333
0.0008259002312520648,0.3645833333333333
0.0008259002312520648,0.3659722222222222
0.0008424182358771061,0.3659722222222222
0.0008424182358771061,0.3680555555555556
0.0008589362405021473,0.3680555555555556
0.0008589362405021473,0.3784722222222222
0.0008754542451271886,0.3784722222222222
0.0008754542451271886,0.38055555555555554
0.00089197224975223,0.38055555555555554
0.00089197224975223,0.3819444444444444
0.00089197224975223,0.38819444444444445
0.0009084902543772713,0.38819444444444445
0.0009084902543772713,0.3888888888888889
0.0009250082590023125,0.3888888888888889
0.0009250082590023125,0.3923611111111111
0.0009250082590023125,0.39375
0.0009250082590023125,0.39791666666666664
0.0009580442682523951,0.39791666666666664
0.0009580442682523951,0.4041666666666667
0.0009745622728774364,0.4041666666666667
0.0009745622728774364,0.40625
0.0009910802775024777,0.40625
0.0009910802775024777,0.40902777777777777
0.001007598282127519,0.40902777777777777
0.001007598282127519,0.4125
0.0010241162867525603,0.4125
0.0010241162867525603,0.41388888888888886
0.001073670300627684,0.41388888888888886
0.001073670300627684,0.4166666666666667
0.0011067063098777667,0.4166666666666667
0.0011067063098777667,0.42083333333333334
0.001123224314502808,0.42083333333333334
0.001123224314502808,0.4215277777777778
0.0011397423191278494,0.4215277777777778
0.0011397423191278494,0.42291666666666666
0.0011892963330029733,0.42291666666666666
0.0011892963330029733,0.42916666666666664
0.0012223323422530558,0.42916666666666664
0.0012223323422530558,0.4305555555555556
0.001238850346878097,0.4305555555555556
0.001238850346878097,0.43125
0.0012718863561281797,0.43125
0.001288404360753221,0.43194444444444446
0.001288404360753221,0.4326388888888889
0.0013214403700033035,0.4326388888888889
0.0013214403700033035,0.4354166666666667
0.0013379583746283448,0.4354166666666667
0.0013379583746283448,0.4361111111111111
0.0013709943838784275,0.4361111111111111
0.0013709943838784275,0.4465277777777778
0.0013709943838784275,0.4479166666666667
0.0014040303931285101,0.4479166666666667
0.0014205483977535514,0.4479166666666667
0.0014205483977535514,0.4534722222222222
0.0014535844070036339,0.4534722222222222
0.0014535844070036339,0.45694444444444443
0.0014701024116286752,0.45694444444444443
0.0014701024116286752,0.4583333333333333
0.0014866204162537165,0.4583333333333333
0.0014866204162537165,0.46458333333333335
0.0015196564255037992,0.46458333333333335
0.0015196564255037992,0.4652777777777778
0.0015361744301288405,0.4652777777777778
0.0015361744301288405,0.46944444444444444
0.0015857284440039642,0.46944444444444444
0.0015857284440039642,0.47291666666666665
0.0016022464486290056,0.47291666666666665
0.0016022464486290056,0.4736111111111111
0.0016518004625041295,0.4736111111111111
0.0016518004625041295,0.47430555555555554
0.0016848364717542122,0.47430555555555554
0.0016848364717542122,0.47708333333333336
0.0017013544763792533,0.47708333333333336
0.0017013544763792533,0.4777777777777778
0.0017178724810042946,0.4777777777777778
0.0017178724810042946,0.4798611111111111
0.001734390485629336,0.4798611111111111
0.001734390485629336,0.4840277777777778
0.0017509084902543773,0.4840277777777778
0.0017509084902543773,0.48541666666666666
0.0017674264948794186,0.48541666666666666
0.0017674264948794186,0.4861111111111111
0.00178394449950446,0.4861111111111111
0.00178394449950446,0.48680555555555555
0.0018004625041295012,0.48680555555555555
0.0018004625041295012,0.4888888888888889
0.0018169805087545426,0.4888888888888889
0.0018169805087545426,0.4895833333333333
0.0018334985133795837,0.4895833333333333
0.0018334985133795837,0.4951388888888889
0.001850016518004625,0.4951388888888889
0.001850016518004625,0.49583333333333335
0.0018665345226296663,0.49583333333333335
0.0018665345226296663,0.4986111111111111
0.0018830525272547076,0.4986111111111111
0.0018830525272547076,0.5
0.0019160885365047903,0.5
0.0019160885365047903,0.5020833333333333
0.0019326065411298316,0.5020833333333333
0.0019326065411298316,0.5055555555555555
0.0019491245457548727,0.5055555555555555
0.0019491245457548727,0.5069444444444444
0.001965642550379914,0.5069444444444444
0.001965642550379914,0.5131944444444444
0.0019986785596299967,0.5131944444444444
0.0019986785596299967,0.5152777777777777
0.0020317145688800793,0.5152777777777777
0.0020317145688800793,0.5173611111111112
0.0020482325735051207,0.5173611111111112
0.0020482325735051207,0.5208333333333334
0.002064750578130162,0.5208333333333334
0.002064750578130162,0.5236111111111111
0.002064750578130162,0.525
0.002064750578130162,0.5263888888888889
0.002114304592005286,0.5263888888888889
0.002114304592005286,0.5277777777777778
0.0021308225966303273,0.5277777777777778
0.0021308225966303273,0.5291666666666667
0.002147340601255368,0.5291666666666667
0.002147340601255368,0.5305555555555556
0.002196894615130492,0.5305555555555556
0.002196894615130492,0.5326388888888889
0.0022134126197555335,0.5326388888888889
0.0022134126197555335,0.5333333333333333
0.0022794846382556988,0.5333333333333333
0.0022794846382556988,0.5340277777777778
0.0023125206475057814,0.5340277777777778
0.0023125206475057814,0.5347222222222222
0.002345556656755864,0.5347222222222222
0.002345556656755864,0.5361111111111111
0.0023620746613809054,0.5361111111111111
0.0023620746613809054,0.5375
0.0023785926660059467,0.5375
0.0023785926660059467,0.5381944444444444
0.0023951106706309876,0.5381944444444444
0.0023951106706309876,0.5395833333333333
0.002411628675256029,0.5395833333333333
0.002411628675256029,0.5402777777777777
0.0024281466798810702,0.5402777777777777
0.0024281466798810702,0.5430555555555555
0.0024446646845061116,0.5430555555555555
0.0024446646845061116,0.5479166666666667
0.002477700693756194,0.5479166666666667
0.002477700693756194,0.5513888888888889
0.0024942186983812355,0.5513888888888889
0.0024942186983812355,0.5520833333333334
0.002510736703006277,0.5520833333333334
0.002510736703006277,0.5548611111111111
0.0025437727122563595,0.5548611111111111
0.0025437727122563595,0.5569444444444445
0.0025933267261314835,0.5569444444444445
0.0025933267261314835,0.5631944444444444
0.002642880740006607,0.5631944444444444
0.002642880740006607,0.5652777777777778
0.0026593987446316483,0.5652777777777778
0.0026593987446316483,0.5659722222222222
0.0026593987446316483,0.5673611111111111
0.0026593987446316483,0.5680555555555555
0.0026759167492566896,0.5680555555555555
0.0026759167492566896,0.5722222222222222
0.0027585067723818963,0.5722222222222222
0.0027585067723818963,0.5763888888888888
0.0027750247770069376,0.5763888888888888
0.0027750247770069376,0.5770833333333333
0.002791542781631979,0.5770833333333333
0.002791542781631979,0.58125
0.0028080607862570202,0.58125
0.0028080607862570202,0.5826388888888889
0.0028080607862570202,0.5868055555555556
0.0028245787908820616,0.5868055555555556
0.0028245787908820616,0.5875
0.002841096795507103,0.5875
0.002841096795507103,0.5881944444444445
0.0028741328047571855,0.5881944444444445
0.0028741328047571855,0.5895833333333333
0.0028906508093822264,0.5895833333333333
0.0028906508093822264,0.5930555555555556
0.0029071688140072677,0.5930555555555556
0.0029071688140072677,0.59375
0.002973240832507433,0.59375
0.002973240832507433,0.5965277777777778
0.0029897588371324744,0.5965277777777778
0.0029897588371324744,0.5979166666666667
0.0030062768417575157,0.5979166666666667
0.0030062768417575157,0.6027777777777777
0.003022794846382557,0.6027777777777777
0.003022794846382557,0.6041666666666666
0.0030558308556326397,0.6041666666666666
0.0030558308556326397,0.6048611111111111
0.003072348860257681,0.6048611111111111
0.003072348860257681,0.60625
0.003121902874132805,0.60625
0.003121902874132805,0.6083333333333333
0.003138420878757846,0.6083333333333333
0.003138420878757846,0.6090277777777777
0.003154938883382887,0.6090277777777777
0.003154938883382887,0.6097222222222223
0.0031714568880079285,0.6097222222222223
0.0031714568880079285,0.6104166666666667
0.0032210109018830525,0.6104166666666667
0.0032210109018830525,0.6131944444444445
0.003237528906508094,0.6131944444444445
0.003237528906508094,0.6145833333333334
0.003254046911133135,0.6145833333333334
0.003254046911133135,0.6159722222222223
0.0032705649157581764,0.6159722222222223
0.0032705649157581764,0.6166666666666667
0.0032870829203832178,0.6166666666666667
0.0032870829203832178,0.61875
0.003303600925008259,0.61875
0.003303600925008259,0.6256944444444444
0.003353154938883383,0.6256944444444444
0.003353154938883383,0.6291666666666667
0.0033861909481334653,0.6291666666666667
0.0033861909481334653,0.63125
0.0034357449620085892,0.63125
0.0034357449620085892,0.6319444444444444
0.0034522629666336306,0.6319444444444444
0.0034522629666336306,0.6326388888888889
0.003534852989758837,0.6326388888888889
0.003534852989758837,0.6340277777777777
0.0035513709943838785,0.6340277777777777
0.0035513709943838785,0.6347222222222222
0.00356788899900892,0.6347222222222222
0.00356788899900892,0.6375
0.0036009250082590025,0.6375
0.0036009250082590025,0.6402777777777777
0.0036669970267591673,0.6402777777777777
0.0036669970267591673,0.6409722222222223
0.00370003303600925,0.6409722222222223
0.00370003303600925,0.6430555555555556
0.0037165510406342913,0.6430555555555556
0.0037165510406342913,0.64375
0.0037330690452593326,0.64375
0.0037330690452593326,0.6444444444444445
0.0038156590683845392,0.6444444444444445
0.0038156590683845392,0.6458333333333334
0.003848695077634622,0.6458333333333334
0.003848695077634622,0.6479166666666667
0.003865213082259663,0.6479166666666667
0.003865213082259663,0.6486111111111111
0.0038982490915097454,0.6486111111111111
0.0038982490915097454,0.6506944444444445
0.00394780310538487,0.6506944444444445
0.00394780310538487,0.6520833333333333
0.003964321110009911,0.6520833333333333
0.003964321110009911,0.6527777777777778
0.0039808391146349525,0.6527777777777778
0.0039808391146349525,0.6534722222222222
0.004030393128510076,0.6534722222222222
0.004030393128510076,0.6541666666666667
0.004046911133135117,0.6541666666666667
0.004046911133135117,0.65625
0.004063429137760159,0.65625
0.004063429137760159,0.6576388888888889
0.0040799471423851996,0.6576388888888889
0.0040799471423851996,0.6583333333333333
0.004112983151635282,0.6583333333333333
0.004112983151635282,0.6590277777777778
0.0041790551701354475,0.6590277777777778
0.0041790551701354475,0.6604166666666667
0.00421209117938553,0.6604166666666667
0.00421209117938553,0.6618055555555555
0.004245127188635613,0.6618055555555555
0.004245127188635613,0.6625
0.0042616451932606545,0.6625
0.0042616451932606545,0.6638888888888889
0.004311199207135778,0.6638888888888889
0.004311199207135778,0.6666666666666666
0.004327717211760819,0.6666666666666666
0.004327717211760819,0.6673611111111111
0.004360753221010902,0.6673611111111111
0.004360753221010902,0.6680555555555555
0.004393789230260984,0.6680555555555555
0.004393789230260984,0.6694444444444444
0.004443343244136109,0.6694444444444444
0.004443343244136109,0.6701388888888888
0.004492897258011232,0.6701388888888888
0.004492897258011232,0.6708333333333333
0.004542451271886356,0.6708333333333333
0.004542451271886356,0.6722222222222223
0.004608523290386521,0.6722222222222223
0.004608523290386521,0.6729166666666667
0.004641559299636604,0.6729166666666667
0.004641559299636604,0.675
0.004691113313511728,0.675
0.004691113313511728,0.6763888888888889
0.004707631318136769,0.6763888888888889
0.004707631318136769,0.6770833333333334
0.004757185332011893,0.6770833333333334
0.004757185332011893,0.6777777777777778
0.004773703336636934,0.6777777777777778
0.004773703336636934,0.6791666666666667
0.004806739345887017,0.6791666666666667
0.004806739345887017,0.6798611111111111
0.005004955401387513,0.6798611111111111
0.005004955401387513,0.6805555555555556
0.005021473406012554,0.6805555555555556
0.005021473406012554,0.68125
0.005054509415262636,0.68125
0.005054509415262636,0.6833333333333333
0.005071027419887677,0.6833333333333333
0.005071027419887677,0.6840277777777778
0.005087545424512719,0.6840277777777778
0.005087545424512719,0.6854166666666667
0.005120581433762802,0.6854166666666667
0.005120581433762802,0.6861111111111111
0.005153617443012884,0.6861111111111111
0.005153617443012884,0.6881944444444444
0.00521968946151305,0.6881944444444444
0.00521968946151305,0.6888888888888889
0.005269243475388173,0.6888888888888889
0.005269243475388173,0.6895833333333333
0.005285761480013214,0.6895833333333333
0.005285761480013214,0.6916666666666667
0.005318797489263297,0.6916666666666667
0.005318797489263297,0.6930555555555555
0.005335315493888338,0.6930555555555555
0.005335315493888338,0.69375
0.005401387512388504,0.69375
0.005401387512388504,0.6951388888888889
0.005401387512388504,0.6958333333333333
0.005417905517013545,0.6958333333333333
0.005417905517013545,0.6965277777777777
0.005450941526263627,0.6965277777777777
0.005450941526263627,0.6972222222222222
0.00548397753551371,0.6972222222222222
0.00548397753551371,0.6979166666666666
0.005500495540138752,0.6979166666666666
0.005500495540138752,0.6986111111111111
0.005566567558638916,0.6986111111111111
0.005566567558638916,0.7013888888888888
0.005583085563263958,0.7013888888888888
0.005583085563263958,0.7020833333333333
0.0056161215725140405,0.7020833333333333
0.0056161215725140405,0.7034722222222223
0.005682193591014206,0.7034722222222223
0.005682193591014206,0.7041666666666667
0.005731747604889329,0.7041666666666667
0.005731747604889329,0.7048611111111112
0.005764783614139412,0.7048611111111112
0.005764783614139412,0.70625
0.005781301618764453,0.70625
0.005781301618764453,0.7069444444444445
0.005830855632639577,0.7069444444444445
0.005830855632639577,0.7076388888888889
0.00586389164188966,0.7076388888888889
0.00586389164188966,0.7083333333333334
0.0058969276511397425,0.7083333333333334
0.0058969276511397425,0.7090277777777778
0.005929963660389825,0.7090277777777778
0.005929963660389825,0.7097222222222223
0.005979517674264949,0.7097222222222223
0.005979517674264949,0.7104166666666667
0.0059960356788899905,0.7104166666666667
0.0059960356788899905,0.7111111111111111
0.006012553683515031,0.7111111111111111
0.006012553683515031,0.7125
0.006029071688140072,0.7125
0.006029071688140072,0.7131944444444445
0.006062107697390155,0.7131944444444445
0.006062107697390155,0.7138888888888889
0.006144697720515362,0.7138888888888889
0.006144697720515362,0.7145833333333333
0.006177733729765445,0.7145833333333333
0.006177733729765445,0.7152777777777778
0.00624380574826561,0.7152777777777778
0.00624380574826561,0.7159722222222222
0.006276841757515692,0.7159722222222222
0.006276841757515692,0.7166666666666667
0.006359431780640899,0.7166666666666667
0.006359431780640899,0.7173611111111111
0.006392467789890981,0.7173611111111111
0.006392467789890981,0.7180555555555556
0.006442021803766105,0.7180555555555556
0.006442021803766105,0.71875
0.006475057813016188,0.71875
0.006475057813016188,0.7194444444444444
0.00650809382226627,0.7194444444444444
0.00650809382226627,0.7201388888888889
0.006557647836141394,0.7201388888888889
0.006557647836141394,0.7215277777777778
0.006590683845391476,0.7215277777777778
0.006590683845391476,0.7222222222222222
0.006623719854641559,0.7222222222222222
0.006656755863891642,0.7222222222222222
0.006689791873141724,0.7222222222222222
0.006689791873141724,0.7236111111111111
0.006821935910142055,0.7236111111111111
0.006821935910142055,0.7243055555555555
0.006854971919392138,0.7243055555555555
0.006854971919392138,0.7256944444444444
0.006904525933267261,0.7256944444444444
0.006904525933267261,0.7263888888888889
0.006921043937892303,0.7263888888888889
0.006921043937892303,0.7270833333333333
0.0069540799471423855,0.7270833333333333
0.0069540799471423855,0.7277777777777777
0.006987115956392468,0.7277777777777777
0.006987115956392468,0.7291666666666666
0.007003633961017509,0.7291666666666666
0.007003633961017509,0.7298611111111111
0.007036669970267592,0.7298611111111111
0.007036669970267592,0.7305555555555555
0.007102741988767757,0.7305555555555555
0.007102741988767757,0.73125
0.007201850016518005,0.73125
0.007201850016518005,0.7319444444444444
0.007218368021143046,0.7319444444444444
0.007218368021143046,0.7326388888888888
0.007300958044268252,0.7326388888888888
0.007300958044268252,0.7333333333333333
0.007317476048893294,0.7333333333333333
0.007317476048893294,0.7340277777777777
0.007333994053518335,0.7340277777777777
0.007333994053518335,0.7347222222222223
0.007383548067393459,0.7347222222222223
0.007383548067393459,0.7361111111111112
0.007433102081268583,0.7361111111111112
0.007433102081268583,0.7368055555555556
0.007449620085893624,0.7368055555555556
0.007449620085893624,0.7395833333333334
0.007697390155269244,0.7395833333333334
0.007697390155269244,0.7402777777777778
0.007730426164519326,0.7402777777777778
0.007730426164519326,0.7409722222222223
0.007763462173769409,0.7409722222222223
0.007763462173769409,0.7423611111111111
0.007829534192269574,0.7423611111111111
0.007829534192269574,0.74375
0.00791212421539478,0.74375
0.00791212421539478,0.7451388888888889
0.008011232243145028,0.7451388888888889
0.008011232243145028,0.7458333333333333
0.008259002312520648,0.7458333333333333
0.008259002312520648,0.7465277777777778
0.008391146349520979,0.7465277777777778
0.00842418235877106,0.7465277777777778
0.00842418235877106,0.7479166666666667
0.008490254377271226,0.7479166666666667
0.008490254377271226,0.7493055555555556
0.008506772381896267,0.75
0.008506772381896267,0.7513888888888889
0.008523290386521309,0.7513888888888889
0.008523290386521309,0.7527777777777778
0.008589362405021473,0.7527777777777778
0.008589362405021473,0.7548611111111111
0.008605880409646514,0.7548611111111111
0.008605880409646514,0.75625
0.008738024446646845,0.75625
0.008738024446646845,0.7569444444444444
0.008771060455896929,0.7569444444444444
0.008771060455896929,0.7583333333333333
0.008853650479022134,0.7583333333333333
0.008853650479022134,0.7590277777777777
0.008919722497522299,0.7590277777777777
0.008919722497522299,0.7597222222222222
0.009018830525272548,0.7597222222222222
0.009018830525272548,0.7631944444444444
0.009283118599273207,0.7631944444444444
0.009283118599273207,0.7638888888888888
0.009365708622398414,0.7638888888888888
0.009365708622398414,0.7645833333333333
0.00943178064089858,0.7645833333333333
0.00943178064089858,0.7666666666666667
0.009497852659398745,0.7666666666666667
0.009497852659398745,0.7680555555555556
0.009646514701024116,0.7680555555555556
0.009646514701024116,0.7694444444444445
0.009663032705649157,0.7694444444444445
0.009663032705649157,0.7715277777777778
0.009696068714899241,0.7715277777777778
0.009696068714899241,0.7722222222222223
0.009729104724149323,0.7722222222222223
0.009729104724149323,0.7736111111111111
0.00981169474727453,0.7736111111111111
0.00981169474727453,0.7743055555555556
0.00982821275189957,0.7743055555555556
0.00982821275189957,0.775
0.009894284770399735,0.775
0.009894284770399735,0.7756944444444445
0.009927320779649819,0.7756944444444445
0.009927320779649819,0.7763888888888889
0.009976874793524942,0.7763888888888889
0.009976874793524942,0.7777777777777778
0.010026428807400066,0.7777777777777778
0.010026428807400066,0.7784722222222222
0.01034027089527585,0.7784722222222222
0.01034027089527585,0.7791666666666667
0.010406342913776016,0.7791666666666667
0.010406342913776016,0.78125
0.01045589692765114,0.78125
0.01045589692765114,0.7819444444444444
0.010538486950776346,0.7819444444444444
0.010538486950776346,0.7826388888888889
0.010555004955401388,0.7826388888888889
0.010555004955401388,0.7833333333333333
0.010637594978526593,0.7833333333333333
0.010637594978526593,0.7840277777777778
0.010670630987776677,0.7840277777777778
0.010670630987776677,0.7847222222222222
0.010868847043277173,0.7847222222222222
0.010868847043277173,0.7861111111111111
0.010934919061777338,0.7861111111111111
0.010934919061777338,0.7868055555555555
0.010984473075652462,0.7868055555555555
0.010984473075652462,0.7875
0.011034027089527585,0.7875
0.011034027089527585,0.7881944444444444
0.011166171126527916,0.7881944444444444
0.011166171126527916,0.7888888888888889
0.011380905186653452,0.7888888888888889
0.011380905186653452,0.7895833333333333
0.011397423191278493,0.7895833333333333
0.011430459200528577,0.7895833333333333
0.0114800132144037,0.7895833333333333
0.0114800132144037,0.7902777777777777
0.011645193260654113,0.7902777777777777
0.011645193260654113,0.7909722222222222
0.011892963330029732,0.7909722222222222
0.011892963330029732,0.7916666666666666
0.011942517343904856,0.7916666666666666
0.011942517343904856,0.7923611111111111
0.012008589362405021,0.7923611111111111
0.012008589362405021,0.7930555555555555
0.012041625371655105,0.7930555555555555
0.012041625371655105,0.7965277777777777
0.012206805417905517,0.7965277777777777
0.012206805417905517,0.7979166666666667
0.0122398414271556,0.7979166666666667
0.0122398414271556,0.7993055555555556
0.01225635943178064,0.7993055555555556
0.01225635943178064,0.8
0.01263627353815659,0.8
0.01263627353815659,0.8013888888888889
0.012652791542781632,0.8013888888888889
0.012652791542781632,0.8020833333333334
0.012966633630657417,0.8020833333333334
0.012966633630657417,0.8027777777777778
0.013098777667657747,0.8027777777777778
0.013098777667657747,0.8034722222222223
0.013247439709283118,0.8034722222222223
0.013247439709283118,0.8041666666666667
0.013346547737033367,0.8041666666666667
0.013346547737033367,0.8048611111111111
0.013379583746283449,0.8048611111111111
0.013379583746283449,0.80625
0.013577799801783945,0.80625
0.013577799801783945,0.8069444444444445
0.013676907829534192,0.8069444444444445
0.013676907829534192,0.8076388888888889
0.013709943838784275,0.8076388888888889
0.013709943838784275,0.8083333333333333
0.01377601585728444,0.8083333333333333
0.01377601585728444,0.8090277777777778
0.013924677898909811,0.8090277777777778
0.013924677898909811,0.8097222222222222
0.013990749917409976,0.8097222222222222
0.013990749917409976,0.8111111111111111
0.014205483977535514,0.8111111111111111
0.014238519986785596,0.8111111111111111
0.014238519986785596,0.8118055555555556
0.014453254046911133,0.8118055555555556
0.014453254046911133,0.8125
0.014568880079286422,0.8125
0.014568880079286422,0.8131944444444444
0.014734060125536835,0.8131944444444444
0.014734060125536835,0.8138888888888889
0.014833168153287083,0.8138888888888889
0.014833168153287083,0.8152777777777778
0.014849686157912123,0.8152777777777778
0.014849686157912123,0.8159722222222222
0.014915758176412289,0.8159722222222222
0.014915758176412289,0.8173611111111111
0.014998348199537496,0.8173611111111111
0.014998348199537496,0.8180555555555555
0.015246118268913115,0.8180555555555555
0.015246118268913115,0.81875
0.015262636273538157,0.81875
0.015262636273538157,0.8194444444444444
0.01531219028741328,0.8194444444444444
0.01531219028741328,0.8201388888888889
0.015477370333663693,0.8201388888888889
0.015477370333663693,0.8208333333333333
0.015576478361413942,0.8208333333333333
0.015576478361413942,0.8215277777777777
0.015626032375289065,0.8215277777777777
0.015626032375289065,0.8222222222222222
0.01565906838453915,0.8222222222222222
0.01565906838453915,0.8229166666666666
0.01567558638916419,0.8229166666666666
0.01567558638916419,0.8236111111111111
0.01580773042616452,0.8236111111111111
0.01580773042616452,0.8243055555555555
0.016402378592666005,0.8243055555555555
0.016402378592666005,0.825
0.01669970267591675,0.825
0.01669970267591675,0.8256944444444444
0.01686488272216716,0.8256944444444444
0.01686488272216716,0.8263888888888888
0.01699702675916749,0.8263888888888888
0.01699702675916749,0.8270833333333333
0.017112652791542782,0.8270833333333333
0.017145688800792865,0.8270833333333333
0.01719524281466799,0.8270833333333333
0.01719524281466799,0.8277777777777777
0.017393458870168483,0.8277777777777777
0.017393458870168483,0.8284722222222223
0.017426494879418566,0.8284722222222223
0.017426494879418566,0.8291666666666667
0.01749256689791873,0.8291666666666667
0.01749256689791873,0.8298611111111112
0.01759167492566898,0.8298611111111112
0.01762471093491906,0.8298611111111112
0.017641228939544104,0.8298611111111112
0.017641228939544104,0.8305555555555556
0.017657746944169144,0.8305555555555556
0.017657746944169144,0.83125
0.017674264948794184,0.83125
0.017674264948794184,0.8319444444444445
0.017855962999669638,0.8319444444444445
0.017855962999669638,0.8326388888888889
0.018169805087545423,0.8326388888888889
0.018169805087545423,0.8333333333333334
0.01836802114304592,0.8333333333333334
0.01836802114304592,0.8340277777777778
0.018467129170796168,0.8340277777777778
0.018467129170796168,0.8347222222222223
0.01851668318467129,0.8347222222222223
0.01851668318467129,0.8361111111111111
0.01871489924017179,0.8361111111111111
0.01871489924017179,0.8368055555555556
0.018764453254046912,0.8368055555555556
0.018764453254046912,0.8381944444444445
0.018847043277172116,0.8381944444444445
0.018847043277172116,0.8388888888888889
0.01886356128179716,0.8388888888888889
0.01886356128179716,0.8395833333333333
0.019342583415923355,0.8395833333333333
0.019342583415923355,0.8402777777777778
0.019590353485298976,0.8402777777777778
0.019590353485298976,0.8409722222222222
0.019606871489924016,0.8409722222222222
0.019606871489924016,0.8416666666666667
0.019722497522299307,0.8416666666666667
0.019722497522299307,0.8423611111111111
0.01977205153617443,0.8423611111111111
0.01977205153617443,0.8430555555555556
0.019854641559299637,0.8430555555555556
0.019854641559299637,0.84375
0.020333663693425832,0.84375
0.020333663693425832,0.8444444444444444
0.020482325735051207,0.8444444444444444
0.020482325735051207,0.8451388888888889
0.020779649818301948,0.8451388888888889
0.020779649818301948,0.8458333333333333
0.021225635943178063,0.8458333333333333
0.021225635943178063,0.8465277777777778
0.021638586058804095,0.8465277777777778
0.021638586058804095,0.8486111111111111
0.021886356128179716,0.8486111111111111
0.0219193921374298,0.8486111111111111
0.02195242814667988,0.8486111111111111
0.02195242814667988,0.8493055555555555
0.021985464155929963,0.8493055555555555
0.021985464155929963,0.85
0.022001982160555007,0.85
0.022035018169805087,0.85
0.02206805417905517,0.85
0.02206805417905517,0.8506944444444444
0.02234886025768087,0.8506944444444444
0.02234886025768087,0.8513888888888889
0.02254707631318137,0.8513888888888889
0.02254707631318137,0.8520833333333333
0.02269573835480674,0.8520833333333333
0.02269573835480674,0.8527777777777777
0.02284440039643211,0.8527777777777777
0.02284440039643211,0.8541666666666666
0.023026098447307564,0.8541666666666666
0.023026098447307564,0.8548611111111111
0.023422530558308556,0.8548611111111111
0.023422530558308556,0.8555555555555555
0.023686818632309217,0.8555555555555555
0.023686818632309217,0.85625
0.02411628675256029,0.85625
0.02411628675256029,0.8569444444444444
0.024132804757185333,0.8569444444444444
0.024132804757185333,0.8576388888888888
0.024149322761810373,0.8576388888888888
0.024149322761810373,0.8583333333333333
0.024165840766435416,0.8583333333333333
0.024198876775685496,0.8583333333333333
0.02421539478031054,0.8583333333333333
0.02421539478031054,0.8597222222222223
0.024314502808060787,0.8597222222222223
0.024314502808060787,0.8604166666666667
0.02449620085893624,0.8604166666666667
0.02449620085893624,0.8611111111111112
0.024595308886686488,0.8611111111111112
0.024595308886686488,0.8618055555555556
0.02462834489593657,0.8618055555555556
0.02462834489593657,0.8625
0.02484307895606211,0.8625
0.02484307895606211,0.8631944444444445
0.02499174099768748,0.8631944444444445
0.02499174099768748,0.8645833333333334
0.025173439048562934,0.8645833333333334
0.025173439048562934,0.8652777777777778
0.025569871159563926,0.8652777777777778
0.025569871159563926,0.8659722222222223
0.025801123224314503,0.8659722222222223
0.025801123224314503,0.8666666666666667
0.025834159233564587,0.8666666666666667
0.025834159233564587,0.8673611111111111
0.02616451932606541,0.8673611111111111
0.02616451932606541,0.8680555555555556
0.026280145358440702,0.8680555555555556
0.026313181367690782,0.8680555555555556
0.02677568549719194,0.8680555555555556
0.02677568549719194,0.86875
0.026858275520317144,0.86875
0.026858275520317144,0.8694444444444445
0.02702345556656756,0.8694444444444445
0.02702345556656756,0.8701388888888889
0.02717211760819293,0.8701388888888889
0.027205153617443013,0.8701388888888889
0.027238189626693096,0.8701388888888889
0.027238189626693096,0.8708333333333333
0.027502477700693757,0.8708333333333333
0.027502477700693757,0.8715277777777778
0.02776676577469442,0.8715277777777778
0.0277998017839445,0.8715277777777778
0.02806408985794516,0.8715277777777778
0.02806408985794516,0.8722222222222222
0.028113643871820283,0.8722222222222222
0.028113643871820283,0.8729166666666667
0.028427485959696068,0.8729166666666667
0.028427485959696068,0.8736111111111111
0.028741328047571853,0.8736111111111111
0.028741328047571853,0.8743055555555556
0.02897258011232243,0.8743055555555556
0.029005616121572514,0.8743055555555556
0.029005616121572514,0.875
0.029038652130822597,0.875
0.029038652130822597,0.8756944444444444
0.02923686818632309,0.8756944444444444
0.02923686818632309,0.8763888888888889
0.02943508424182359,0.8763888888888889
0.02943508424182359,0.8777777777777778
0.029633300297324083,0.8777777777777778
0.029633300297324083,0.8784722222222222
0.030112322431450282,0.8784722222222222
0.030145358440700362,0.8784722222222222
0.031863230921704656,0.8784722222222222
0.031863230921704656,0.8791666666666667
0.03197885695407995,0.8791666666666667
0.03201189296333003,0.8791666666666667
0.03202841096795507,0.8791666666666667
0.03202841096795507,0.8798611111111111
0.032457879088206146,0.8798611111111111
0.032457879088206146,0.8805555555555555
0.033382887347208456,0.8805555555555555
0.033382887347208456,0.8819444444444444
0.03351503138420879,0.8819444444444444
0.03351503138420879,0.8826388888888889
0.033597621407333994,0.8826388888888889
0.033597621407333994,0.8833333333333333
0.03381235546745953,0.8833333333333333
0.03381235546745953,0.8840277777777777
0.03384539147670961,0.8840277777777777
0.03392798149983482,0.8840277777777777
0.03392798149983482,0.8847222222222222
0.03432441361083581,0.8847222222222222
0.03435744962008589,0.8847222222222222
0.034489593657086225,0.8847222222222222
0.034489593657086225,0.8854166666666666
0.03480343574496201,0.8854166666666666
0.03480343574496201,0.8861111111111111
0.03495209778658738,0.8861111111111111
0.03498513379583746,0.8861111111111111
0.035199867855963,0.8861111111111111
0.035199867855963,0.8868055555555555
0.035711925999339277,0.8868055555555555
0.035711925999339277,0.8875
0.035777998017839444,0.8875
0.035777998017839444,0.8881944444444444
0.03591014205483978,0.8881944444444444
0.03591014205483978,0.8888888888888888
0.035926660059464814,0.8888888888888888
0.035926660059464814,0.8895833333333333
0.03640568219359101,0.8895833333333333
0.03640568219359101,0.8902777777777777
0.03673604228609184,0.8902777777777777
0.03673604228609184,0.8909722222222223
0.03772712256359432,0.8909722222222223
0.03772712256359432,0.8916666666666667
0.03795837462834489,0.8916666666666667
0.03795837462834489,0.8923611111111112
0.03799141063759498,0.8923611111111112
0.03891641889659729,0.8923611111111112
0.03891641889659729,0.8930555555555556
0.039378923026098446,0.8930555555555556
0.039378923026098446,0.89375
0.0402378592666006,0.89375
0.04027089527585068,0.89375
0.040370003303600924,0.89375
0.040370003303600924,0.8944444444444445
0.04099768747935249,0.8944444444444445
0.04103072348860258,0.8944444444444445
0.041080277502477704,0.8944444444444445
0.041080277502477704,0.8951388888888889
0.041295011562603234,0.8951388888888889
0.041295011562603234,0.8958333333333334
0.041922695738354804,0.8958333333333334
0.04195573174760489,0.8958333333333334
0.04253386190948134,0.8958333333333334
0.04253386190948134,0.8965277777777778
0.04255037991410637,0.8965277777777778
0.04255037991410637,0.8972222222222223
0.04297984803435745,0.8972222222222223
0.04297984803435745,0.8979166666666667
0.04317806408985794,0.8979166666666667
0.04321110009910803,0.8979166666666667
0.04347538817310869,0.8979166666666667
0.04350842418235877,0.8979166666666667
0.043591014205483974,0.8979166666666667
0.043591014205483974,0.8986111111111111
0.0438387842748596,0.8986111111111111
0.0438387842748596,0.8993055555555556
0.043970928311859926,0.8993055555555556
0.043970928311859926,0.9006944444444445
0.04410307234886026,0.9006944444444445
0.04410307234886026,0.9013888888888889
0.04423521638586059,0.9013888888888889
0.04423521638586059,0.9020833333333333
0.04426825239511067,0.9020833333333333
0.04426825239511067,0.9027777777777778
0.04473075652461183,0.9027777777777778
0.04476379253386191,0.9027777777777778
0.04481334654773703,0.9027777777777778
0.04484638255698711,0.9027777777777778
0.04542451271886356,0.9027777777777778
0.04542451271886356,0.9034722222222222
0.0454410307234886,0.9034722222222222
0.0454410307234886,0.9041666666666667
0.04555665675586389,0.9041666666666667
0.04555665675586389,0.9048611111111111
0.045820944829864554,0.9048611111111111
0.045887016848364715,0.9048611111111111
0.04590353485298976,0.9048611111111111
0.04590353485298976,0.9055555555555556
0.046002642880740005,0.9055555555555556
0.046002642880740005,0.90625
0.04720845721836802,0.90625
0.0472414932276181,0.90625
0.047522299306243805,0.90625
0.047522299306243805,0.9069444444444444
0.048116947472745294,0.9069444444444444
0.048116947472745294,0.9076388888888889
0.048447307565246116,0.9076388888888889
0.048447307565246116,0.9083333333333333
0.04890981169474727,0.9083333333333333
0.04890981169474727,0.9090277777777778
0.04925668979187314,0.9090277777777778
0.04928972580112322,0.9090277777777778
0.04960356788899901,0.9090277777777778
0.049636603898249095,0.9090277777777778
0.049669639907499175,0.9090277777777778
0.049669639907499175,0.9097222222222222
0.049702675916749255,0.9097222222222222
0.049702675916749255,0.9104166666666667
0.050115626032375286,0.9104166666666667
0.050115626032375286,0.9111111111111111
0.0502808060786257,0.9111111111111111
0.0502808060786257,0.9118055555555555
0.050479022134126195,0.9118055555555555
0.050479022134126195,0.9125
0.0508424182358771,0.9125
0.05087545424512719,0.9125
0.051073670300627684,0.9125
0.051106706309877764,0.9125
0.051106706309877764,0.9131944444444444
0.051370994383878425,0.9131944444444444
0.051370994383878425,0.9145833333333333
0.05143706640237859,0.9145833333333333
0.05147010241162867,0.9145833333333333
0.051569210439378926,0.9145833333333333
0.051569210439378926,0.9152777777777777
0.0517178724810043,0.9152777777777777
0.05175090849025438,0.9152777777777777
0.051965642550379915,0.9152777777777777
0.051965642550379915,0.9159722222222222
0.052081268582755205,0.9159722222222222
0.052081268582755205,0.9166666666666666
0.052708952758506775,0.9166666666666666
0.052708952758506775,0.9173611111111111
0.05394780310538487,0.9173611111111111
0.05398083911463495,0.9173611111111111
0.05398083911463495,0.9180555555555555
0.05419557317476049,0.9180555555555555
0.054228609184010575,0.9180555555555555
0.05498843739676247,0.9180555555555555
0.05498843739676247,0.91875
0.05502147340601255,0.91875
0.05502147340601255,0.9194444444444444
0.05513709943838784,0.9194444444444444
0.05517013544763792,0.9194444444444444
0.05517013544763792,0.9201388888888888
0.05553353154938884,0.9201388888888888
0.05553353154938884,0.9208333333333333
0.05624380574826561,0.9208333333333333
0.05624380574826561,0.9215277777777777
0.056293359762140734,0.9215277777777777
0.056326395771390814,0.9215277777777777
0.05688800792864222,0.9215277777777777
0.05688800792864222,0.9222222222222223
0.057333994053518335,0.9222222222222223
0.05735051205814338,0.9229166666666667
0.05769739015526924,0.9229166666666667
0.05769739015526924,0.9236111111111112
0.06004294681202511,0.9236111111111112
0.06004294681202511,0.9243055555555556
0.06068714899240172,0.9243055555555556
0.0607201850016518,0.9243055555555556
0.06098447307565246,0.9243055555555556
0.06098447307565246,0.925
0.06105054509415263,0.925
0.06105054509415263,0.9256944444444445
0.06146349520977866,0.9256944444444445
0.06146349520977866,0.9263888888888889
0.06171126527915428,0.9263888888888889
0.06171126527915428,0.9270833333333334
0.06228939544103072,0.9270833333333334
0.06228939544103072,0.9284722222222223
0.06255368351503138,0.9284722222222223
0.06255368351503138,0.9291666666666667
0.06258671952428146,0.9291666666666667
0.06258671952428146,0.9298611111111111
0.06333002973240832,0.9298611111111111
0.06333002973240832,0.9305555555555556
0.0645193260654113,0.9305555555555556
0.06455236207466138,0.9305555555555556
0.06501486620416254,0.9305555555555556
0.06501486620416254,0.93125
0.06511397423191279,0.93125
0.06514701024116287,0.93125
0.06526263627353816,0.93125
0.06526263627353816,0.9319444444444445
0.06635282457879088,0.9319444444444445
0.06635282457879088,0.9326388888888889
0.06640237859266601,0.9326388888888889
0.06643541460191608,0.9326388888888889
0.06668318467129171,0.9326388888888889
0.0667162206805418,0.9326388888888889
0.06774033696729435,0.9326388888888889
0.06777337297654443,0.9326388888888889
0.0680376610505451,0.9326388888888889
0.0680376610505451,0.9333333333333333
0.06940865543442352,0.9333333333333333
0.0694416914436736,0.9333333333333333
0.07111000991080277,0.9333333333333333
0.07111000991080277,0.9340277777777778
0.07213412619755534,0.9340277777777778
0.07213412619755534,0.9347222222222222
0.07233234225305583,0.9347222222222222
0.07233234225305583,0.9354166666666667
0.07284440039643211,0.9354166666666667
0.0728774364056822,0.9354166666666667
0.07291047241493227,0.9354166666666667
0.07291047241493227,0.9361111111111111
0.0730756524611827,0.9361111111111111
0.0730756524611827,0.9368055555555556
0.07337297654443344,0.9368055555555556
0.07340601255368351,0.9368055555555556
0.07375289065080938,0.9368055555555556
0.07375289065080938,0.9375
0.07434753881731086,0.9375
0.07434753881731086,0.9381944444444444
0.07576808721506442,0.9381944444444444
0.07576808721506442,0.9388888888888889
0.07677568549719194,0.9388888888888889
0.07677568549719194,0.9395833333333333
0.07811364387182028,0.9395833333333333
0.07811364387182028,0.9402777777777778
0.07986455236207467,0.9402777777777778
0.07986455236207467,0.9409722222222222
0.08105384869507763,0.9409722222222222
0.08105384869507763,0.9416666666666667
0.08118599273207797,0.9416666666666667
0.08118599273207797,0.9423611111111111
0.08207796498183019,0.9423611111111111
0.08207796498183019,0.9430555555555555
0.08245787908820615,0.9430555555555555
0.08245787908820615,0.94375
0.08285431119920714,0.94375
0.08285431119920714,0.9444444444444444
0.08320118929633301,0.9444444444444444
0.08320118929633301,0.9451388888888889
0.0844400396432111,0.9451388888888889
0.0844400396432111,0.9458333333333333
0.08475388173108689,0.9458333333333333
0.08475388173108689,0.9465277777777777
0.08477039973571193,0.9465277777777777
0.08477039973571193,0.9472222222222222
0.08714899240171788,0.9472222222222222
0.08714899240171788,0.9479166666666666
0.0872811364387182,0.9479166666666666
0.08731417244796828,0.9479166666666666
0.08744631648496862,0.9479166666666666
0.08744631648496862,0.9486111111111111
0.08845391476709613,0.9486111111111111
0.08848695077634622,0.9486111111111111
0.0887182028410968,0.9486111111111111
0.0887182028410968,0.9493055555555555
0.09051866534522629,0.9493055555555555
0.09055170135447638,0.9493055555555555
0.09060125536835151,0.9493055555555555
0.09060125536835151,0.95
0.09111331351172779,0.95
0.09111331351172779,0.9506944444444444
0.09165840766435415,0.9506944444444444
0.09169144367360423,0.9506944444444444
0.09215394780310539,0.9506944444444444
0.09215394780310539,0.9513888888888888
0.09235216385860588,0.9513888888888888
0.09235216385860588,0.9520833333333333
0.09261645193260654,0.9520833333333333
0.09261645193260654,0.9527777777777777
0.09289725801123225,0.9527777777777777
0.09293029402048232,0.9527777777777777
0.0931615460852329,0.9527777777777777
0.0931615460852329,0.9534722222222223
0.09492897258011232,0.9534722222222223
0.09492897258011232,0.9541666666666667
0.09570531879748927,0.9541666666666667
0.09570531879748927,0.9548611111111112
0.09600264288074001,0.9548611111111112
0.0960356788899901,0.9548611111111112
0.09606871489924017,0.9548611111111112
0.09606871489924017,0.9555555555555556
0.09750578130161877,0.9555555555555556
0.09750578130161877,0.95625
0.09786917740336967,0.95625
0.09786917740336967,0.9569444444444445
0.09796828543111992,0.9569444444444445
0.09800132144037,0.9569444444444445
0.09866204162537165,0.9569444444444445
0.09869507763462174,0.9569444444444445
0.09966963990749918,0.9569444444444445
0.09966963990749918,0.9576388888888889
0.10009910802775025,0.9576388888888889
0.10009910802775025,0.9583333333333334
0.10318797489263297,0.9583333333333334
0.10318797489263297,0.9590277777777778
0.1034357449620086,0.9590277777777778
0.10346878097125867,0.9590277777777778
0.10437727122563595,0.9590277777777778
0.10441030723488602,0.9590277777777778
0.1054013875123885,0.9590277777777778
0.10543442352163859,0.9590277777777778
0.10599603567888999,0.9590277777777778
0.10599603567888999,0.9604166666666667
0.10837462834489593,0.9604166666666667
0.10840766435414602,0.9604166666666667
0.10858936240502147,0.9604166666666667
0.10858936240502147,0.9611111111111111
0.1089197224975223,0.9611111111111111
0.10895275850677238,0.9611111111111111
0.11009250082590023,0.9611111111111111
0.11012553683515032,0.9611111111111111
0.11057152296002642,0.9611111111111111
0.11057152296002642,0.9618055555555556
0.1107201850016518,0.9618055555555556
0.1107201850016518,0.9625
0.11361083581103402,0.9625
0.11364387182028411,0.9625
0.11651800462504129,0.9625
0.11651800462504129,0.9631944444444445
0.12091179385530228,0.9631944444444445
0.12094482986455236,0.9631944444444445
0.12137429798480344,0.9631944444444445
0.12137429798480344,0.9638888888888889
0.12165510406342914,0.9638888888888889
0.12168814007267922,0.9638888888888889
0.1225635943178064,0.9638888888888889
0.12258011232243145,0.9645833333333333
0.12502477700693757,0.9645833333333333
0.12505781301618765,0.9645833333333333
0.12634621737694088,0.9645833333333333
0.12634621737694088,0.9652777777777778
0.1298810703666997,0.9652777777777778
0.12991410637594977,0.9652777777777778
0.13019491245457548,0.9652777777777778
0.13022794846382557,0.9652777777777778
0.13024446646845061,0.9652777777777778
0.1302775024777007,0.9652777777777778
0.13075652461182688,0.9652777777777778
0.13075652461182688,0.9659722222222222
0.13145028080607862,0.9659722222222222
0.1314833168153287,0.9659722222222222
0.1315163528245788,0.9659722222222222
0.13154938883382888,0.9659722222222222
0.13166501486620416,0.9659722222222222
0.13169805087545425,0.9659722222222222
0.13179715890320448,0.9659722222222222
0.13183019491245457,0.9659722222222222
0.13326726131483316,0.9659722222222222
0.13330029732408324,0.9659722222222222
0.13581103402708952,0.9659722222222222
0.13581103402708952,0.9666666666666667
0.13704988437396762,0.9666666666666667
0.13704988437396762,0.9673611111111111
0.140799471423852,0.9673611111111111
0.14083250743310208,0.9673611111111111
0.14116286752560292,0.9673611111111111
0.14119590353485298,0.9673611111111111
0.14165840766435414,0.9673611111111111
0.14169144367360423,0.9673611111111111
0.14238519986785597,0.9673611111111111
0.14238519986785597,0.9680555555555556
0.1439213742979848,0.9680555555555556
0.1439213742979848,0.96875
0.1458374628344896,0.96875
0.14587049884373968,0.96875
0.14618434093161545,0.96875
0.14621737694086553,0.96875
0.14626693095474066,0.96875
0.14629996696399075,0.96875
0.1465972910472415,0.96875
0.1465972910472415,0.9694444444444444
0.14712586719524282,0.9694444444444444
0.14712586719524282,0.9701388888888889
0.14862900561612158,0.9701388888888889
0.14866204162537167,0.9701388888888889
0.1486785596299967,0.9701388888888889
0.14871159563924677,0.9701388888888889
0.15226296663363065,0.9701388888888889
0.15229600264288073,0.9701388888888889
0.1525602907168814,0.9701388888888889
0.1525933267261315,0.9701388888888889
0.15450941526263628,0.9701388888888889
0.15450941526263628,0.9708333333333333
0.15574826560951438,0.9708333333333333
0.15574826560951438,0.9715277777777778
0.15710274198876775,0.9715277777777778
0.15710274198876775,0.9722222222222222
0.15999339279814997,0.9722222222222222
0.16002642880740006,0.9722222222222222
0.1606375949785266,0.9722222222222222
0.16067063098777667,0.9722222222222222
0.1618434093161546,0.9722222222222222
0.1618434093161546,0.9729166666666667
0.16402378592666006,0.9729166666666667
0.1640403039312851,0.9736111111111111
0.16408985794516023,0.9736111111111111
0.16412289395441032,0.9736111111111111
0.1648827221671622,0.9736111111111111
0.1649157581764123,0.9736111111111111
0.16570862239841427,0.9736111111111111
0.16570862239841427,0.9743055555555555
0.16740997687479353,0.9743055555555555
0.16747604889329368,0.9743055555555555
0.1677568549719194,0.9743055555555555
0.16778989098116948,0.9743055555555555
0.1689296333002973,0.9743055555555555
0.16894615130492235,0.975
0.16921043937892302,0.975
0.16921043937892302,0.9756944444444444
0.16930954740667328,0.9756944444444444
0.16934258341592337,0.9756944444444444
0.16955731747604888,0.9756944444444444
0.16955731747604888,0.9763888888888889
0.17010241162867526,0.9763888888888889
0.17010241162867526,0.9770833333333333
0.17229930624380574,0.9770833333333333
0.17233234225305583,0.9770833333333333
0.1725635943178064,0.9770833333333333
0.1725966303270565,0.9770833333333333
0.17329038652130824,0.9770833333333333
0.17329038652130824,0.9777777777777777
0.17443012884043607,0.9777777777777777
0.17446316484968616,0.9777777777777777
0.1758837132474397,0.9777777777777777
0.1759167492566898,0.9777777777777777
0.1764453254046911,0.9777777777777777
0.1764783614139412,0.9777777777777777
0.17730426164519325,0.9777777777777777
0.17733729765444334,0.9777777777777777
0.18166501486620415,0.9777777777777777
0.18169805087545424,0.9777777777777777
0.18219359101420549,0.9777777777777777
0.18222662702345557,0.9777777777777777
0.1825569871159564,0.9777777777777777
0.18259002312520647,0.9777777777777777
0.1840436075322101,0.9777777777777777
0.1840766435414602,0.9777777777777777
0.18422530558308556,0.9777777777777777
0.18422530558308556,0.9784722222222222
0.18450611166171127,0.9784722222222222
0.18450611166171127,0.9791666666666666
0.1846382556987116,0.9791666666666666
0.18467129170796168,0.9791666666666666
0.18534852989758838,0.9791666666666666
0.18538156590683846,0.9791666666666666
0.18701684836471755,0.9791666666666666
0.18704988437396763,0.9791666666666666
0.18814007267922034,0.9791666666666666
0.18817310868847043,0.9791666666666666
0.18934588701684837,0.9791666666666666
0.18937892302609843,0.9791666666666666
0.1898083911463495,0.9791666666666666
0.1898083911463495,0.9805555555555555
0.19073339940535183,0.9805555555555555
0.19076643541460192,0.9805555555555555
0.19086554344235215,0.9805555555555555
0.19089857945160224,0.9805555555555555
0.19134456557647836,0.9805555555555555
0.19137760158572845,0.9805555555555555
0.19222001982160555,0.9805555555555555
0.19225305583085564,0.9805555555555555
0.1938387842748596,0.9805555555555555
0.19387182028410968,0.9805555555555555
0.19491245457548728,0.9805555555555555
0.19494549058473737,0.9805555555555555
0.1953914767096135,0.9805555555555555
0.19542451271886357,0.9805555555555555
0.19833168153287084,0.9805555555555555
0.1983647175421209,0.9805555555555555
0.19862900561612157,0.9805555555555555
0.19866204162537165,0.9805555555555555
0.20003303600925007,0.9805555555555555
0.20006607201850016,0.9805555555555555
0.20037991410637596,0.9805555555555555
0.20037991410637596,0.98125
0.20057813016187645,0.98125
0.20061116617112654,0.98125
0.20118929633300298,0.98125
0.20118929633300298,0.9819444444444444
0.2012718863561282,0.9819444444444444
0.20130492236537825,0.9819444444444444
0.20155269243475388,0.9819444444444444
0.20155269243475388,0.9826388888888888
0.2030062768417575,0.9826388888888888
0.2030393128510076,0.9826388888888888
0.20374958704988438,0.9826388888888888
0.20374958704988438,0.9833333333333333
0.20376610505450943,0.9833333333333333
0.2037991410637595,0.9833333333333333
0.2037991410637595,0.9840277777777777
0.20571522960026428,0.9840277777777777
0.20574826560951437,0.9840277777777777
0.2064750578130162,0.9840277777777777
0.2064750578130162,0.9847222222222223
0.20721836802114305,0.9847222222222223
0.20725140403039313,0.9847222222222223
0.20834159233564586,0.9847222222222223
0.20834159233564586,0.9854166666666667
0.20857284440039645,0.9854166666666667
0.2086058804096465,0.9854166666666667
0.21029071688140072,0.9854166666666667
0.2103237528906508,0.9854166666666667
0.2126362735381566,0.9854166666666667
0.21266930954740668,0.9854166666666667
0.2137925338619095,0.9854166666666667
0.21382556987115955,0.9854166666666667
0.21394119590353486,0.9854166666666667
0.21397423191278495,0.9854166666666667
0.21532870829203832,0.9854166666666667
0.2153617443012884,0.9854166666666667
0.21569210439378922,0.9854166666666667
0.2157251404030393,0.9854166666666667
0.2162371985464156,0.9854166666666667
0.21627023455566569,0.9854166666666667
0.21853320118929634,0.9854166666666667
0.21856623719854643,0.9854166666666667
0.22049884373967624,0.9854166666666667
0.22049884373967624,0.9861111111111112
0.22206805417905517,0.9861111111111112
0.22210109018830526,0.9861111111111112
0.22246448629005616,0.9861111111111112
0.22246448629005616,0.9868055555555556
0.22262966633630657,0.9868055555555556
0.22266270234555666,0.9868055555555556
0.2230756524611827,0.9868055555555556
0.2230756524611827,0.9875
0.228394449950446,0.9875
0.228394449950446,0.9881944444444445
0.22870829203832177,0.9881944444444445
0.22874132804757186,0.9881944444444445
0.22877436405682194,0.9881944444444445
0.228790882061447,0.9888888888888889
0.23095474066732738,0.9888888888888889
0.23098777667657747,0.9888888888888889
0.23219359101420547,0.9888888888888889
0.23222662702345556,0.9888888888888889
0.2353980839114635,0.9888888888888889
0.23543111992071358,0.9888888888888889
0.23597621407333993,0.9888888888888889
0.23600925008259002,0.9888888888888889
0.23688470432771722,0.9888888888888889
0.2369177403369673,0.9888888888888889
0.23932936901222332,0.9888888888888889
0.2393624050214734,0.9888888888888889
0.23947803105384868,0.9888888888888889
0.23951106706309877,0.9888888888888889
0.24119590353485298,0.9888888888888889
0.24122893954410307,0.9888888888888889
0.24187314172447968,0.9888888888888889
0.24190617773372977,0.9888888888888889
0.24256689791873143,0.9888888888888889
0.2425999339279815,0.9888888888888889
0.24273207796498183,0.9888888888888889
0.24276511397423192,0.9888888888888889
0.24382226627023457,0.9888888888888889
0.24382226627023457,0.9895833333333334
0.24509415262636275,0.9895833333333334
0.2451271886356128,0.9895833333333334
0.2453254046911133,0.9895833333333334
0.2453584407003634,0.9895833333333334
0.24539147670961348,0.9895833333333334
0.24539147670961348,0.9902777777777778
0.24682854311199207,0.9902777777777778
0.24686157912124215,0.9902777777777778
0.24917409976874794,0.9902777777777778
0.24920713577799802,0.9902777777777778
0.25066072018500163,0.9902777777777778
0.2506937561942517,0.9902777777777778
0.2512884043607532,0.9902777777777778
0.2512884043607532,0.9909722222222223
0.25218037661050546,0.9909722222222223
0.25221341261975555,0.9909722222222223
0.25336967294350843,0.9909722222222223
0.2534027089527585,0.9909722222222223
0.256392467789891,0.9909722222222223
0.2564255037991411,0.9909722222222223
0.2569375619425173,0.9909722222222223
0.2569705979517674,0.9909722222222223
0.2576808721506442,0.9909722222222223
0.2577139081598943,0.9909722222222223
0.25862239841427154,0.9909722222222223
0.2586554344235216,0.9909722222222223
0.25896927651139745,0.9909722222222223
0.2590023125206475,0.9909722222222223
0.2622233234225306,0.9909722222222223
0.26225635943178066,0.9909722222222223
0.265592996366039,0.9909722222222223
0.2656260323752891,0.9909722222222223
0.26821935910142053,0.9909722222222223
0.26821935910142053,0.9916666666666667
0.2693095474066733,0.9916666666666667
0.2693425834159234,0.9916666666666667
0.27041625371655104,0.9916666666666667
0.2704492897258011,0.9916666666666667
0.2705649157581764,0.9916666666666667
0.2705979517674265,0.9916666666666667
0.27403369672943506,0.9916666666666667
0.27406673273868515,0.9916666666666667
0.2742814667988107,0.9916666666666667
0.2743145028080608,0.9916666666666667
0.2754377271225636,0.9916666666666667
0.2754707631318137,0.9916666666666667
0.2758341592335646,0.9916666666666667
0.27586719524281467,0.9916666666666667
0.2796828543111992,0.9916666666666667
0.2797158903204493,0.9916666666666667
0.2811694747274529,0.9916666666666667
0.281202510736703,0.9916666666666667
0.28202841096795506,0.9916666666666667
0.28206144697720514,0.9916666666666667
0.28341592335645854,0.9916666666666667
0.28341592335645854,0.9923611111111111
0.2848529897588371,0.9923611111111111
0.2848860257680872,0.9923611111111111
0.2860257680872151,0.9923611111111111
0.2860257680872151,0.9930555555555556
0.28718202841096796,0.9930555555555556
0.28721506442021805,0.9930555555555556
0.2915758176412289,0.9930555555555556
0.291608853650479,0.9930555555555556
0.29276511397423194,0.9930555555555556
0.29276511397423194,0.99375
0.2931450280806079,0.99375
0.2931450280806079,0.9944444444444445
0.2932441361083581,0.9944444444444445
0.2932771721176082,0.9944444444444445
0.29425173439048563,0.9944444444444445
0.2942847703997357,0.9944444444444445
0.29436736042286094,0.9944444444444445
0.294400396432111,0.9944444444444445
0.29710934919061777,0.9944444444444445
0.29714238519986785,0.9944444444444445
0.2972414932276181,0.9944444444444445
0.2972745292368682,0.9944444444444445
0.2980343574496201,0.9944444444444445
0.2980673934588702,0.9944444444444445
0.3016518004625041,0.9944444444444445
0.3016848364717542,0.9944444444444445
0.30361744301288407,0.9944444444444445
0.3036504790221341,0.9944444444444445
0.3042781631978857,0.9944444444444445
0.3043111992071358,0.9944444444444445
0.30432771721176083,0.9944444444444445
0.3043607532210109,0.9944444444444445
0.3050049554013875,0.9944444444444445
0.3050379914106376,0.9944444444444445
0.3052362074661381,0.9944444444444445
0.3052692434753882,0.9944444444444445
0.30546745953088866,0.9944444444444445
0.30550049554013875,0.9944444444444445
0.30698711595639244,0.9944444444444445
0.30702015196564253,0.9944444444444445
0.30713577799801783,0.9944444444444445
0.3071688140072679,0.9944444444444445
0.3090353485298976,0.9944444444444445
0.30906838453914764,0.9944444444444445
0.3092831185992732,0.9944444444444445
0.30933267261314834,0.9944444444444445
0.309613478691774,0.9944444444444445
0.3096465147010241,0.9944444444444445
0.31337958374628344,0.9944444444444445
0.31341261975553353,0.9944444444444445
0.31399074991741,0.9944444444444445
0.3140237859266601,0.9944444444444445
0.3152296002642881,0.9944444444444445
0.3152626362735382,0.9944444444444445
0.31582424843078954,0.9944444444444445
0.31585728444003963,0.9944444444444445
0.3160720185001652,0.9944444444444445
0.3161050545094153,0.9944444444444445
0.31627023455566566,0.9944444444444445
0.31630327056491575,0.9944444444444445
0.31696399074991743,0.9944444444444445
0.31699702675916747,0.9944444444444445
0.3187644532540469,0.9944444444444445
0.3187644532540469,0.9951388888888889
0.3192434753881731,0.9951388888888889
0.3192765113974232,0.9951388888888889
0.3200858936240502,0.9951388888888889
0.3201189296333003,0.9951388888888889
0.3205483977535514,0.9951388888888889
0.32058143376280146,0.9951388888888889
0.32112652791542784,0.9951388888888889
0.3211595639246779,0.9951388888888889
0.32137429798480344,0.9951388888888889
0.3214073339940535,0.9951388888888889
0.3222662702345557,0.9951388888888889
0.32229930624380576,0.9951388888888889
0.3223158242484308,0.9951388888888889
0.3223488602576809,0.9951388888888889
0.3232573505120581,0.9951388888888889
0.3232903865213082,0.9951388888888889
0.326808721506442,0.9951388888888889
0.3268417575156921,0.9951388888888889
0.32761810373306904,0.9951388888888889
0.32765113974231913,0.9951388888888889
0.32813016187644534,0.9951388888888889
0.3281631978856954,0.9951388888888889
0.329203832177073,0.9951388888888889
0.3292368681863231,0.9951388888888889
0.3297158903204493,0.9951388888888889
0.3297489263296994,0.9951388888888889
0.3313181367690783,0.9951388888888889
0.3313511727783284,0.9951388888888889
0.332788239180707,0.9951388888888889
0.3328212751899571,0.9951388888888889
0.33612487611496533,0.9951388888888889
0.3361579121242154,0.9951388888888889
0.3364717542120912,0.9951388888888889
0.3365047902213413,0.9951388888888889
0.336802114304592,0.9951388888888889
0.3368351503138421,0.9951388888888889
0.3379253386190948,0.9951388888888889
0.3379583746283449,0.9951388888888889
0.33878427485959695,0.9951388888888889
0.33881731086884703,0.9951388888888889
0.34177403369672943,0.9951388888888889
0.3418070697059795,0.9951388888888889
0.3424512718863561,0.9951388888888889
0.3424843078956062,0.9951388888888889
0.344400396432111,0.9951388888888889
0.3444334324413611,0.9951388888888889
0.34542451271886354,0.9951388888888889
0.34545754872811363,0.9951388888888889
0.3456722827882392,0.9951388888888889
0.3457053187974893,0.9951388888888889
0.34813346547737034,0.9951388888888889
0.3481665014866204,0.9951388888888889
0.3487776676577469,0.9951388888888889
0.348810703666997,0.9951388888888889
0.34909150974562275,0.9951388888888889
0.3491245457548728,0.9951388888888889
0.35090849025437726,0.9951388888888889
0.35094152626362735,0.9951388888888889
0.35211430459200527,0.9951388888888889
0.35214734060125535,0.9951388888888889
0.35449289725801125,0.9951388888888889
0.35452593326726134,0.9951388888888889
0.3546085232903865,0.9951388888888889
0.3546415592996366,0.9951388888888889
0.3599438387842749,0.9951388888888889
0.3599768747935249,0.9951388888888889
0.360406342913776,0.9951388888888889
0.36047241493227616,0.9951388888888889
0.36157912124215397,0.9951388888888889
0.36161215725140405,0.9951388888888889
0.3625371655104063,0.9951388888888889
0.3625702015196564,0.9951388888888889
0.3654773703336637,0.9951388888888889
0.36551040634291376,0.9951388888888889
0.36807069705979517,0.9951388888888889
0.36810373306904526,0.9951388888888889
0.3726131483316815,0.9951388888888889
0.3726461843409316,0.9951388888888889
0.37441361083581104,0.9951388888888889
0.3744466468450611,0.9951388888888889
0.37801453584407,0.9951388888888889
0.3780475718533201,0.9951388888888889
0.3803600925008259,0.9951388888888889
0.380393128510076,0.9951388888888889
0.380789560621077,0.9951388888888889
0.3808556326395771,0.9951388888888889
0.3835150313842088,0.9951388888888889
0.38354806739345887,0.9951388888888889
0.38372976544433435,0.9951388888888889
0.38376280145358443,0.9951388888888889
0.3861909481334655,0.9951388888888889
0.3862239841427156,0.9951388888888889
0.38967624710934917,0.9951388888888889
0.38970928311859926,0.9951388888888889
0.3921209117938553,0.9951388888888889
0.39215394780310536,0.9951388888888889
0.3928807400066072,0.9951388888888889
0.3929137760158573,0.9951388888888889
0.39378923026098445,0.9951388888888889
0.39382226627023453,0.9951388888888889
0.3966303270564916,0.9951388888888889
0.3966633630657417,0.9951388888888889
0.3986785596299967,0.9951388888888889
0.3987115956392468,0.9951388888888889
0.39922365378262303,0.9951388888888889
0.3992566897918731,0.9951388888888889
0.40130492236537824,0.9951388888888889
0.4013379583746283,0.9951388888888889
0.4023125206475058,0.9951388888888889
0.40234555665675586,0.9951388888888889
0.4034192269573835,0.9951388888888889
0.4034522629666336,0.9951388888888889
0.40550049554013873,0.9951388888888889
0.4055335315493888,0.9951388888888889
0.40817641228939544,0.9951388888888889
0.4082094482986455,0.9951388888888889
0.4094317806408986,0.9951388888888889
0.40946481665014867,0.9951388888888889
0.40971258671952426,0.9951388888888889
0.40974562272877435,0.9951388888888889
0.41369342583415925,0.9951388888888889
0.41372646184340933,0.9951388888888889
0.4142550379914106,0.9951388888888889
0.4142880740006607,0.9951388888888889
0.4143706640237859,0.9951388888888889
0.4143706640237859,0.9958333333333333
0.4149157581764123,0.9958333333333333
0.4149487941856624,0.9958333333333333
0.41504790221341265,0.9958333333333333
0.4150809382226627,0.9958333333333333
0.415196564255038,0.9958333333333333
0.41522960026428807,0.9958333333333333
0.41641889659729103,0.9958333333333333
0.4164519326065411,0.9958333333333333
0.41668318467129173,0.9958333333333333
0.41668318467129173,0.9965277777777778
0.4207466138090519,0.9965277777777778
0.42077964981830196,0.9965277777777778
0.42094482986455234,0.9965277777777778
0.4209778658738024,0.9965277777777778
0.4218037661050545,0.9965277777777778
0.4218368021143046,0.9965277777777778
0.4245953088866865,0.9965277777777778
0.4246283448959366,0.9965277777777778
0.4246944169144367,0.9965277777777778
0.4247274529236868,0.9965277777777778
0.4270069375619425,0.9965277777777778
0.4270399735711926,0.9965277777777778
0.4281301618764453,0.9965277777777778
0.4281631978856954,0.9965277777777778
0.4282457879088206,0.9965277777777778
0.4282788239180707,0.9965277777777778
0.4284935579781962,0.9965277777777778
0.4285265939874463,0.9965277777777778
0.4293194582094483,0.9965277777777778
0.42935249421869837,0.9965277777777778
0.43082259663032707,0.9965277777777778
0.43085563263957716,0.9965277777777778
0.43194582094482986,0.9965277777777778
0.43197885695407995,0.9965277777777778
0.43252395110670633,0.9965277777777778
0.4325569871159564,0.9965277777777778
0.4338784274859597,0.9965277777777778
0.43391146349520976,0.9965277777777778
0.43505120581433765,0.9965277777777778
0.43508424182358774,0.9965277777777778
0.4369507763462174,0.9965277777777778
0.43698381235546746,0.9965277777777778
0.4397258011232243,0.9965277777777778
0.4397588371324744,0.9965277777777778
0.4425503799141064,0.9965277777777778
0.4425834159233565,0.9965277777777778
0.443194582094483,0.9965277777777778
0.44322761810373307,0.9965277777777778
0.44390485629335974,0.9965277777777778
0.4439378923026098,0.9965277777777778
0.4455071027419888,0.9965277777777778
0.4455401387512388,0.9965277777777778
0.44585398083911465,0.9965277777777778
0.44588701684836474,0.9965277777777778
0.44621737694086555,0.9965277777777778
0.44625041295011564,0.9965277777777778
0.4464816650148662,0.9965277777777778
0.4465147010241163,0.9965277777777778
0.44826560951437067,0.9965277777777778
0.44829864552362075,0.9965277777777778
0.4486785596299967,0.9965277777777778
0.4487115956392468,0.9965277777777778
0.45018169805087543,0.9965277777777778
0.4502147340601255,0.9965277777777778
0.45231252064750577,0.9965277777777778
0.45234555665675585,0.9965277777777778
0.45333663693425835,0.9965277777777778
0.45336967294350844,0.9965277777777778
0.45358440700363395,0.9965277777777778
0.45361744301288404,0.9965277777777778
0.4551370994383878,0.9965277777777778
0.4551701354476379,0.9965277777777778
0.45777998017839444,0.9965277777777778
0.45781301618764453,0.9965277777777778
0.45825900231252065,0.9965277777777778
0.45829203832177073,0.9965277777777778
0.4611331351172778,0.9965277777777778
0.4611661711265279,0.9965277777777778
0.46146349520977864,0.9965277777777778
0.4614965312190287,0.9965277777777778
0.46311529567228277,0.9965277777777778
0.46314833168153285,0.9965277777777778
0.46509745622728776,0.9965277777777778
0.46513049223653785,0.9965277777777778
0.4655434423521639,0.9965277777777778
0.4655764783614139,0.9965277777777778
0.4663197885695408,0.9965277777777778
0.4663528245787909,0.9965277777777778
0.46861579121242153,0.9965277777777778
0.4686488272216716,0.9965277777777778
0.4698381235546746,0.9965277777777778
0.46987115956392467,0.9965277777777778
0.4735381565906838,0.9965277777777778
0.4735711925999339,0.9965277777777778
0.4738685166831847,0.9965277777777778
0.4739015526924348,0.9965277777777778
0.47449620085893623,0.9965277777777778
0.4745292368681863,0.9965277777777778
0.474810042946812,0.9965277777777778
0.4748430789560621,0.9965277777777778
0.47512388503468783,0.9965277777777778
0.4751569210439379,0.9965277777777778
0.47928642220019824,0.9965277777777778
0.4793194582094483,0.9965277777777778
0.4812355467459531,0.9965277777777778
0.4812685827552032,0.9965277777777778
0.48333333333333334,0.9965277777777778
0.4833663693425834,0.9965277777777778
0.4874132804757185,0.9965277777777778
0.4874463164849686,0.9965277777777778
0.4934753881731087,0.9965277777777778
0.4935084241823588,0.9965277777777778
0.49382226627023457,0.9965277777777778
0.49385530227948465,0.9965277777777778
0.4943508424182359,0.9965277777777778
0.49438387842748593,0.9965277777777778
0.4961347869177403,0.9965277777777778
0.4961678229269904,0.9965277777777778
0.49796828543111993,0.9965277777777778
0.49800132144037,0.9965277777777778
0.4991575817641229,0.9965277777777778
0.499190617773373,0.9965277777777778
0.4995705318797489,0.9965277777777778
0.499603567888999,0.9965277777777778
0.5005120581433763,0.9965277777777778
0.5005450941526264,0.9965277777777778
0.5065411298315163,0.9965277777777778
0.5065741658407664,0.9965277777777778
0.5087380244466468,0.9965277777777778
0.5087875784605219,0.9965277777777778
0.510786257020152,0.9965277777777778
0.5108192930294021,0.9965277777777778
0.5143045920052858,0.9965277777777778
0.5143376280145359,0.9965277777777778
0.5145853980839115,0.9965277777777778
0.5146184340931615,0.9965277777777778
0.5160555004955402,0.9965277777777778
0.5160885365047903,0.9965277777777778
0.5163528245787908,0.9965277777777778
0.5163858605880409,0.9965277777777778
0.5165014866204163,0.9965277777777778
0.5165345226296664,0.9965277777777778
0.5204988437396763,0.9965277777777778
0.5205318797489263,0.9965277777777778
0.5213577799801784,0.9965277777777778
0.5213908159894285,0.9965277777777778
0.5269243475388173,0.9965277777777778
0.5269573835480674,0.9965277777777778
0.5285431119920714,0.9965277777777778
0.5285761480013215,0.9965277777777778
0.5293029402048233,0.9965277777777778
0.5293359762140734,0.9965277777777778
0.5294846382556987,0.9965277777777778
0.5295176742649488,0.9965277777777778
0.5325569871159563,0.9965277777777778
0.5325900231252064,0.9965277777777778
0.532771721176082,0.9965277777777778
0.532804757185332,0.9965277777777778
0.5345556656755864,0.9965277777777778
0.5345887016848365,0.9965277777777778
0.5358936240502147,0.9965277777777778
0.5359266600594648,0.9965277777777778
0.5364717542120911,0.9965277777777778
0.5365047902213412,0.9965277777777778
0.5374132804757186,0.9965277777777778
0.5374463164849687,0.9965277777777778
0.538817310868847,0.9965277777777778
0.5388503468780971,0.9965277777777778
0.5388668648827222,0.9965277777777778
0.5388999008919723,0.9965277777777778
0.5396597291047242,0.9965277777777778
0.5396927651139742,0.9965277777777778
0.5414106375949785,0.9965277777777778
0.5414436736042286,0.9965277777777778
0.541592335645854,0.9965277777777778
0.541625371655104,0.9965277777777778
0.5437892302609845,0.9965277777777778
0.5438222662702346,0.9965277777777778
0.5451767426494879,0.9965277777777778
0.545209778658738,0.9965277777777778
0.5453584407003634,0.9965277777777778
0.5453914767096135,0.9965277777777778
0.5464816650148662,0.9965277777777778
0.5465147010241163,0.9965277777777778
0.5468946151304922,0.9965277777777778
0.5469276511397423,0.9965277777777778
0.5473406012553683,0.9965277777777778
0.5473736372646184,0.9965277777777778
0.5484473075652461,0.9965277777777778
0.5484803435744962,0.9965277777777778
0.5494218698381236,0.9965277777777778
0.5494549058473737,0.9965277777777778
0.5501486620416254,0.9965277777777778
0.5501816980508755,0.9965277777777778
0.5549719193921374,0.9965277777777778
0.5550049554013875,0.9965277777777778
0.5551701354476379,0.9965277777777778
0.555203171456888,0.9965277777777778
0.5574000660720185,0.9965277777777778
0.5574331020812686,0.9965277777777778
0.5598116947472745,0.9965277777777778
0.5598447307565246,0.9965277777777778
0.5618929633300297,0.9965277777777778
0.5619259993392798,0.9965277777777778
0.5621737694086555,0.9965277777777778
0.5622068054179055,0.9965277777777778
0.5634456557647836,0.9965277777777778
0.5634786917740336,0.9965277777777778
0.5670630987776677,0.9965277777777778
0.5670961347869178,0.9965277777777778
0.5674430128840436,0.9965277777777778
0.5674760488932937,0.9965277777777778
0.5676907829534192,0.9965277777777778
0.5677238189626693,0.9965277777777778
0.5683184671291708,0.9965277777777778
0.5683515031384209,0.9965277777777778
0.5691608853650479,0.9965277777777778
0.569193921374298,0.9965277777777778
0.5693425834159234,0.9965277777777778
0.5693756194251735,0.9965277777777778
0.5744962008589363,0.9965277777777778
0.5745292368681864,0.9965277777777778
0.575206475057813,0.9965277777777778
0.575206475057813,0.9972222222222222
0.5755698711595639,0.9972222222222222
0.575602907168814,0.9972222222222222
0.5771060455896928,0.9972222222222222
0.5771390815989429,0.9972222222222222
0.5790551701354476,0.9972222222222222
0.5790882061446977,0.9972222222222222
0.5794185662371986,0.9972222222222222
0.5794516022464486,0.9972222222222222
0.5801123224314503,0.9972222222222222
0.5801453584407004,0.9972222222222222
0.5835150313842088,0.9972222222222222
0.5835480673934589,0.9972222222222222
0.5846382556987116,0.9972222222222222
0.5846712917079617,0.9972222222222222
0.5850346878097126,0.9972222222222222
0.5850677238189627,0.9972222222222222
0.5867360422860919,0.9972222222222222
0.586769078295342,0.9972222222222222
0.5869012223323422,0.9972222222222222
0.5869672943508424,0.9972222222222222
0.5886851668318467,0.9972222222222222
0.5887182028410968,0.9972222222222222
0.5891311529567228,0.9972222222222222
0.5891641889659729,0.9972222222222222
0.5920383217707301,0.9972222222222222
0.5920713577799802,0.9972222222222222
0.5945986124876115,0.9972222222222222
0.5946316484968616,0.9972222222222222
0.5977700693756194,0.9972222222222222
0.5978031053848695,0.9972222222222222
0.5998513379583746,0.9972222222222222
0.5999174099768748,0.9972222222222222
0.6002973240832508,0.9972222222222222
0.6003303600925008,0.9972222222222222
0.6030888668648827,0.9972222222222222
0.6031219028741328,0.9972222222222222
0.6034687809712587,0.9972222222222222
0.6035018169805088,0.9972222222222222
0.6042616451932606,0.9972222222222222
0.6042946812025107,0.9972222222222222
0.6048562933597621,0.9972222222222222
0.6048893293690122,0.9972222222222222
0.6049554013875124,0.9972222222222222
0.6049884373967624,0.9972222222222222
0.6060621076973901,0.9972222222222222
0.6060951437066402,0.9972222222222222
0.6064750578130161,0.9972222222222222
0.6065080938222662,0.9972222222222222
0.6071027419887678,0.9972222222222222
0.6071357779980179,0.9972222222222222
0.6074165840766436,0.9972222222222222
0.6074165840766436,0.9979166666666667
0.6089362405021473,0.9979166666666667
0.6089362405021473,0.9986111111111111
0.6132474397092831,0.9986111111111111
0.6132804757185332,0.9986111111111111
0.6156755863891642,0.9986111111111111
0.6157086223984143,0.9986111111111111
0.6162867525602908,0.9986111111111111
0.6163197885695408,0.9986111111111111
0.6179055170135448,0.9986111111111111
0.6179385530227949,0.9986111111111111
0.6182358771060456,0.9986111111111111
0.6182689131152956,0.9986111111111111
0.6185332011892963,0.9986111111111111
0.6185662371985464,0.9986111111111111
0.6211595639246779,0.9986111111111111
0.621192599933928,0.9986111111111111
0.6247604889329369,0.9986111111111111
0.624793524942187,0.9986111111111111
0.6258176412289396,0.9986111111111111
0.6258506772381897,0.9986111111111111
0.626412289395441,0.9986111111111111
0.6264453254046911,0.9986111111111111
0.6290056161215725,0.9986111111111111
0.6290386521308226,0.9986111111111111
0.6293359762140733,0.9986111111111111
0.6293690122233234,0.9986111111111111
0.630806078625702,0.9986111111111111
0.6308391146349521,0.9986111111111111
0.6335811034027089,0.9986111111111111
0.633614139411959,0.9986111111111111
0.6337958374628345,0.9986111111111111
0.6338288734720846,0.9986111111111111
0.6340766435414602,0.9986111111111111
0.6341096795507103,0.9986111111111111
0.6344565576478362,0.9986111111111111
0.6344895936570862,0.9986111111111111
0.6373967624710934,0.9986111111111111
0.6373967624710934,0.9993055555555556
0.6413115295672283,0.9993055555555556
0.6413445655764783,0.9993055555555556
0.6441361083581103,0.9993055555555556
0.6441691443673604,0.9993055555555556
0.6446316484968616,0.9993055555555556
0.6446646845061117,0.9993055555555556
0.6456557647836142,0.9993055555555556
0.6456888007928642,0.9993055555555556
0.6461347869177403,0.9993055555555556
0.6461678229269904,0.9993055555555556
0.6496696399074992,0.9993055555555556
0.6497026759167492,0.9993055555555556
0.6497687479352494,0.9993055555555556
0.6498017839444995,0.9993055555555556
0.6502973240832507,0.9993055555555556
0.6503303600925008,0.9993055555555556
0.6549058473736372,0.9993055555555556
0.6549388833828873,0.9993055555555556
0.6554179055170135,0.9993055555555556
0.6554509415262636,0.9993055555555556
0.6576478361413941,0.9993055555555556
0.6576808721506442,0.9993055555555556
0.6611166171126528,0.9993055555555556
0.6611496531219029,0.9993055555555556
0.6618599273207797,0.9993055555555556
0.6618929633300298,0.9993055555555556
0.6627684175751569,0.9993055555555556
0.662801453584407,0.9993055555555556
0.6641394119590354,0.9993055555555556
0.6641724479682855,0.9993055555555556
0.6641889659729104,0.9993055555555556
0.6642220019821605,0.9993055555555556
0.6653947803105384,0.9993055555555556
0.6654608523290386,0.9993055555555556
0.6668318467129171,0.9993055555555556
0.6668648827221672,0.9993055555555556
0.6703501816980508,0.9993055555555556
0.6703832177073009,0.9993055555555556
0.6714073339940535,0.9993055555555556
0.6714403700033036,0.9993055555555556
0.6731252064750578,0.9993055555555556
0.6731582424843079,0.9993055555555556
0.6738024446646845,0.9993055555555556
0.6738354806739346,0.9993055555555556
0.6751238850346878,0.9993055555555556
0.6751569210439379,0.9993055555555556
0.6769243475388174,0.9993055555555556
0.6769573835480674,0.9993055555555556
0.6789725801123224,0.9993055555555556
0.6790056161215725,0.9993055555555556
0.6860588040964651,0.9993055555555556
0.6860918401057152,0.9993055555555556
0.6865047902213413,0.9993055555555556
0.6865378262305913,0.9993055555555556
0.687611496531219,0.9993055555555556
0.6876445325404691,0.9993055555555556
0.6878097125867195,0.9993055555555556
0.6878427485959696,0.9993055555555556
0.6885034687809712,0.9993055555555556
0.6885365047902213,0.9993055555555556
0.6895275850677238,0.9993055555555556
0.6895606210769739,0.9993055555555556
0.6933102081268583,0.9993055555555556
0.6933432441361084,0.9993055555555556
0.694400396432111,0.9993055555555556
0.6944334324413611,0.9993055555555556
0.7001321440370003,0.9993055555555556
0.7001651800462504,0.9993055555555556
0.7024942186983812,0.9993055555555556
0.7025272547076313,0.9993055555555556
0.7031053848695078,0.9993055555555556
0.7031384208787579,0.9993055555555556
0.7036174430128841,0.9993055555555556
0.7036504790221342,0.9993055555555556
0.7049884373967624,0.9993055555555556
0.7050214734060125,0.9993055555555556
0.705203171456888,0.9993055555555556
0.7052362074661381,0.9993055555555556
0.7055004955401387,0.9993055555555556
0.7055335315493888,0.9993055555555556
0.7073670300627685,0.9993055555555556
0.7074000660720186,0.9993055555555556
0.7084407003633961,0.9993055555555556
0.7085067723818963,0.9993055555555556
0.7088701684836471,0.9993055555555556
0.7089032044928972,0.9993055555555556
0.7118103733069046,0.9993055555555556
0.7118434093161546,0.9993055555555556
0.7122068054179055,0.9993055555555556
0.7122398414271556,0.9993055555555556
0.7133465477370333,0.9993055555555556
0.7133795837462834,0.9993055555555556
0.7155269243475388,0.9993055555555556
0.7155599603567889,0.9993055555555556
0.7216055500495541,0.9993055555555556
0.721638586058804,0.9993055555555556
0.7220680541790552,0.9993055555555556
0.7221010901883053,0.9993055555555556
0.7233399405351834,0.9993055555555556
0.7233729765444334,0.9993055555555556
0.7237528906508094,0.9993055555555556
0.7237859266600595,0.9993055555555556
0.7262636273538157,0.9993055555555556
0.7262966633630658,0.9993055555555556
0.7266765774694417,0.9993055555555556
0.7267096134786918,0.9993055555555556
0.7295672282788239,0.9993055555555556
0.729600264288074,0.9993055555555556
0.730393128510076,0.9993055555555556
0.7304261645193261,0.9993055555555556
0.7318301949124546,0.9993055555555556
0.7318632309217047,0.9993055555555556
0.7340270895275851,0.9993055555555556
0.7340601255368352,0.9993055555555556
0.7354971919392137,0.9993055555555556
0.7354971919392137,1.0
0.7364552362074661,1.0
0.7364882722167162,1.0
0.7375454245127189,1.0
0.737578460521969,1.0
0.7397918731417245,1.0
0.7398249091509745,1.0
0.7402048232573505,1.0
0.7402378592666006,1.0
0.7404691113313512,1.0
0.7405021473406013,1.0
0.7422530558308557,1.0
0.7422860918401057,1.0
0.7428477039973571,1.0
0.7428807400066072,1.0
0.7430954740667327,1.0
0.7431285100759828,1.0
0.7445325404691113,1.0
0.7445655764783614,1.0
0.7449950445986124,1.0
0.7450280806078625,1.0
0.7453749587049885,1.0
0.7454079947142386,1.0
0.749223653782623,1.0
0.7492566897918731,1.0
0.7517178724810043,1.0
0.7517509084902544,1.0
0.7531714568880079,1.0
0.753204492897258,1.0
0.7535348529897589,1.0
0.753567888999009,1.0
0.757978196233895,1.0
0.758011232243145,1.0
0.7586884704327718,1.0
0.7587215064420219,1.0
0.7594482986455237,1.0
0.7594813346547737,1.0
0.7597621407333994,1.0
0.7597951767426495,1.0
0.7604889329369012,1.0
0.7605219689461513,1.0
0.7611166171126528,1.0
0.7611496531219029,1.0
0.7636934258341592,1.0
0.7637264618434093,1.0
0.7649983481995375,1.0
0.7650313842087876,1.0
0.7666831846712917,1.0
0.7667162206805418,1.0
0.7670135447637926,1.0
0.7670465807730427,1.0
0.7685662371985464,1.0
0.7685992732077965,1.0
0.768780971258672,1.0
0.768814007267922,1.0
0.7697720515361745,1.0
0.7698050875454245,1.0
0.7738519986785596,1.0
0.7738850346878097,1.0
0.7740667327386852,1.0
0.7740997687479353,1.0
0.778361413941196,1.0
0.7783944499504459,1.0
0.7785431119920714,1.0
0.7785761480013215,1.0
0.7788239180706971,1.0
0.7788569540799472,1.0
0.779203832177073,1.0
0.7792368681863231,1.0
0.7804922365378262,1.0
0.7805252725470763,1.0
0.7810373306904526,1.0
0.7810703666997026,1.0
0.7815493888338289,1.0
0.7815824248430789,1.0
0.7825074331020813,1.0
0.7825404691113313,1.0
0.7828873472084572,1.0
0.7829203832177073,1.0
0.7858605880409647,1.0
0.7858936240502147,1.0
0.7881400726792204,1.0
0.7881731086884705,1.0
0.7883052527254708,1.0
0.7883382887347209,1.0
0.7893128510075983,1.0
0.7893458870168484,1.0
0.7918070697059795,1.0
0.7918401057152296,1.0
0.7944995044598613,1.0
0.7945325404691114,1.0
0.7947307565246118,1.0
0.7947637925338619,1.0
0.7951271886356128,1.0
0.7951602246448629,1.0
0.7954575487281137,1.0
0.7954905847373638,1.0
0.796812025107367,1.0
0.7968450611166171,1.0
0.7978691774033697,1.0
0.7979022134126198,1.0
0.797984803435745,1.0
0.798017839444995,1.0
0.79803435744962,1.0
0.7980673934588701,1.0
0.79996696399075,1.0
0.8,1.0
0.8019326065411299,1.0
0.8019656425503799,1.0
0.8118764453254047,1.0
0.8119094813346548,1.0
0.8125041295011562,1.0
0.8125371655104063,1.0
0.8133465477370334,1.0
0.8133795837462835,1.0
0.8145853980839115,1.0
0.8146184340931616,1.0
0.8173108688470433,1.0
0.8173439048562934,1.0
0.8192930294020482,1.0
0.8193260654112983,1.0
0.8212256359431781,1.0
0.8212586719524282,1.0
0.8217376940865544,1.0
0.8217707300958045,1.0
0.8260654112983151,1.0
0.8260984473075652,1.0
0.8275024777006937,1.0
0.8275355137099438,1.0
0.8301288404360754,1.0
0.8301618764453254,1.0
0.8347043277172118,1.0
0.8347373637264618,1.0
0.8402874132804757,1.0
0.8403204492897258,1.0
0.8422365378262306,1.0
0.8422695738354806,1.0
0.8458539808391147,1.0
0.8458870168483648,1.0
0.8464981830194912,1.0
0.8465312190287413,1.0
0.8486785596299967,1.0
0.8487115956392468,1.0
0.8505616121572515,1.0
0.8505946481665014,1.0
0.8527089527585068,1.0
0.8527419887677569,1.0
0.8529071688140073,1.0
0.8529402048232574,1.0
0.8545920052857615,1.0
0.8546250412950116,1.0
0.8548562933597621,1.0
0.8548893293690122,1.0
0.8560455896927651,1.0
0.8560786257020152,1.0
0.8567228278823918,1.0
0.8567558638916419,1.0
0.857185332011893,1.0
0.857218368021143,1.0
0.8573339940535183,1.0
0.8573670300627684,1.0
0.8630327056491576,1.0
0.8630657416584077,1.0
0.8643871820284109,1.0
0.864420218037661,1.0
0.8649653121902874,1.0
0.8649983481995375,1.0
0.8650974562272877,1.0
0.8651304922365378,1.0
0.8657086223984143,1.0
0.8657416584076644,1.0
0.8658077304261645,1.0
0.8658407664354146,1.0
0.8661876445325405,1.0
0.8662206805417906,1.0
0.8662371985464156,1.0
0.8662702345556657,1.0
0.8667492566897919,1.0
0.866782292699042,1.0
0.8682193591014206,1.0
0.8682523951106706,1.0
0.8685332011892963,1.0
0.8685662371985464,1.0
0.8704823257350512,1.0
0.8705153617443013,1.0
0.8707466138090518,1.0
0.8707796498183019,1.0
0.8742319127849356,1.0
0.8742649487941857,1.0
0.8757680872150644,1.0
0.8758011232243145,1.0
0.8764948794185662,1.0
0.8765279154278163,1.0
0.8775189957053188,1.0
0.8775520317145689,1.0
0.8782127518995705,1.0
0.8782457879088206,1.0
0.8826065411298315,1.0
0.8826395771390816,1.0
0.8903865213082259,1.0
0.890419557317476,1.0
0.890799471423852,1.0
0.890832507433102,1.0
0.8938387842748596,1.0
0.8938718202841097,1.0
0.8952593326726132,1.0
0.8952923686818632,1.0
0.8954079947142385,1.0
0.8954410307234886,1.0
0.9001816980508754,1.0
0.9002147340601255,1.0
0.9021803766105054,1.0
0.9022134126197555,1.0
0.904360753221011,1.0
0.904393789230261,1.0
0.9053187974892632,1.0
0.9053518334985133,1.0
0.9064915758176413,1.0
0.9065246118268913,1.0
0.9085232903865214,1.0
0.9085563263957714,1.0
0.9099273207796498,1.0
0.9099603567888999,1.0
0.911182689131153,1.0
0.911215725140403,1.0
0.9173769408655434,1.0
0.9174099768747935,1.0
0.917624710934919,1.0
0.9176577469441691,1.0
0.9185001651800463,1.0
0.9185332011892964,1.0
0.9211100099108028,1.0
0.9211430459200528,1.0
0.9228444003964321,1.0
0.9228774364056822,1.0
0.9269739015526924,1.0
0.9270069375619425,1.0
0.9299801783944499,1.0
0.9300132144037,1.0
0.9334159233564585,1.0
0.9334489593657086,1.0
0.9344895936570862,1.0
0.9345226296663363,1.0
0.935612817971589,1.0
0.9356458539808391,1.0
0.9484473075652461,1.0
0.9484803435744962,1.0
0.951602246448629,1.0
0.9516352824578791,1.0
0.9558969276511398,1.0
0.9559299636603898,1.0
0.9590188305252726,1.0
0.9590518665345227,1.0
0.9617608192930294,1.0
0.9617938553022795,1.0
0.9619425173439049,1.0
0.961975553353155,1.0
0.9665840766435415,1.0
0.9666171126527915,1.0
0.9667657746944169,1.0
0.966798810703667,1.0
0.9673934588701685,1.0
0.9674264948794186,1.0
0.9685992732077965,1.0
0.9686323092170466,1.0
0.9733729765444334,1.0
0.9734060125536835,1.0
0.9749587049884374,1.0
0.9749917409976875,1.0
0.9755863891641889,1.0
0.975619425173439,1.0
0.9789395441030724,1.0
0.9789725801123225,1.0
0.9861909481334655,1.0
0.9862239841427156,1.0
0.9917079616782293,1.0
0.9917409976874794,1.0
0.9920713577799801,1.0
0.9921043937892302,1.0
0.9929468120251074,1.0
0.9929798480343575,1.0
0.9934258341592336,1.0
0.9934588701684837,1.0
0.9978361413941196,1.0
0.9978691774033697,1.0
0.998017839444995,1.0
0.9980508754542451,1.0
0.9990915097456228,1.0
0.9991245457548729,1.0
1.0,1.0
