fpr,tpr
0.0,0.0
0.0,0.0006944444444444445
0.0,0.011111111111111112
1.6518004625041296e-05,0.011111111111111112
1.6518004625041296e-05,0.013194444444444444
3.303600925008259e-05,0.013194444444444444
3.303600925008259e-05,0.02361111111111111
4.955401387512388e-05,0.02361111111111111
4.955401387512388e-05,0.030555555555555555
6.607201850016519e-05,0.030555555555555555
6.607201850016519e-05,0.043055555555555555
8.259002312520647e-05,0.043055555555555555
8.259002312520647e-05,0.049305555555555554
8.259002312520647e-05,0.050694444444444445
8.259002312520647e-05,0.06805555555555555
9.910802775024777e-05,0.06805555555555555
9.910802775024777e-05,0.08194444444444444
0.00011562603237528906,0.08194444444444444
0.00011562603237528906,0.10625
0.00013214403700033037,0.10625
0.00013214403700033037,0.11527777777777778
0.00014866204162537167,0.11527777777777778
0.00014866204162537167,0.12430555555555556
0.00016518004625041294,0.12430555555555556
0.00016518004625041294,0.12986111111111112
0.00018169805087545423,0.13055555555555556
0.00018169805087545423,0.13472222222222222
0.00018169805087545423,0.1361111111111111
0.00018169805087545423,0.15069444444444444
0.00019821605550049553,0.15069444444444444
0.00019821605550049553,0.18055555555555555
0.00021473406012553683,0.18055555555555555
0.00021473406012553683,0.19583333333333333
0.00021473406012553683,0.19722222222222222
0.00021473406012553683,0.19930555555555557
0.0002477700693756194,0.19930555555555557
0.0002477700693756194,0.20277777777777778
0.000280806078625702,0.20277777777777778
0.000280806078625702,0.21180555555555555
0.00029732408325074334,0.21180555555555555
0.00029732408325074334,0.2152777777777778
0.0003138420878757846,0.2152777777777778
0.0003138420878757846,0.2263888888888889
0.0003303600925008259,0.2263888888888889
0.0003303600925008259,0.22708333333333333
0.0003468780971258672,0.22708333333333333
0.0003468780971258672,0.22777777777777777
0.00036339610175090847,0.22777777777777777
0.00036339610175090847,0.24097222222222223
0.0003799141063759498,0.24097222222222223
0.0003799141063759498,0.25277777777777777
0.00039643211100099106,0.25277777777777777
0.00039643211100099106,0.25763888888888886
0.0004129501156260324,0.25763888888888886
0.0004129501156260324,0.2625
0.00042946812025107365,0.2625
0.00042946812025107365,0.2638888888888889
0.000445986124876115,0.2638888888888889
0.000445986124876115,0.2722222222222222
0.00046250412950115625,0.2722222222222222
0.00046250412950115625,0.27708333333333335
0.00047902213412619757,0.27708333333333335
0.00047902213412619757,0.2791666666666667
0.0004955401387512388,0.2791666666666667
0.0004955401387512388,0.28125
0.0005120581433762802,0.28125
0.0005120581433762802,0.2861111111111111
0.0005120581433762802,0.2875
0.0005120581433762802,0.2916666666666667
0.0005285761480013215,0.2916666666666667
0.0005285761480013215,0.29305555555555557
0.0005450941526263627,0.29305555555555557
0.0005450941526263627,0.3
0.000561612157251404,0.3
0.000561612157251404,0.3055555555555556
0.0005781301618764453,0.3055555555555556
0.0005781301618764453,0.31805555555555554
0.0005946481665014867,0.31805555555555554
0.0005946481665014867,0.3402777777777778
0.0006276841757515692,0.3402777777777778
0.0006276841757515692,0.34305555555555556
0.0006442021803766105,0.34305555555555556
0.0006442021803766105,0.35138888888888886
0.0006442021803766105,0.3527777777777778
0.0006442021803766105,0.3548611111111111
0.0006607201850016518,0.3548611111111111
0.0006607201850016518,0.3611111111111111
0.0006937561942517344,0.3611111111111111
0.0006937561942517344,0.3659722222222222
0.0007102741988767757,0.3659722222222222
0.0007102741988767757,0.3680555555555556
0.0007267922035018169,0.3680555555555556
0.0007267922035018169,0.37222222222222223
0.0007763462173769409,0.37222222222222223
0.0007763462173769409,0.3729166666666667
0.0007928642220019821,0.3729166666666667
0.0007928642220019821,0.3736111111111111
0.0008093822266270234,0.3736111111111111
0.0008093822266270234,0.3909722222222222
0.0008259002312520648,0.3909722222222222
0.0008259002312520648,0.39166666666666666
0.0008424182358771061,0.39166666666666666
0.0008424182358771061,0.39305555555555555
0.0008754542451271886,0.39305555555555555
0.0008754542451271886,0.39444444444444443
0.0008754542451271886,0.39652777777777776
0.00089197224975223,0.39652777777777776
0.00089197224975223,0.40069444444444446
0.0009084902543772713,0.40069444444444446
0.0009084902543772713,0.4041666666666667
0.0009250082590023125,0.4041666666666667
0.0009250082590023125,0.4048611111111111
0.0009415262636273538,0.4048611111111111
0.0009415262636273538,0.4083333333333333
0.0009580442682523951,0.40902777777777777
0.0009745622728774364,0.40902777777777777
0.0009745622728774364,0.4152777777777778
0.0009910802775024777,0.4152777777777778
0.0009910802775024777,0.4222222222222222
0.001007598282127519,0.4222222222222222
0.001007598282127519,0.42291666666666666
0.0010241162867525603,0.42291666666666666
0.0010241162867525603,0.4236111111111111
0.0010406342913776017,0.4236111111111111
0.0010406342913776017,0.4305555555555556
0.0010406342913776017,0.43194444444444446
0.0010406342913776017,0.4395833333333333
0.001073670300627684,0.4395833333333333
0.001073670300627684,0.44166666666666665
0.0011067063098777667,0.44166666666666665
0.0011067063098777667,0.4423611111111111
0.001123224314502808,0.4423611111111111
0.001123224314502808,0.44375
0.0011397423191278494,0.44375
0.0011397423191278494,0.44722222222222224
0.001172778328377932,0.44722222222222224
0.001172778328377932,0.45208333333333334
0.0011892963330029733,0.45208333333333334
0.0011892963330029733,0.4534722222222222
0.0012223323422530558,0.4534722222222222
0.0012223323422530558,0.45625
0.0012553683515031384,0.45625
0.0012553683515031384,0.4576388888888889
0.0012718863561281797,0.4576388888888889
0.0012718863561281797,0.46319444444444446
0.001288404360753221,0.46319444444444446
0.001288404360753221,0.4638888888888889
0.0013049223653782624,0.4638888888888889
0.0013049223653782624,0.4673611111111111
0.0013214403700033035,0.4673611111111111
0.0013214403700033035,0.46805555555555556
0.0013709943838784275,0.46805555555555556
0.0013709943838784275,0.46875
0.0013875123885034688,0.46875
0.0013875123885034688,0.4708333333333333
0.0014040303931285101,0.4708333333333333
0.0014040303931285101,0.4722222222222222
0.0014205483977535514,0.4722222222222222
0.0014205483977535514,0.47291666666666665
0.0014370664023785928,0.47291666666666665
0.0014370664023785928,0.47708333333333336
0.0014535844070036339,0.47708333333333336
0.0014535844070036339,0.4798611111111111
0.0015196564255037992,0.4798611111111111
0.0015196564255037992,0.4847222222222222
0.0015361744301288405,0.4847222222222222
0.0015361744301288405,0.48541666666666666
0.0015526924347538818,0.48541666666666666
0.0015526924347538818,0.4875
0.0015857284440039642,0.4875
0.0015857284440039642,0.4895833333333333
0.0016022464486290056,0.4895833333333333
0.0016022464486290056,0.49027777777777776
0.001618764453254047,0.49027777777777776
0.001618764453254047,0.4986111111111111
0.0016352824578790882,0.4986111111111111
0.0016352824578790882,0.5
0.0016518004625041295,0.5
0.0016518004625041295,0.5006944444444444
0.0016848364717542122,0.5006944444444444
0.0016848364717542122,0.5020833333333333
0.0016848364717542122,0.5069444444444444
0.0016848364717542122,0.5083333333333333
0.0017178724810042946,0.5083333333333333
0.0017178724810042946,0.5111111111111111
0.001734390485629336,0.5111111111111111
0.001734390485629336,0.5118055555555555
0.0017509084902543773,0.5118055555555555
0.0017509084902543773,0.5125
0.0017674264948794186,0.5125
0.0017674264948794186,0.5131944444444444
0.00178394449950446,0.5131944444444444
0.00178394449950446,0.5138888888888888
0.0018004625041295012,0.5138888888888888
0.0018004625041295012,0.5152777777777777
0.0018334985133795837,0.5152777777777777
0.0018334985133795837,0.5159722222222223
0.001850016518004625,0.5159722222222223
0.001850016518004625,0.5166666666666667
0.0018665345226296663,0.5166666666666667
0.0018665345226296663,0.5173611111111112
0.0018830525272547076,0.5173611111111112
0.0018830525272547076,0.51875
0.001899570531879749,0.51875
0.001899570531879749,0.5201388888888889
0.0019326065411298316,0.5201388888888889
0.0019326065411298316,0.5215277777777778
0.001965642550379914,0.5215277777777778
0.001965642550379914,0.5229166666666667
0.0019821605550049554,0.5229166666666667
0.0019821605550049554,0.525
0.0019986785596299967,0.525
0.0019986785596299967,0.5291666666666667
0.002015196564255038,0.5291666666666667
0.002015196564255038,0.5298611111111111
0.0020317145688800793,0.5298611111111111
0.0020317145688800793,0.5305555555555556
0.0020482325735051207,0.5305555555555556
0.0020482325735051207,0.5340277777777778
0.002064750578130162,0.5340277777777778
0.002064750578130162,0.5368055555555555
0.0020812685827552033,0.5368055555555555
0.0020812685827552033,0.5375
0.0021308225966303273,0.5375
0.0021308225966303273,0.5381944444444444
0.002147340601255368,0.5381944444444444
0.002147340601255368,0.5409722222222222
0.0021638586058804095,0.5409722222222222
0.0021638586058804095,0.54375
0.002180376610505451,0.54375
0.002180376610505451,0.5444444444444444
0.0022134126197555335,0.5444444444444444
0.0022134126197555335,0.5451388888888888
0.002246448629005616,0.5451388888888888
0.002246448629005616,0.5465277777777777
0.0022794846382556988,0.5465277777777777
0.0022794846382556988,0.5472222222222223
0.0023125206475057814,0.5472222222222223
0.0023125206475057814,0.5486111111111112
0.0023290386521308227,0.5486111111111112
0.0023290386521308227,0.5493055555555556
0.0023785926660059467,0.5493055555555556
0.0023785926660059467,0.5506944444444445
0.002461182689131153,0.5506944444444445
0.002461182689131153,0.5520833333333334
0.002461182689131153,0.5527777777777778
0.002477700693756194,0.5527777777777778
0.002477700693756194,0.5534722222222223
0.0024942186983812355,0.5534722222222223
0.0024942186983812355,0.5541666666666667
0.002527254707631318,0.5541666666666667
0.002527254707631318,0.5604166666666667
0.0025437727122563595,0.5604166666666667
0.0025437727122563595,0.5618055555555556
0.002576808721506442,0.5618055555555556
0.002576808721506442,0.5645833333333333
0.002609844730756525,0.5645833333333333
0.002609844730756525,0.5666666666666667
0.002642880740006607,0.5666666666666667
0.002642880740006607,0.5701388888888889
0.0026593987446316483,0.5701388888888889
0.0026593987446316483,0.5722222222222222
0.0026759167492566896,0.5722222222222222
0.0026759167492566896,0.575
0.0027089527585067723,0.575
0.0027089527585067723,0.5756944444444444
0.0027254707631318136,0.5756944444444444
0.0027254707631318136,0.5770833333333333
0.0027585067723818963,0.5770833333333333
0.0027585067723818963,0.5777777777777777
0.0027750247770069376,0.5777777777777777
0.0027750247770069376,0.5784722222222223
0.002791542781631979,0.5784722222222223
0.002791542781631979,0.5805555555555556
0.0028080607862570202,0.5805555555555556
0.0028080607862570202,0.5840277777777778
0.0028245787908820616,0.5840277777777778
0.0028245787908820616,0.5861111111111111
0.002841096795507103,0.5861111111111111
0.002841096795507103,0.5881944444444445
0.002857614800132144,0.5881944444444445
0.002857614800132144,0.5895833333333333
0.0028741328047571855,0.5895833333333333
0.0028741328047571855,0.5909722222222222
0.002923686818632309,0.5909722222222222
0.002923686818632309,0.5916666666666667
0.0029402048232573504,0.5916666666666667
0.0029402048232573504,0.59375
0.0029897588371324744,0.59375
0.0029897588371324744,0.5944444444444444
0.003022794846382557,0.5944444444444444
0.003022794846382557,0.5965277777777778
0.003022794846382557,0.5979166666666667
0.003072348860257681,0.5979166666666667
0.003072348860257681,0.5993055555555555
0.0030888668648827223,0.5993055555555555
0.0030888668648827223,0.6020833333333333
0.0031053848695077636,0.6020833333333333
0.0031053848695077636,0.6027777777777777
0.003154938883382887,0.6027777777777777
0.003154938883382887,0.6034722222222222
0.0031714568880079285,0.6034722222222222
0.0031714568880079285,0.6041666666666666
0.003254046911133135,0.6041666666666666
0.003254046911133135,0.6048611111111111
0.003303600925008259,0.6048611111111111
0.003303600925008259,0.6055555555555555
0.0033201189296333004,0.6055555555555555
0.0033201189296333004,0.60625
0.0033366369342583417,0.60625
0.0033366369342583417,0.6069444444444444
0.0033696729435084244,0.6069444444444444
0.0033696729435084244,0.6076388888888888
0.0034027089527585066,0.6076388888888888
0.0034027089527585066,0.6083333333333333
0.003419226957383548,0.6083333333333333
0.003419226957383548,0.6090277777777777
0.0034522629666336306,0.6090277777777777
0.0034522629666336306,0.6097222222222223
0.003518334985133796,0.6097222222222223
0.003518334985133796,0.6118055555555556
0.003584407003633961,0.6118055555555556
0.003584407003633961,0.6131944444444445
0.0036669970267591673,0.6131944444444445
0.0036669970267591673,0.6145833333333334
0.0036835150313842087,0.6145833333333334
0.0036835150313842087,0.6152777777777778
0.0037165510406342913,0.6152777777777778
0.0037165510406342913,0.6173611111111111
0.0038321770730095806,0.6173611111111111
0.0038321770730095806,0.6180555555555556
0.003848695077634622,0.6180555555555556
0.003848695077634622,0.61875
0.0038817310868847045,0.61875
0.0038817310868847045,0.6201388888888889
0.0039808391146349525,0.6201388888888889
0.0039808391146349525,0.6208333333333333
0.003997357119259993,0.6208333333333333
0.003997357119259993,0.6215277777777778
0.004013875123885034,0.6215277777777778
0.004013875123885034,0.6229166666666667
0.0040799471423851996,0.6229166666666667
0.0040799471423851996,0.625
0.004112983151635282,0.625
0.004112983151635282,0.6256944444444444
0.004146019160885365,0.6256944444444444
0.004146019160885365,0.6263888888888889
0.004195573174760489,0.6263888888888889
0.004195573174760489,0.6270833333333333
0.00421209117938553,0.6270833333333333
0.00421209117938553,0.6284722222222222
0.004245127188635613,0.6284722222222222
0.004245127188635613,0.6291666666666667
0.004294681202510736,0.6291666666666667
0.004294681202510736,0.6298611111111111
0.004311199207135778,0.6298611111111111
0.004311199207135778,0.6305555555555555
0.004344235216385861,0.6305555555555555
0.004344235216385861,0.6319444444444444
0.004426825239511067,0.6319444444444444
0.004426825239511067,0.6333333333333333
0.004476379253386191,0.6333333333333333
0.004476379253386191,0.6340277777777777
0.004542451271886356,0.6340277777777777
0.004542451271886356,0.6361111111111111
0.004575487281136438,0.6361111111111111
0.004575487281136438,0.6368055555555555
0.004625041295011563,0.6368055555555555
0.004625041295011563,0.6375
0.0046580773042616454,0.6375
0.0046580773042616454,0.6395833333333333
0.004691113313511728,0.6395833333333333
0.004691113313511728,0.6416666666666667
0.004707631318136769,0.6416666666666667
0.004707631318136769,0.6423611111111112
0.004740667327386852,0.6423611111111112
0.004740667327386852,0.6430555555555556
0.004773703336636934,0.6430555555555556
0.004773703336636934,0.64375
0.004790221341261975,0.64375
0.004790221341261975,0.6451388888888889
0.004806739345887017,0.6451388888888889
0.004806739345887017,0.6465277777777778
0.004806739345887017,0.6493055555555556
0.004823257350512058,0.6493055555555556
0.004823257350512058,0.6513888888888889
0.004872811364387182,0.6513888888888889
0.004872811364387182,0.6520833333333333
0.004955401387512388,0.6520833333333333
0.004955401387512388,0.6527777777777778
0.00497191939213743,0.6527777777777778
0.00497191939213743,0.6534722222222222
0.00510406342913776,0.6534722222222222
0.00510406342913776,0.6548611111111111
0.0051370994383878425,0.6548611111111111
0.0051370994383878425,0.65625
0.005153617443012884,0.65625
0.005153617443012884,0.6569444444444444
0.005170135447637925,0.6569444444444444
0.005170135447637925,0.6583333333333333
0.005203171456888008,0.6583333333333333
0.005203171456888008,0.6590277777777778
0.00521968946151305,0.6590277777777778
0.00521968946151305,0.6597222222222222
0.0052362074661380905,0.6597222222222222
0.0052362074661380905,0.6604166666666667
0.005269243475388173,0.6604166666666667
0.005269243475388173,0.6611111111111111
0.005285761480013214,0.6611111111111111
0.005285761480013214,0.6625
0.005302279484638256,0.6625
0.005302279484638256,0.6631944444444444
0.005318797489263297,0.6631944444444444
0.005318797489263297,0.6638888888888889
0.005368351503138421,0.6638888888888889
0.005368351503138421,0.6652777777777777
0.005384869507763462,0.6652777777777777
0.005384869507763462,0.6659722222222222
0.005434423521638586,0.6659722222222222
0.005434423521638586,0.6666666666666666
0.005450941526263627,0.6666666666666666
0.005450941526263627,0.6673611111111111
0.00548397753551371,0.6673611111111111
0.00548397753551371,0.6680555555555555
0.005566567558638916,0.6680555555555555
0.005566567558638916,0.6708333333333333
0.005583085563263958,0.6708333333333333
0.005583085563263958,0.6722222222222223
0.005632639577139081,0.6722222222222223
0.005632639577139081,0.6729166666666667
0.005649157581764123,0.6729166666666667
0.005649157581764123,0.6756944444444445
0.005682193591014206,0.6756944444444445
0.005682193591014206,0.6763888888888889
0.005830855632639577,0.6763888888888889
0.005830855632639577,0.6770833333333334
0.005847373637264618,0.6770833333333334
0.005847373637264618,0.6777777777777778
0.005880409646514701,0.6777777777777778
0.005880409646514701,0.6784722222222223
0.0058969276511397425,0.6784722222222223
0.0058969276511397425,0.6791666666666667
0.005913445655764783,0.6791666666666667
0.005913445655764783,0.6798611111111111
0.005929963660389825,0.6798611111111111
0.005929963660389825,0.6805555555555556
0.005962999669639908,0.6805555555555556
0.005962999669639908,0.6819444444444445
0.006012553683515031,0.6819444444444445
0.006012553683515031,0.6826388888888889
0.006045589692765114,0.6826388888888889
0.006062107697390155,0.6826388888888889
0.006062107697390155,0.6840277777777778
0.00612817971589032,0.6840277777777778
0.00612817971589032,0.6854166666666667
0.0061942517343904855,0.6854166666666667
0.0061942517343904855,0.6861111111111111
0.006227287743640568,0.6861111111111111
0.006227287743640568,0.6868055555555556
0.00624380574826561,0.6868055555555556
0.00624380574826561,0.6875
0.006260323752890651,0.6875
0.006260323752890651,0.6881944444444444
0.006276841757515692,0.6881944444444444
0.006276841757515692,0.6888888888888889
0.006342913776015857,0.6888888888888889
0.006359431780640899,0.6895833333333333
0.006458539808391147,0.6895833333333333
0.006458539808391147,0.6902777777777778
0.006541129831516353,0.6902777777777778
0.006541129831516353,0.6909722222222222
0.006607201850016518,0.6909722222222222
0.006607201850016518,0.6923611111111111
0.006706309877766766,0.6923611111111111
0.006706309877766766,0.6930555555555555
0.006722827882391807,0.6930555555555555
0.006722827882391807,0.69375
0.0067723818962669305,0.69375
0.0067723818962669305,0.6951388888888889
0.006821935910142055,0.6951388888888889
0.006821935910142055,0.6958333333333333
0.006854971919392138,0.6958333333333333
0.006854971919392138,0.6979166666666666
0.0068714899240171785,0.6979166666666666
0.0068714899240171785,0.7
0.006970597951767426,0.7
0.006970597951767426,0.7006944444444444
0.007036669970267592,0.7006944444444444
0.007036669970267592,0.7020833333333333
0.007053187974892633,0.7020833333333333
0.007053187974892633,0.7027777777777777
0.007218368021143046,0.7027777777777777
0.007218368021143046,0.7041666666666667
0.007234886025768088,0.7041666666666667
0.007234886025768088,0.7048611111111112
0.0072514040303931285,0.7048611111111112
0.0072514040303931285,0.7055555555555556
0.007300958044268252,0.7055555555555556
0.007300958044268252,0.70625
0.007416584076643542,0.70625
0.007416584076643542,0.7104166666666667
0.007449620085893624,0.7104166666666667
0.007449620085893624,0.7111111111111111
0.007499174099768748,0.7111111111111111
0.007499174099768748,0.7118055555555556
0.0075322101090188305,0.7118055555555556
0.0075322101090188305,0.7138888888888889
0.007581764122893954,0.7138888888888889
0.007581764122893954,0.7145833333333333
0.007598282127518996,0.7145833333333333
0.007598282127518996,0.7159722222222222
0.007647836141394119,0.7159722222222222
0.007647836141394119,0.7166666666666667
0.007746944169144367,0.7166666666666667
0.007746944169144367,0.7173611111111111
0.007796498183019491,0.7173611111111111
0.007796498183019491,0.71875
0.007829534192269574,0.71875
0.007829534192269574,0.7194444444444444
0.007945160224644863,0.7194444444444444
0.007945160224644863,0.7208333333333333
0.007961678229269905,0.7208333333333333
0.007961678229269905,0.7215277777777778
0.007994714238519987,0.7215277777777778
0.007994714238519987,0.7229166666666667
0.008027750247770069,0.7229166666666667
0.008027750247770069,0.7243055555555555
0.008126858275520317,0.7243055555555555
0.008126858275520317,0.725
0.008225966303270564,0.725
0.008225966303270564,0.7263888888888889
0.008259002312520648,0.7263888888888889
0.008259002312520648,0.7270833333333333
0.008473736372646184,0.7270833333333333
0.008506772381896267,0.7270833333333333
0.008539808391146349,0.7270833333333333
0.008539808391146349,0.7277777777777777
0.008556326395771391,0.7277777777777777
0.008556326395771391,0.7284722222222222
0.008605880409646514,0.7284722222222222
0.008605880409646514,0.7291666666666666
0.008738024446646845,0.7291666666666666
0.008738024446646845,0.7298611111111111
0.008754542451271887,0.7298611111111111
0.008771060455896929,0.7305555555555555
0.008771060455896929,0.73125
0.008903204492897257,0.73125
0.008903204492897257,0.7319444444444444
0.008985794516022464,0.7319444444444444
0.008985794516022464,0.7326388888888888
0.009018830525272548,0.7326388888888888
0.009018830525272548,0.7333333333333333
0.009068384539147671,0.7333333333333333
0.009068384539147671,0.7340277777777777
0.009200528576148002,0.7340277777777777
0.009200528576148002,0.7347222222222223
0.009299636603898249,0.7347222222222223
0.009299636603898249,0.7354166666666667
0.009349190617773373,0.7354166666666667
0.009349190617773373,0.7361111111111112
0.009415262636273538,0.7361111111111112
0.009415262636273538,0.7381944444444445
0.009448298645523621,0.7381944444444445
0.009448298645523621,0.7388888888888889
0.009712586719524281,0.7388888888888889
0.009712586719524281,0.7395833333333334
0.009729104724149323,0.7395833333333334
0.009729104724149323,0.7409722222222223
0.009778658738024446,0.7409722222222223
0.00981169474727453,0.7409722222222223
0.009844730756524612,0.7409722222222223
0.009844730756524612,0.7416666666666667
0.009877766765774695,0.7416666666666667
0.009877766765774695,0.7423611111111111
0.009976874793524942,0.7423611111111111
0.010009910802775026,0.7423611111111111
0.010026428807400066,0.7423611111111111
0.010026428807400066,0.7430555555555556
0.010042946812025107,0.7430555555555556
0.010042946812025107,0.74375
0.01007598282127519,0.74375
0.01007598282127519,0.7444444444444445
0.010125536835150314,0.7444444444444445
0.010125536835150314,0.7451388888888889
0.010175090849025438,0.7451388888888889
0.010175090849025438,0.7458333333333333
0.010224644862900562,0.7458333333333333
0.010224644862900562,0.7465277777777778
0.010323752890650809,0.7465277777777778
0.010323752890650809,0.7472222222222222
0.010389824909150974,0.7472222222222222
0.010389824909150974,0.7479166666666667
0.010406342913776016,0.7479166666666667
0.010406342913776016,0.7486111111111111
0.010472414932276181,0.7486111111111111
0.010472414932276181,0.7493055555555556
0.010538486950776346,0.7493055555555556
0.010538486950776346,0.7513888888888889
0.010555004955401388,0.7513888888888889
0.010555004955401388,0.7520833333333333
0.010571522960026428,0.7520833333333333
0.010571522960026428,0.7534722222222222
0.010621076973901553,0.7534722222222222
0.010621076973901553,0.7541666666666667
0.010703666997026759,0.7541666666666667
0.010703666997026759,0.7555555555555555
0.010934919061777338,0.7555555555555555
0.010934919061777338,0.75625
0.010951437066402378,0.75625
0.010951437066402378,0.7569444444444444
0.011182689131152957,0.7569444444444444
0.011182689131152957,0.7576388888888889
0.011232243145028081,0.7576388888888889
0.011232243145028081,0.7583333333333333
0.011248761149653123,0.7583333333333333
0.011248761149653123,0.7590277777777777
0.011331351172778328,0.7590277777777777
0.011331351172778328,0.7597222222222222
0.01134786917740337,0.7597222222222222
0.011380905186653452,0.7597222222222222
0.011397423191278493,0.7597222222222222
0.011397423191278493,0.7604166666666666
0.011496531219028742,0.7604166666666666
0.011496531219028742,0.7618055555555555
0.011529567228278824,0.7618055555555555
0.011529567228278824,0.7625
0.011579121242153947,0.7625
0.011579121242153947,0.7631944444444444
0.011645193260654113,0.7631944444444444
0.011645193260654113,0.7638888888888888
0.01172778328377932,0.7638888888888888
0.01172778328377932,0.7645833333333333
0.011959035348529897,0.7645833333333333
0.011959035348529897,0.7652777777777777
0.012008589362405021,0.7652777777777777
0.012008589362405021,0.7659722222222223
0.012041625371655105,0.7659722222222223
0.012041625371655105,0.7673611111111112
0.01210769739015527,0.7673611111111112
0.012140733399405352,0.7673611111111112
0.012223323422530559,0.7673611111111112
0.012223323422530559,0.7680555555555556
0.0122398414271556,0.7680555555555556
0.012272877436405682,0.7680555555555556
0.012305913445655764,0.7680555555555556
0.012305913445655764,0.76875
0.012338949454905847,0.76875
0.012338949454905847,0.7694444444444445
0.01237198546415593,0.7694444444444445
0.01237198546415593,0.7708333333333334
0.012388503468780971,0.7708333333333334
0.012388503468780971,0.7715277777777778
0.01250412950115626,0.7715277777777778
0.01250412950115626,0.7722222222222223
0.012570201519656425,0.7722222222222223
0.012570201519656425,0.7729166666666667
0.012619755533531549,0.7729166666666667
0.012619755533531549,0.7736111111111111
0.01263627353815659,0.7736111111111111
0.01263627353815659,0.775
0.012784935579781963,0.775
0.012784935579781963,0.7756944444444445
0.012817971589032045,0.7756944444444445
0.012817971589032045,0.7763888888888889
0.012851007598282128,0.7763888888888889
0.012851007598282128,0.7770833333333333
0.012917079616782293,0.7770833333333333
0.012917079616782293,0.7777777777777778
0.013032705649157582,0.7777777777777778
0.013032705649157582,0.7791666666666667
0.013082259663032706,0.7791666666666667
0.013082259663032706,0.7798611111111111
0.01313181367690783,0.7798611111111111
0.01313181367690783,0.7805555555555556
0.013313511727783283,0.7805555555555556
0.013313511727783283,0.78125
0.013462173769408656,0.78125
0.013462173769408656,0.7819444444444444
0.013561281797158903,0.7819444444444444
0.013561281797158903,0.7833333333333333
0.013594317806408986,0.7833333333333333
0.013594317806408986,0.7840277777777778
0.013726461843409317,0.7840277777777778
0.013726461843409317,0.7847222222222222
0.01379253386190948,0.7847222222222222
0.01379253386190948,0.7854166666666667
0.01389164188965973,0.7854166666666667
0.013924677898909811,0.7854166666666667
0.013957713908159895,0.7854166666666667
0.013957713908159895,0.7868055555555555
0.013990749917409976,0.7868055555555555
0.013990749917409976,0.7875
0.01417244796828543,0.7875
0.01417244796828543,0.7881944444444444
0.014238519986785596,0.7881944444444444
0.014238519986785596,0.7888888888888889
0.01427155599603568,0.7888888888888889
0.014387182028410968,0.7888888888888889
0.014387182028410968,0.7895833333333333
0.014502808060786257,0.7895833333333333
0.014502808060786257,0.7902777777777777
0.01453584407003634,0.7902777777777777
0.01453584407003634,0.7909722222222222
0.014634952097786588,0.7909722222222222
0.014634952097786588,0.7916666666666666
0.014684506111661711,0.7916666666666666
0.014684506111661711,0.7923611111111111
0.014717542120911795,0.7923611111111111
0.014717542120911795,0.7930555555555555
0.014734060125536835,0.7930555555555555
0.014734060125536835,0.7944444444444444
0.014965312190287414,0.7944444444444444
0.014965312190287414,0.7951388888888888
0.015262636273538157,0.7951388888888888
0.015262636273538157,0.7958333333333333
0.015295672282788239,0.7958333333333333
0.015295672282788239,0.7965277777777777
0.01542781631978857,0.7965277777777777
0.01542781631978857,0.7972222222222223
0.015758176412289396,0.7972222222222223
0.015758176412289396,0.7979166666666667
0.015906838453914766,0.7979166666666667
0.015906838453914766,0.7986111111111112
0.01593987446316485,0.7986111111111112
0.01593987446316485,0.7993055555555556
0.01608853650479022,0.7993055555555556
0.01608853650479022,0.8
0.016154608523290388,0.8
0.016154608523290388,0.8006944444444445
0.016237198546415595,0.8006944444444445
0.016237198546415595,0.8027777777777778
0.01635282457879088,0.8027777777777778
0.01635282457879088,0.8041666666666667
0.016402378592666005,0.8041666666666667
0.016402378592666005,0.8048611111111111
0.01641889659729105,0.8048611111111111
0.01641889659729105,0.8055555555555556
0.01656755863891642,0.8055555555555556
0.01656755863891642,0.80625
0.016732738685166833,0.80625
0.016732738685166833,0.8069444444444445
0.017112652791542782,0.8069444444444445
0.017112652791542782,0.8083333333333333
0.01719524281466799,0.8083333333333333
0.01719524281466799,0.8090277777777778
0.017294350842418236,0.8090277777777778
0.017294350842418236,0.8097222222222222
0.01747604889329369,0.8097222222222222
0.01747604889329369,0.8111111111111111
0.017657746944169144,0.8111111111111111
0.017657746944169144,0.8125
0.017674264948794184,0.8125
0.017674264948794184,0.8131944444444444
0.01775685497191939,0.8131944444444444
0.01775685497191939,0.8145833333333333
0.017938553022794845,0.8145833333333333
0.017938553022794845,0.8152777777777778
0.01871489924017179,0.8152777777777778
0.01871489924017179,0.8166666666666667
0.018814007267922036,0.8166666666666667
0.018814007267922036,0.8173611111111111
0.0188800792864222,0.8173611111111111
0.0188800792864222,0.8180555555555555
0.019028741328047574,0.8180555555555555
0.019028741328047574,0.81875
0.019177403369672944,0.81875
0.019177403369672944,0.8194444444444444
0.019193921374297984,0.8194444444444444
0.019193921374297984,0.8201388888888889
0.01925999339279815,0.8201388888888889
0.01925999339279815,0.8208333333333333
0.019326065411298315,0.8208333333333333
0.019326065411298315,0.8215277777777777
0.0196399074991741,0.8215277777777777
0.0196399074991741,0.8229166666666666
0.019689461513049223,0.8229166666666666
0.019689461513049223,0.8236111111111111
0.019739015526924347,0.8236111111111111
0.019739015526924347,0.8243055555555555
0.019838123554674594,0.8243055555555555
0.019838123554674594,0.825
0.0199207135777998,0.825
0.0199207135777998,0.8256944444444444
0.020003303600925008,0.8256944444444444
0.020003303600925008,0.8263888888888888
0.020185001651800462,0.8263888888888888
0.020185001651800462,0.8270833333333333
0.020350181698050876,0.8270833333333333
0.020350181698050876,0.8277777777777777
0.020432771721176083,0.8277777777777777
0.020432771721176083,0.8284722222222223
0.02053187974892633,0.8284722222222223
0.02053187974892633,0.8291666666666667
0.020564915758176414,0.8291666666666667
0.020564915758176414,0.8305555555555556
0.020564915758176414,0.8326388888888889
0.020630987776676577,0.8326388888888889
0.020630987776676577,0.8333333333333334
0.020944829864552362,0.8333333333333334
0.020944829864552362,0.8340277777777778
0.02104393789230261,0.8340277777777778
0.02104393789230261,0.8347222222222223
0.021126527915427816,0.8347222222222223
0.021126527915427816,0.8354166666666667
0.021357779980178394,0.8354166666666667
0.021357779980178394,0.8361111111111111
0.02165510406342914,0.8361111111111111
0.02165510406342914,0.8368055555555556
0.021853320118929632,0.8368055555555556
0.021853320118929632,0.8375
0.02195242814667988,0.8375
0.02195242814667988,0.8381944444444445
0.022150644202180377,0.8381944444444445
0.022150644202180377,0.8388888888888889
0.02221671622068054,0.8388888888888889
0.02221671622068054,0.8395833333333333
0.022282788239180708,0.8395833333333333
0.022282788239180708,0.8402777777777778
0.02234886025768087,0.8402777777777778
0.02234886025768087,0.8409722222222222
0.02243145028080608,0.8409722222222222
0.02243145028080608,0.8416666666666667
0.022514040303931285,0.8416666666666667
0.022514040303931285,0.8423611111111111
0.022530558308556325,0.8423611111111111
0.02256359431780641,0.8423611111111111
0.022728774364056823,0.8423611111111111
0.022728774364056823,0.8430555555555556
0.022910472414932277,0.8430555555555556
0.022943508424182357,0.8430555555555556
0.023240832507433102,0.8430555555555556
0.023240832507433102,0.84375
0.023488602576808723,0.84375
0.023488602576808723,0.8444444444444444
0.023571192599933927,0.8444444444444444
0.023571192599933927,0.8451388888888889
0.02358771060455897,0.8451388888888889
0.02362074661380905,0.8451388888888889
0.023835480673934588,0.8451388888888889
0.02386851668318467,0.8451388888888889
0.02386851668318467,0.8458333333333333
0.023918070697059795,0.8458333333333333
0.023918070697059795,0.8465277777777778
0.023984142715559962,0.8465277777777778
0.023984142715559962,0.8472222222222222
0.02411628675256029,0.8472222222222222
0.02411628675256029,0.8479166666666667
0.02423191278493558,0.8479166666666667
0.02423191278493558,0.8486111111111111
0.024677898909811695,0.8486111111111111
0.024677898909811695,0.8493055555555555
0.025355137099438388,0.8493055555555555
0.025355137099438388,0.85
0.025520317145688802,0.85
0.025520317145688802,0.8506944444444444
0.025817641228939543,0.8506944444444444
0.025817641228939543,0.8513888888888889
0.025999339279814997,0.8513888888888889
0.025999339279814997,0.8520833333333333
0.026197555335315495,0.8520833333333333
0.026197555335315495,0.8527777777777777
0.026610505450941527,0.8527777777777777
0.026610505450941527,0.8534722222222222
0.026957383548067395,0.8534722222222222
0.026957383548067395,0.8541666666666666
0.026990419557317475,0.8541666666666666
0.02702345556656756,0.8541666666666666
0.0270399735711926,0.8541666666666666
0.0270399735711926,0.8548611111111111
0.027403369672943507,0.8548611111111111
0.027403369672943507,0.8555555555555555
0.027535513709943837,0.8555555555555555
0.027535513709943837,0.8569444444444444
0.02756854971919392,0.8569444444444444
0.02756854971919392,0.8576388888888888
0.027667657746944168,0.8576388888888888
0.027667657746944168,0.8583333333333333
0.027865873802444666,0.8583333333333333
0.027865873802444666,0.8590277777777777
0.028113643871820283,0.8590277777777777
0.028113643871820283,0.8597222222222223
0.028163197885695407,0.8597222222222223
0.028163197885695407,0.8604166666666667
0.02847703997357119,0.8604166666666667
0.02847703997357119,0.8611111111111112
0.0288404360753221,0.8611111111111112
0.028873472084572183,0.8611111111111112
0.02893954410307235,0.8611111111111112
0.02893954410307235,0.8625
0.02897258011232243,0.8625
0.02897258011232243,0.8631944444444445
0.029005616121572514,0.8631944444444445
0.029005616121572514,0.8638888888888889
0.029269904195573175,0.8638888888888889
0.029269904195573175,0.8645833333333334
0.02943508424182359,0.8645833333333334
0.02943508424182359,0.8652777777777778
0.029501156260323753,0.8652777777777778
0.029501156260323753,0.8659722222222223
0.029534192269573836,0.8659722222222223
0.02956722827882392,0.8659722222222223
0.029781962338949454,0.8659722222222223
0.029781962338949454,0.8666666666666667
0.029814998348199537,0.8666666666666667
0.029814998348199537,0.8673611111111111
0.02999669639907499,0.8673611111111111
0.02999669639907499,0.8680555555555556
0.030459200528576147,0.8680555555555556
0.030459200528576147,0.86875
0.030822596630327055,0.86875
0.030822596630327055,0.8694444444444445
0.031020812685827553,0.8694444444444445
0.031020812685827553,0.8701388888888889
0.031301618764453254,0.8701388888888889
0.031301618764453254,0.8708333333333333
0.03178064089857945,0.8708333333333333
0.03178064089857945,0.8715277777777778
0.03191278493557978,0.8715277777777778
0.03191278493557978,0.8722222222222222
0.03277172117608193,0.8722222222222222
0.03277172117608193,0.8729166666666667
0.03295341922695738,0.8729166666666667
0.03295341922695738,0.8736111111111111
0.033085563263957715,0.8736111111111111
0.033085563263957715,0.8743055555555556
0.03351503138420879,0.8743055555555556
0.03354806739345887,0.8743055555555556
0.03481995374958705,0.8743055555555556
0.03481995374958705,0.875
0.03510075982821275,0.875
0.03510075982821275,0.8756944444444444
0.03554674595308887,0.8756944444444444
0.03554674595308887,0.8770833333333333
0.03576148001321441,0.8770833333333333
0.03576148001321441,0.8777777777777778
0.036042286091840105,0.8777777777777778
0.036042286091840105,0.8791666666666667
0.03610835811034027,0.8791666666666667
0.03610835811034027,0.8798611111111111
0.036190948133465475,0.8798611111111111
0.036190948133465475,0.8805555555555555
0.036636934258341594,0.8805555555555555
0.036636934258341594,0.8819444444444444
0.03724810042946812,0.8819444444444444
0.03724810042946812,0.8826388888888889
0.03739676247109349,0.8826388888888889
0.03739676247109349,0.8833333333333333
0.037561942517343905,0.8833333333333333
0.037561942517343905,0.8840277777777777
0.03787578460521969,0.8840277777777777
0.03790882061446977,0.8840277777777777
0.03812355467459531,0.8840277777777777
0.038156590683845394,0.8840277777777777
0.038222662702345554,0.8840277777777777
0.038222662702345554,0.8847222222222222
0.0387182028410968,0.8847222222222222
0.0387182028410968,0.8854166666666666
0.03929633300297324,0.8854166666666666
0.03932936901222332,0.8854166666666666
0.039378923026098446,0.8854166666666666
0.039378923026098446,0.8861111111111111
0.03941195903534853,0.8861111111111111
0.03941195903534853,0.8868055555555555
0.03964321110009911,0.8868055555555555
0.03964321110009911,0.8875
0.04002312520647506,0.8875
0.04002312520647506,0.8881944444444444
0.04017178724810043,0.8881944444444444
0.04017178724810043,0.8888888888888888
0.0402378592666006,0.8888888888888888
0.0402378592666006,0.8895833333333333
0.04030393128510076,0.8895833333333333
0.04030393128510076,0.8902777777777777
0.04046911133135117,0.8902777777777777
0.04046911133135117,0.8909722222222223
0.04056821935910142,0.8909722222222223
0.04056821935910142,0.8916666666666667
0.04073339940535183,0.8916666666666667
0.04076643541460192,0.8916666666666667
0.04103072348860258,0.8916666666666667
0.04103072348860258,0.8923611111111112
0.04169144367360423,0.8923611111111112
0.04169144367360423,0.8930555555555556
0.04179055170135448,0.8930555555555556
0.04179055170135448,0.89375
0.04198876775685497,0.89375
0.04202180376610506,0.89375
0.04248430789560621,0.89375
0.04248430789560621,0.8944444444444445
0.04309547406673274,0.8944444444444445
0.04309547406673274,0.8951388888888889
0.04377271225635943,0.8951388888888889
0.04377271225635943,0.8958333333333334
0.0438387842748596,0.8958333333333334
0.0438387842748596,0.8965277777777778
0.04398744631648497,0.8965277777777778
0.04398744631648497,0.8979166666666667
0.04403700033036009,0.8979166666666667
0.04407003633961017,0.8979166666666667
0.04428477039973571,0.8979166666666667
0.0443178064089858,0.8979166666666667
0.04540799471423852,0.8979166666666667
0.04540799471423852,0.8986111111111111
0.04595308886686488,0.8986111111111111
0.04595308886686488,0.8993055555555556
0.046085232903865216,0.8993055555555556
0.046085232903865216,0.9
0.046399074991741,0.9
0.04643211100099108,0.9
0.046894615130492236,0.9
0.046894615130492236,0.9006944444444445
0.04717542120911794,0.9006944444444445
0.04720845721836802,0.9006944444444445
0.047753551370994386,0.9006944444444445
0.047753551370994386,0.9013888888888889
0.04824909150974562,0.9013888888888889
0.04824909150974562,0.9020833333333333
0.048381235546745956,0.9020833333333333
0.048381235546745956,0.9027777777777778
0.04851337958374628,0.9027777777777778
0.04851337958374628,0.9034722222222222
0.048529897588371326,0.9034722222222222
0.048529897588371326,0.9041666666666667
0.04909150974562273,0.9041666666666667
0.04909150974562273,0.9048611111111111
0.0508424182358771,0.9048611111111111
0.0508424182358771,0.90625
0.05090849025437727,0.90625
0.05094152626362736,0.90625
0.05113974231912785,0.90625
0.05113974231912785,0.9069444444444444
0.051337958374628345,0.9069444444444444
0.051337958374628345,0.9076388888888889
0.05155269243475388,0.9076388888888889
0.05155269243475388,0.9083333333333333
0.05186653452262967,0.9083333333333333
0.05189957053187975,0.9083333333333333
0.052229930624380576,0.9083333333333333
0.052229930624380576,0.9090277777777778
0.05310538486950776,0.9090277777777778
0.05310538486950776,0.9097222222222222
0.053121902874132806,0.9097222222222222
0.053121902874132806,0.9104166666666667
0.05368351503138421,0.9104166666666667
0.05368351503138421,0.9111111111111111
0.05434423521638586,0.9111111111111111
0.05434423521638586,0.9118055555555555
0.054410307234886025,0.9118055555555555
0.054410307234886025,0.9131944444444444
0.05465807730426164,0.9131944444444444
0.05465807730426164,0.9138888888888889
0.05495540138751239,0.9138888888888889
0.05498843739676247,0.9138888888888889
0.05521968946151305,0.9138888888888889
0.05521968946151305,0.9145833333333333
0.05525272547076313,0.9145833333333333
0.05525272547076313,0.9152777777777777
0.055896927651139745,0.9152777777777777
0.055896927651139745,0.9159722222222222
0.05617773372976544,0.9159722222222222
0.05617773372976544,0.9166666666666666
0.05693756194251735,0.9166666666666666
0.05693756194251735,0.9173611111111111
0.05802775024777007,0.9173611111111111
0.05802775024777007,0.9180555555555555
0.05923356458539809,0.9180555555555555
0.05923356458539809,0.91875
0.05958044268252395,0.91875
0.05958044268252395,0.9194444444444444
0.05964651470102412,0.9194444444444444
0.0596795507102742,0.9194444444444444
0.05981169474727453,0.9194444444444444
0.05981169474727453,0.9201388888888888
0.05991080277502478,0.9201388888888888
0.05991080277502478,0.9208333333333333
0.05994383878427486,0.9208333333333333
0.05994383878427486,0.9215277777777777
0.061182689131152955,0.9215277777777777
0.061182689131152955,0.9222222222222223
0.06179385530227949,0.9222222222222223
0.06179385530227949,0.9229166666666667
0.06190948133465477,0.9229166666666667
0.06190948133465477,0.9236111111111112
0.06212421539478031,0.9236111111111112
0.062157251404030396,0.9236111111111112
0.06235546745953089,0.9236111111111112
0.06235546745953089,0.9243055555555556
0.06237198546415593,0.9243055555555556
0.062405021473406014,0.9243055555555556
0.06265279154278164,0.9243055555555556
0.06265279154278164,0.925
0.06283448959365709,0.925
0.06283448959365709,0.9256944444444445
0.06349520977865873,0.9256944444444445
0.06351172778328378,0.9263888888888889
0.0639577139081599,0.9263888888888889
0.0639577139081599,0.9270833333333334
0.06433762801453584,0.9270833333333334
0.06433762801453584,0.9277777777777778
0.06435414601916088,0.9284722222222223
0.06503138420878758,0.9284722222222223
0.06506442021803766,0.9284722222222223
0.0656755863891642,0.9284722222222223
0.06570862239841427,0.9284722222222223
0.06602246448629005,0.9284722222222223
0.06602246448629005,0.9298611111111111
0.06613809051866534,0.9298611111111111
0.06613809051866534,0.9305555555555556
0.06678229269904196,0.9305555555555556
0.06678229269904196,0.93125
0.06689791873141725,0.93125
0.06689791873141725,0.9319444444444445
0.06711265279154278,0.9319444444444445
0.06711265279154278,0.9326388888888889
0.06795507102741989,0.9326388888888889
0.06795507102741989,0.9333333333333333
0.06805417905517014,0.9333333333333333
0.06805417905517014,0.9340277777777778
0.06854971919392137,0.9340277777777778
0.06854971919392137,0.9347222222222222
0.06866534522629666,0.9347222222222222
0.06869838123554675,0.9347222222222222
0.06891311529567229,0.9347222222222222
0.06894615130492236,0.9347222222222222
0.06967294350842418,0.9347222222222222
0.06967294350842418,0.9354166666666667
0.06968946151304922,0.9354166666666667
0.06968946151304922,0.9361111111111111
0.07025107367030063,0.9361111111111111
0.07025107367030063,0.9368055555555556
0.07056491575817642,0.9368055555555556
0.07059795176742649,0.9368055555555556
0.07073009580442682,0.9368055555555556
0.07076313181367691,0.9368055555555556
0.07077964981830195,0.9368055555555556
0.07077964981830195,0.9375
0.07079616782292698,0.9375
0.07082920383217707,0.9375
0.07084572183680211,0.9375
0.07084572183680211,0.9381944444444444
0.07221671622068054,0.9381944444444444
0.07221671622068054,0.9388888888888889
0.07258011232243144,0.9388888888888889
0.07258011232243144,0.9395833333333333
0.07284440039643211,0.9395833333333333
0.07286091840105716,0.9402777777777778
0.0733234225305583,0.9402777777777778
0.0733234225305583,0.9409722222222222
0.07368681863230922,0.9409722222222222
0.0737198546415593,0.9409722222222222
0.07375289065080938,0.9409722222222222
0.07375289065080938,0.9416666666666667
0.07413280475718534,0.9416666666666667
0.07413280475718534,0.9423611111111111
0.07426494879418566,0.9423611111111111
0.07429798480343575,0.9423611111111111
0.07441361083581104,0.9423611111111111
0.07441361083581104,0.9430555555555555
0.07484307895606211,0.9430555555555555
0.07484307895606211,0.94375
0.07580112322431451,0.94375
0.07580112322431451,0.9444444444444444
0.0766435414601916,0.9444444444444444
0.07667657746944169,0.9444444444444444
0.07669309547406673,0.9444444444444444
0.07669309547406673,0.9451388888888889
0.07672613148331682,0.9451388888888889
0.07672613148331682,0.9458333333333333
0.07758506772381896,0.9458333333333333
0.07758506772381896,0.9465277777777777
0.0797984803435745,0.9465277777777777
0.0797984803435745,0.9472222222222222
0.07989758837132474,0.9472222222222222
0.07989758837132474,0.9479166666666666
0.08011232243145028,0.9479166666666666
0.08014535844070036,0.9479166666666666
0.08120251073670301,0.9479166666666666
0.08120251073670301,0.9486111111111111
0.08330029732408326,0.9486111111111111
0.08330029732408326,0.9493055555555555
0.08334985133795837,0.9493055555555555
0.08334985133795837,0.95
0.08353154938883382,0.95
0.08356458539808391,0.95
0.08458870168483647,0.95
0.08462173769408655,0.95
0.08467129170796169,0.95
0.08467129170796169,0.9506944444444444
0.08478691774033696,0.9506944444444444
0.08478691774033696,0.9513888888888888
0.0854806739345887,0.9513888888888888
0.08551370994383878,0.9513888888888888
0.08553022794846382,0.9513888888888888
0.08553022794846382,0.9520833333333333
0.08564585398083911,0.9520833333333333
0.08564585398083911,0.9527777777777777
0.08620746613809052,0.9527777777777777
0.08620746613809052,0.9534722222222223
0.08640568219359102,0.9534722222222223
0.08640568219359102,0.9541666666666667
0.08658738024446647,0.9541666666666667
0.08658738024446647,0.9548611111111112
0.08818962669309548,0.9548611111111112
0.08822266270234555,0.9548611111111112
0.0885199867855963,0.9548611111111112
0.0885199867855963,0.9555555555555556
0.08894945490584738,0.9555555555555556
0.08894945490584738,0.95625
0.08946151304922366,0.95625
0.08946151304922366,0.9569444444444445
0.08972580112322431,0.9569444444444445
0.08972580112322431,0.9576388888888889
0.08992401717872481,0.9576388888888889
0.0899570531879749,0.9576388888888889
0.0902048232573505,0.9576388888888889
0.09023785926660059,0.9576388888888889
0.09060125536835151,0.9576388888888889
0.09063429137760158,0.9576388888888889
0.0923191278493558,0.9576388888888889
0.0923191278493558,0.9583333333333334
0.09235216385860588,0.9583333333333334
0.09235216385860588,0.9597222222222223
0.09283118599273207,0.9597222222222223
0.09286422200198216,0.9597222222222223
0.09332672613148332,0.9597222222222223
0.0933597621407334,0.9597222222222223
0.09378923026098447,0.9597222222222223
0.09378923026098447,0.9604166666666667
0.09425173439048563,0.9604166666666667
0.0942847703997357,0.9604166666666667
0.09454905847373637,0.9604166666666667
0.09458209448298646,0.9604166666666667
0.09461513049223653,0.9604166666666667
0.09461513049223653,0.9611111111111111
0.09464816650148662,0.9611111111111111
0.09479682854311199,0.9611111111111111
0.09482986455236207,0.9611111111111111
0.09658077304261645,0.9611111111111111
0.09658077304261645,0.9618055555555556
0.09725801123224315,0.9618055555555556
0.09729104724149323,0.9618055555555556
0.09824909150974562,0.9618055555555556
0.09824909150974562,0.9625
0.09940535183349851,0.9625
0.0994383878427486,0.9625
0.10077634621737694,0.9625
0.10080938222662703,0.9625
0.10133795837462835,0.9625
0.10137099438387842,0.9625
0.10173439048562934,0.9625
0.10176742649487942,0.9625
0.10206475057813016,0.9625
0.10209778658738024,0.9625
0.10287413280475718,0.9625
0.10287413280475718,0.9631944444444445
0.10412950115626032,0.9631944444444445
0.10412950115626032,0.9638888888888889
0.10521968946151306,0.9638888888888889
0.10525272547076313,0.9638888888888889
0.10581433762801454,0.9638888888888889
0.10584737363726462,0.9638888888888889
0.10614469772051537,0.9638888888888889
0.10614469772051537,0.9645833333333333
0.10685497191939214,0.9645833333333333
0.10688800792864223,0.9645833333333333
0.10731747604889329,0.9645833333333333
0.10731747604889329,0.9652777777777778
0.10911793855302279,0.9652777777777778
0.10911793855302279,0.9659722222222222
0.11019160885365048,0.9659722222222222
0.11025768087215064,0.9659722222222222
0.11027419887677568,0.9659722222222222
0.11027419887677568,0.9666666666666667
0.11103402708952759,0.9666666666666667
0.11103402708952759,0.9673611111111111
0.11121572514040304,0.9673611111111111
0.11124876114965312,0.9673611111111111
0.11263627353815658,0.9673611111111111
0.11266930954740667,0.9673611111111111
0.11296663363065741,0.9673611111111111
0.1129996696399075,0.9673611111111111
0.1137594978526594,0.9673611111111111
0.11379253386190948,0.9673611111111111
0.11579121242153947,0.9673611111111111
0.11582424843078956,0.9673611111111111
0.11582424843078956,0.9680555555555556
0.11618764453254046,0.9680555555555556
0.11622068054179055,0.9680555555555556
0.11787248100429468,0.9680555555555556
0.11787248100429468,0.96875
0.11889659729104723,0.96875
0.11892963330029732,0.96875
0.11892963330029732,0.9694444444444444
0.12253055830855633,0.9694444444444444
0.1225635943178064,0.9694444444444444
0.12322431450280806,0.9694444444444444
0.12322431450280806,0.9701388888888889
0.12578460521968945,0.9701388888888889
0.12581764122893954,0.9701388888888889
0.125999339279815,0.9701388888888889
0.125999339279815,0.9708333333333333
0.12829534192269573,0.9708333333333333
0.12834489593657086,0.9708333333333333
0.12860918401057153,0.9708333333333333
0.12864222001982162,0.9708333333333333
0.13002973240832508,0.9708333333333333
0.13006276841757516,0.9708333333333333
0.13006276841757516,0.9715277777777778
0.13039312851007598,0.9715277777777778
0.13039312851007598,0.9722222222222222
0.13505120581433763,0.9722222222222222
0.13508424182358772,0.9722222222222222
0.13633961017509086,0.9722222222222222
0.13637264618434095,0.9722222222222222
0.13696729435084243,0.9722222222222222
0.1370003303600925,0.9722222222222222
0.13777667657746945,0.9722222222222222
0.13777667657746945,0.9729166666666667
0.1397258011232243,0.9729166666666667
0.1397258011232243,0.9736111111111111
0.14099768747935248,0.9736111111111111
0.14103072348860257,0.9736111111111111
0.144400396432111,0.9736111111111111
0.1444334324413611,0.9736111111111111
0.14509415262636274,0.9736111111111111
0.1451106706309878,0.9743055555555555
0.14539147670961347,0.9743055555555555
0.14542451271886356,0.9743055555555555
0.14549058473736373,0.9743055555555555
0.14552362074661382,0.9743055555555555
0.148397753551371,0.9743055555555555
0.14843078956062108,0.9743055555555555
0.1487281136438718,0.9743055555555555
0.1487281136438718,0.975
0.14910802775024776,0.975
0.14914106375949784,0.975
0.15294020482325735,0.975
0.15294020482325735,0.9756944444444444
0.15310538486950775,0.9756944444444444
0.15310538486950775,0.9763888888888889
0.1545589692765114,0.9763888888888889
0.15459200528576147,0.9763888888888889
0.15715229600264288,0.9763888888888889
0.15718533201189297,0.9763888888888889
0.1572844400396432,0.9763888888888889
0.1573174760488933,0.9763888888888889
0.15764783614139413,0.9763888888888889
0.15764783614139413,0.9770833333333333
0.1586719524281467,0.9770833333333333
0.15870498843739675,0.9770833333333333
0.15882061446977205,0.9770833333333333
0.15885365047902214,0.9770833333333333
0.1597125867195243,0.9770833333333333
0.1597125867195243,0.9777777777777777
0.16070366699702676,0.9777777777777777
0.16070366699702676,0.9784722222222222
0.161199207135778,0.9784722222222222
0.16123224314502807,0.9784722222222222
0.1619259993392798,0.9784722222222222
0.1619590353485299,0.9784722222222222
0.16250412950115625,0.9784722222222222
0.16250412950115625,0.9791666666666666
0.16304922365378263,0.9791666666666666
0.16308225966303272,0.9791666666666666
0.16470102411628676,0.9791666666666666
0.16470102411628676,0.9798611111111111
0.16504790221341262,0.9798611111111111
0.1650809382226627,0.9798611111111111
0.1660389824909151,0.9798611111111111
0.16607201850016517,0.9798611111111111
0.16655104063429138,0.9798611111111111
0.16655104063429138,0.9805555555555555
0.1670796167822927,0.9805555555555555
0.1670796167822927,0.98125
0.1673934588701685,0.98125
0.16742649487941857,0.98125
0.1678889990089197,0.98125
0.1679220350181698,0.98125
0.16795507102741988,0.98125
0.16798810703666997,0.98125
0.16884704327717212,0.98125
0.1688800792864222,0.98125
0.16952428146679882,0.98125
0.16955731747604888,0.98125
0.17056491575817642,0.98125
0.17056491575817642,0.9819444444444444
0.17182028410967956,0.9819444444444444
0.17185332011892962,0.9819444444444444
0.17195242814667988,0.9819444444444444
0.17195242814667988,0.9826388888888888
0.1723653782623059,0.9826388888888888
0.172398414271556,0.9826388888888888
0.17429798480343575,0.9826388888888888
0.17433102081268584,0.9826388888888888
0.17594978526593988,0.9826388888888888
0.17598282127518997,0.9826388888888888
0.17631318136769078,0.9826388888888888
0.17634621737694087,0.9826388888888888
0.1774859596960687,0.9826388888888888
0.1774859596960687,0.9833333333333333
0.18105384869507762,0.9833333333333333
0.18105384869507762,0.9840277777777777
0.18161546085232905,0.9840277777777777
0.18164849686157913,0.9840277777777777
0.18229269904195572,0.9840277777777777
0.1823257350512058,0.9840277777777777
0.1825569871159564,0.9840277777777777
0.18259002312520647,0.9840277777777777
0.18330029732408326,0.9840277777777777
0.18333333333333332,0.9840277777777777
0.18358110340270895,0.9840277777777777
0.18361413941195903,0.9840277777777777
0.18406012553683515,0.9840277777777777
0.18409316154608524,0.9840277777777777
0.18420878757846051,0.9840277777777777
0.1842418235877106,0.9840277777777777
0.18447307565246118,0.9840277777777777
0.18450611166171127,0.9840277777777777
0.1845226296663363,0.9840277777777777
0.1845556656755864,0.9840277777777777
0.18602576808721508,0.9840277777777777
0.18605880409646514,0.9840277777777777
0.18769408655434425,0.9840277777777777
0.1877271225635943,0.9840277777777777
0.1888833828873472,0.9840277777777777
0.1889164188965973,0.9840277777777777
0.18951106706309878,0.9840277777777777
0.18954410307234887,0.9840277777777777
0.1929633300297324,0.9840277777777777
0.1929963660389825,0.9840277777777777
0.1950776346217377,0.9840277777777777
0.1950776346217377,0.9847222222222223
0.19511067063098778,0.9847222222222223
0.19511067063098778,0.9854166666666667
0.19710934919061776,0.9854166666666667
0.19710934919061776,0.9861111111111112
0.2005616121572514,0.9861111111111112
0.2005946481665015,0.9861111111111112
0.20109018830525272,0.9861111111111112
0.2011232243145028,0.9861111111111112
0.20213082259663032,0.9861111111111112
0.2021638586058804,0.9861111111111112
0.20403039312851007,0.9861111111111112
0.20406342913776016,0.9861111111111112
0.2045589692765114,0.9861111111111112
0.2045920052857615,0.9861111111111112
0.20702015196564255,0.9861111111111112
0.20705318797489264,0.9861111111111112
0.20946481665014866,0.9861111111111112
0.20949785265939874,0.9861111111111112
0.2101255368351503,0.9861111111111112
0.2101585728444004,0.9861111111111112
0.21181037330690453,0.9861111111111112
0.2118434093161546,0.9861111111111112
0.21189296333002974,0.9861111111111112
0.2119259993392798,0.9861111111111112
0.21238850346878096,0.9861111111111112
0.21242153947803105,0.9861111111111112
0.21247109349190618,0.9861111111111112
0.21250412950115627,0.9861111111111112
0.21334654773703338,0.9861111111111112
0.21337958374628344,0.9861111111111112
0.2148827221671622,0.9861111111111112
0.21491575817641229,0.9861111111111112
0.21532870829203832,0.9861111111111112
0.2153617443012884,0.9861111111111112
0.2184836471754212,0.9861111111111112
0.2185166831846713,0.9861111111111112
0.21856623719854643,0.9861111111111112
0.21859927320779649,0.9861111111111112
0.21921043937892304,0.9861111111111112
0.2192434753881731,0.9861111111111112
0.21970597951767426,0.9861111111111112
0.21973901552692435,0.9861111111111112
0.22111000991080276,0.9861111111111112
0.22114304592005285,0.9861111111111112
0.22195242814667987,0.9861111111111112
0.22198546415592996,0.9861111111111112
0.22505781301618766,0.9861111111111112
0.22509084902543772,0.9861111111111112
0.2258011232243145,0.9861111111111112
0.2258341592335646,0.9861111111111112
0.22657746944169144,0.9861111111111112
0.22661050545094152,0.9861111111111112
0.2274033696729435,0.9861111111111112
0.2274364056821936,0.9861111111111112
0.22877436405682194,0.9861111111111112
0.22880740006607203,0.9861111111111112
0.2288404360753221,0.9861111111111112
0.22887347208457218,0.9861111111111112
0.229996696399075,0.9861111111111112
0.23002973240832508,0.9861111111111112
0.23050875454245126,0.9861111111111112
0.23054179055170135,0.9861111111111112
0.23135117277832837,0.9861111111111112
0.23138420878757845,0.9861111111111112
0.23305252725470763,0.9861111111111112
0.2330855632639577,0.9861111111111112
0.23440700363396103,0.9861111111111112
0.2344400396432111,0.9861111111111112
0.2345226296663363,0.9861111111111112
0.2345226296663363,0.9868055555555556
0.23853650479022134,0.9868055555555556
0.23853650479022134,0.9875
0.24112983151635284,0.9875
0.2411628675256029,0.9875
0.24193921374297986,0.9875
0.24193921374297986,0.9881944444444445
0.2440865543442352,0.9881944444444445
0.2441195903534853,0.9881944444444445
0.2444334324413611,0.9881944444444445
0.24446646845061118,0.9881944444444445
0.24511067063098776,0.9881944444444445
0.24511067063098776,0.9888888888888889
0.24681202510736702,0.9888888888888889
0.2468450611166171,0.9888888888888889
0.24962008589362406,0.9888888888888889
0.24965312190287414,0.9888888888888889
0.25041295011562603,0.9888888888888889
0.2504459861248761,0.9888888888888889
0.25482325735051203,0.9888888888888889
0.2548562933597621,0.9888888888888889
0.25855632639577136,0.9888888888888889
0.25858936240502145,0.9888888888888889
0.2598777667657747,0.9888888888888889
0.2598777667657747,0.9895833333333334
0.26144697720515364,0.9895833333333334
0.2614800132144037,0.9895833333333334
0.26189296333002976,0.9895833333333334
0.2619259993392798,0.9895833333333334
0.26417244796828543,0.9895833333333334
0.26417244796828543,0.9902777777777778
0.2646679881070367,0.9902777777777778
0.26470102411628676,0.9902777777777778
0.2658738024446647,0.9902777777777778
0.2659068384539148,0.9902777777777778
0.2659563924677899,0.9902777777777778
0.26598942847704,0.9902777777777778
0.26684836471754214,0.9902777777777778
0.26688140072679223,0.9902777777777778
0.2679550710274199,0.9902777777777778
0.26798810703667,0.9902777777777778
0.270796167822927,0.9902777777777778
0.27082920383217707,0.9902777777777778
0.2709117938553023,0.9902777777777778
0.2709448298645524,0.9902777777777778
0.2726627023455567,0.9902777777777778
0.27269573835480676,0.9902777777777778
0.2727618103733069,0.9902777777777778
0.27279484638255697,0.9902777777777778
0.27421539478031054,0.9902777777777778
0.2742484307895606,0.9902777777777778
0.27462834489593657,0.9902777777777778
0.27466138090518666,0.9902777777777778
0.27598282127518997,0.9902777777777778
0.27598282127518997,0.9909722222222223
0.27654443343244134,0.9909722222222223
0.2765774694416914,0.9909722222222223
0.27705649157581763,0.9909722222222223
0.2770895275850677,0.9909722222222223
0.27738685166831845,0.9909722222222223
0.27741988767756853,0.9909722222222223
0.2777006937561943,0.9909722222222223
0.27773372976544436,0.9909722222222223
0.2778493557978196,0.9909722222222223
0.2778493557978196,0.9916666666666667
0.28012884043607533,0.9916666666666667
0.2801618764453254,0.9916666666666667
0.28163197885695407,0.9916666666666667
0.28166501486620416,0.9916666666666667
0.28209448298645523,0.9916666666666667
0.2821275189957053,0.9916666666666667
0.28316815328708295,0.9916666666666667
0.28316815328708295,0.9923611111111111
0.2851172778328378,0.9923611111111111
0.2851172778328378,0.9930555555555556
0.28513379583746284,0.9930555555555556
0.28516683184671293,0.9930555555555556
0.28779319458209446,0.9930555555555556
0.28782623059134455,0.9930555555555556
0.28805748265609515,0.9930555555555556
0.28809051866534524,0.9930555555555556
0.28929633300297325,0.9930555555555556
0.28932936901222334,0.9930555555555556
0.2918070697059795,0.9930555555555556
0.2918401057152296,0.9930555555555556
0.29238519986785594,0.9930555555555556
0.292418235877106,0.9930555555555556
0.2925173439048563,0.9930555555555556
0.2925503799141064,0.9930555555555556
0.29596960687148993,0.9930555555555556
0.29600264288074,0.9930555555555556
0.2966468450611166,0.9930555555555556
0.2966798810703667,0.9930555555555556
0.2995705318797489,0.9930555555555556
0.299603567888999,0.9930555555555556
0.30094152626362736,0.9930555555555556
0.30097456227287744,0.9930555555555556
0.3013214403700033,0.9930555555555556
0.3013544763792534,0.9930555555555556
0.30226296663363067,0.9930555555555556
0.30229600264288076,0.9930555555555556
0.3026759167492567,0.9930555555555556
0.3027089527585068,0.9930555555555556
0.3030062768417575,0.9930555555555556
0.3030062768417575,0.99375
0.3033531549388834,0.99375
0.30338619094813346,0.99375
0.3034852989758837,0.99375
0.3035183349851338,0.99375
0.30434423521638587,0.99375
0.30437727122563596,0.99375
0.3059299636603898,0.99375
0.3059629996696399,0.99375
0.30754872811364387,0.99375
0.30758176412289395,0.99375
0.3129996696399075,0.99375
0.3130327056491576,0.99375
0.3135612817971589,0.99375
0.3136273538156591,0.99375
0.31377601585728443,0.99375
0.3138090518665345,0.99375
0.3154443343244136,0.99375
0.3154773703336637,0.99375
0.31557647836141395,0.99375
0.31560951437066403,0.99375
0.31585728444003963,0.99375
0.3158903204492897,0.99375
0.316402378592666,0.99375
0.3164354146019161,0.99375
0.31658407664354143,0.99375
0.3166171126527915,0.99375
0.3217707300958044,0.99375
0.3218037661050545,0.99375
0.32451271886356126,0.99375
0.32451271886356126,0.9944444444444445
0.32517343904856294,0.9944444444444445
0.325206475057813,0.9944444444444445
0.3258837132474397,0.9944444444444445
0.3259167492566898,0.9944444444444445
0.32685827552031715,0.9944444444444445
0.32689131152956724,0.9944444444444445
0.327205153617443,0.9944444444444445
0.3272381896266931,0.9944444444444445
0.33141724479682855,0.9944444444444445
0.33145028080607863,0.9944444444444445
0.3329699372315824,0.9944444444444445
0.3330029732408325,0.9944444444444445
0.3333663693425834,0.9944444444444445
0.3333994053518335,0.9944444444444445
0.3344730756524612,0.9944444444444445
0.3345061116617113,0.9944444444444445
0.3348364717542121,0.9944444444444445
0.3348695077634622,0.9944444444444445
0.33529897588371327,0.9944444444444445
0.33533201189296336,0.9944444444444445
0.33802444664684506,0.9944444444444445
0.33805748265609514,0.9944444444444445
0.33977535513709944,0.9944444444444445
0.33980839114634953,0.9944444444444445
0.33989098116947475,0.9944444444444445
0.33992401717872484,0.9944444444444445
0.3415592996366039,0.9944444444444445
0.341592335645854,0.9944444444444445
0.3434753881731087,0.9944444444444445
0.3435084241823588,0.9944444444444445
0.3448298645523621,0.9944444444444445
0.3448629005616122,0.9944444444444445
0.3458539808391146,0.9944444444444445
0.3458870168483647,0.9944444444444445
0.34593657086223983,0.9944444444444445
0.3459696068714899,0.9944444444444445
0.3464321110009911,0.9944444444444445
0.34646514701024117,0.9944444444444445
0.3476874793524942,0.9944444444444445
0.3477205153617443,0.9944444444444445
0.3525602907168814,0.9944444444444445
0.3525933267261315,0.9944444444444445
0.3543607532210109,0.9944444444444445
0.354393789230261,0.9944444444444445
0.3564420218037661,0.9944444444444445
0.3564750578130162,0.9944444444444445
0.3627518995705319,0.9944444444444445
0.362784935579782,0.9944444444444445
0.36281797158903206,0.9944444444444445
0.36285100759828215,0.9944444444444445
0.3629335976214073,0.9944444444444445
0.3629666336306574,0.9944444444444445
0.36693095474066734,0.9944444444444445
0.3669639907499174,0.9944444444444445
0.3679715890320449,0.9944444444444445
0.368004625041295,0.9944444444444445
0.36802114304592004,0.9944444444444445
0.3680541790551701,0.9944444444444445
0.36993723158242486,0.9944444444444445
0.36997026759167495,0.9944444444444445
0.3732243145028081,0.9944444444444445
0.37325735051205816,0.9944444444444445
0.37449620085893626,0.9944444444444445
0.37452923686818634,0.9944444444444445
0.37466138090518664,0.9944444444444445
0.3746944169144367,0.9944444444444445
0.37477700693756194,0.9944444444444445
0.374810042946812,0.9944444444444445
0.37507433102081267,0.9944444444444445
0.37510736703006275,0.9944444444444445
0.3751238850346878,0.9944444444444445
0.3751569210439379,0.9944444444444445
0.37581764122893957,0.9944444444444445
0.3758506772381896,0.9944444444444445
0.37705649157581766,0.9944444444444445
0.3770895275850677,0.9944444444444445
0.37755203171456886,0.9944444444444445
0.37761810373306903,0.9944444444444445
0.3780475718533201,0.9944444444444445
0.3780806078625702,0.9944444444444445
0.37963330029732406,0.9944444444444445
0.37966633630657415,0.9944444444444445
0.38037661050545096,0.9944444444444445
0.38040964651470105,0.9944444444444445
0.383597621407334,0.9944444444444445
0.3836306574165841,0.9944444444444445
0.385199867855963,0.9944444444444445
0.3852329038652131,0.9944444444444445
0.3860753221010902,0.9944444444444445
0.3861083581103403,0.9944444444444445
0.3863561281797159,0.9944444444444445
0.38638916418896596,0.9944444444444445
0.3865213082259663,0.9944444444444445
0.3865543442352164,0.9944444444444445
0.38678559629996695,0.9944444444444445
0.38681863230921704,0.9944444444444445
0.38789230260984475,0.9944444444444445
0.38792533861909484,0.9944444444444445
0.38847043277172116,0.9944444444444445
0.38850346878097125,0.9944444444444445
0.3886356128179716,0.9944444444444445
0.3886356128179716,0.9958333333333333
0.3895110670630988,0.9958333333333333
0.3895441030723489,0.9958333333333333
0.3898083911463495,0.9958333333333333
0.3898414271555996,0.9958333333333333
0.3901552692434754,0.9958333333333333
0.39018830525272546,0.9958333333333333
0.392401717872481,0.9958333333333333
0.3924347538817311,0.9958333333333333
0.39314502808060786,0.9958333333333333
0.39317806408985795,0.9958333333333333
0.39638255698711594,0.9958333333333333
0.39641559299636603,0.9958333333333333
0.39701024116286754,0.9958333333333333
0.3970432771721176,0.9958333333333333
0.3970763131813677,0.9958333333333333
0.3971093491906178,0.9958333333333333
0.39882722167162205,0.9958333333333333
0.39886025768087213,0.9958333333333333
0.4019491245457549,0.9958333333333333
0.40199867855963,0.9958333333333333
0.40289065080938224,0.9958333333333333
0.40292368681863233,0.9958333333333333
0.404806739345887,0.9958333333333333
0.4048397753551371,0.9958333333333333
0.4051370994383878,0.9958333333333333
0.4051701354476379,0.9958333333333333
0.4054839775355137,0.9958333333333333
0.40551701354476377,0.9958333333333333
0.4106045589692765,0.9958333333333333
0.4106375949785266,0.9958333333333333
0.4107532210109019,0.9958333333333333
0.410786257020152,0.9958333333333333
0.4113643871820284,0.9958333333333333
0.4113974231912785,0.9958333333333333
0.4115626032375289,0.9958333333333333
0.411595639246779,0.9958333333333333
0.41285100759828214,0.9958333333333333
0.4128840436075322,0.9958333333333333
0.413197885695408,0.9958333333333333
0.4132309217046581,0.9958333333333333
0.41333002973240834,0.9958333333333333
0.41336306574165843,0.9958333333333333
0.4151635282457879,0.9958333333333333
0.415196564255038,0.9958333333333333
0.41777337297654443,0.9958333333333333
0.4178064089857945,0.9958333333333333
0.4181698050875454,0.9958333333333333
0.4182028410967955,0.9958333333333333
0.41825239511067064,0.9958333333333333
0.4182854311199207,0.9958333333333333
0.4188470432771721,0.9958333333333333
0.4188800792864222,0.9958333333333333
0.4201684836471754,0.9958333333333333
0.4202015196564255,0.9958333333333333
0.42322431450280806,0.9958333333333333
0.42325735051205815,0.9958333333333333
0.4250247770069376,0.9958333333333333
0.42505781301618767,0.9958333333333333
0.42598282127518994,0.9958333333333333
0.42601585728444,0.9958333333333333
0.42613148331681533,0.9958333333333333
0.4261645193260654,0.9958333333333333
0.42865873802444665,0.9958333333333333
0.42869177403369674,0.9958333333333333
0.4288899900891972,0.9958333333333333
0.4288899900891972,0.9965277777777778
0.4297984803435745,0.9965277777777778
0.42983151635282457,0.9965277777777778
0.4299471423851999,0.9965277777777778
0.42998017839444996,0.9965277777777778
0.4300297324083251,0.9965277777777778
0.4300627684175752,0.9965277777777778
0.4322761810373307,0.9965277777777778
0.43230921704658076,0.9965277777777778
0.43321770730095804,0.9965277777777778
0.4332672613148332,0.9965277777777778
0.4353650479022134,0.9965277777777778
0.4353980839114635,0.9965277777777778
0.4354311199207136,0.9965277777777778
0.4354641559299637,0.9965277777777778
0.438800792864222,0.9965277777777778
0.4388338288734721,0.9965277777777778
0.4412289395441031,0.9965277777777778
0.44126197555335317,0.9965277777777778
0.44269904195573173,0.9965277777777778
0.4427320779649818,0.9965277777777778
0.44281466798810704,0.9965277777777778
0.4428477039973571,0.9965277777777778
0.4441856623719855,0.9965277777777778
0.4441856623719855,0.9972222222222222
0.4461513049223654,0.9972222222222222
0.44618434093161546,0.9972222222222222
0.44857945160224644,0.9972222222222222
0.4486124876114965,0.9972222222222222
0.4503633961017509,0.9972222222222222
0.450396432111001,0.9972222222222222
0.45138751238850344,0.9972222222222222
0.45142054839775353,0.9972222222222222
0.45518665345226295,0.9972222222222222
0.45521968946151303,0.9972222222222222
0.45526924347538816,0.9972222222222222
0.45530227948463825,0.9972222222222222
0.4578790882061447,0.9972222222222222
0.4579121242153948,0.9972222222222222
0.4587545424512719,0.9972222222222222
0.458787578460522,0.9972222222222222
0.45890320449289723,0.9972222222222222
0.4589362405021473,0.9972222222222222
0.45943178064089857,0.9972222222222222
0.45949785265939874,0.9972222222222222
0.460389824909151,0.9972222222222222
0.46042286091840107,0.9972222222222222
0.4611661711265279,0.9972222222222222
0.461199207135778,0.9972222222222222
0.46166171126527916,0.9972222222222222
0.46169474727452925,0.9972222222222222
0.46504790221341263,0.9972222222222222
0.4650809382226627,0.9972222222222222
0.4654443343244136,0.9972222222222222
0.4654773703336637,0.9972222222222222
0.4663197885695408,0.9972222222222222
0.4663528245787909,0.9972222222222222
0.46712917079616784,0.9972222222222222
0.4671622068054179,0.9972222222222222
0.467195242814668,0.9972222222222222
0.4672282788239181,0.9972222222222222
0.4672447968285431,0.9972222222222222
0.4672778328377932,0.9972222222222222
0.4679220350181698,0.9972222222222222
0.4679550710274199,0.9972222222222222
0.46826891311529567,0.9972222222222222
0.46830194912454576,0.9972222222222222
0.4688635612817972,0.9972222222222222
0.46889659729104727,0.9972222222222222
0.46929302940204826,0.9972222222222222
0.4693260654112983,0.9972222222222222
0.4713908159894285,0.9972222222222222
0.47142385199867853,0.9972222222222222
0.4719359101420548,0.9972222222222222
0.4719689461513049,0.9972222222222222
0.47238189626693095,0.9972222222222222
0.47241493227618103,0.9972222222222222
0.47333994053518336,0.9972222222222222
0.47337297654443344,0.9972222222222222
0.47340601255368353,0.9972222222222222
0.4734390485629336,0.9972222222222222
0.47641228939544106,0.9972222222222222
0.4764453254046911,0.9972222222222222
0.4772381896266931,0.9972222222222222
0.47727122563594315,0.9972222222222222
0.4788734720845722,0.9972222222222222
0.4789065080938223,0.9972222222222222
0.4794350842418236,0.9972222222222222
0.47946812025107366,0.9972222222222222
0.4827386851668318,0.9972222222222222
0.4827717211760819,0.9972222222222222
0.48285431119920713,0.9972222222222222
0.4828873472084572,0.9972222222222222
0.48757846052196896,0.9972222222222222
0.48761149653121905,0.9972222222222222
0.48921374297984804,0.9972222222222222
0.48924677898909813,0.9972222222222222
0.48982490915097454,0.9972222222222222
0.48985794516022463,0.9972222222222222
0.4915262636273538,0.9972222222222222
0.4915592996366039,0.9972222222222222
0.4919226957383548,0.9972222222222222
0.4919557317476049,0.9972222222222222
0.49238519986785595,0.9972222222222222
0.49241823587710604,0.9972222222222222
0.4925999339279815,0.9972222222222222
0.4926329699372316,0.9972222222222222
0.4933102081268583,0.9972222222222222
0.49334324413610836,0.9972222222222222
0.4942021803766105,0.9972222222222222
0.4942352163858606,0.9972222222222222
0.4955566567558639,0.9972222222222222
0.495589692765114,0.9972222222222222
0.4962504129501156,0.9972222222222222
0.4962834489593657,0.9972222222222222
0.49697720515361743,0.9972222222222222
0.4970102411628675,0.9972222222222222
0.497604889329369,0.9972222222222222
0.4976379253386191,0.9972222222222222
0.4985133795837463,0.9972222222222222
0.49854641559299634,0.9972222222222222
0.4985794516022464,0.9972222222222222
0.4986124876114965,0.9972222222222222
0.49874463164849686,0.9972222222222222
0.49877766765774695,0.9972222222222222
0.500363396101751,0.9972222222222222
0.500396432111001,0.9972222222222222
0.5008093822266271,0.9972222222222222
0.500842418235877,0.9972222222222222
0.501205814337628,0.9972222222222222
0.5012388503468781,0.9972222222222222
0.5021638586058804,0.9972222222222222
0.5021968946151305,0.9972222222222222
0.502395110670631,0.9972222222222222
0.5024281466798811,0.9972222222222222
0.5024446646845061,0.9972222222222222
0.5024777006937562,0.9972222222222222
0.5058638916418896,0.9972222222222222
0.5058969276511397,0.9972222222222222
0.5060786257020152,0.9972222222222222
0.5061116617112653,0.9972222222222222
0.5068384539147671,0.9972222222222222
0.5068714899240172,0.9972222222222222
0.5079286422200199,0.9972222222222222
0.5079616782292699,0.9972222222222222
0.5080607862570201,0.9972222222222222
0.5080607862570201,0.9979166666666667
0.508407664354146,0.9979166666666667
0.5084407003633961,0.9979166666666667
0.5090023125206475,0.9979166666666667
0.5090353485298976,0.9979166666666667
0.5103072348860258,0.9979166666666667
0.5103402708952759,0.9979166666666667
0.5110505450941526,0.9979166666666667
0.5110835811034027,0.9979166666666667
0.5111496531219029,0.9979166666666667
0.511182689131153,0.9979166666666667
0.5112487611496531,0.9979166666666667
0.5112817971589032,0.9979166666666667
0.5134786917740337,0.9979166666666667
0.5135117277832838,0.9979166666666667
0.5139411959035348,0.9979166666666667
0.5139742319127849,0.9979166666666667
0.5145193260654113,0.9979166666666667
0.5145523620746614,0.9979166666666667
0.5149322761810373,0.9979166666666667
0.5149653121902874,0.9979166666666667
0.5151304922365378,0.9979166666666667
0.5151304922365378,0.9986111111111111
0.5168814007267922,0.9986111111111111
0.5169144367360423,0.9986111111111111
0.518417575156921,0.9986111111111111
0.5184506111661711,0.9986111111111111
0.5225470763131813,0.9986111111111111
0.5225801123224314,0.9986111111111111
0.5229765444334324,0.9986111111111111
0.5230095804426825,0.9986111111111111
0.5253881731086885,0.9986111111111111
0.5254212091179385,0.9986111111111111
0.5257846052196895,0.9986111111111111
0.5257846052196895,0.9993055555555556
0.5261975553353155,0.9993055555555556
0.5262305913445656,0.9993055555555556
0.5291212421539478,0.9993055555555556
0.5291542781631979,0.9993055555555556
0.5296993723158242,0.9993055555555556
0.5297324083250743,0.9993055555555556
0.5313346547737033,0.9993055555555556
0.5313676907829534,0.9993055555555556
0.5321275189957053,0.9993055555555556
0.5321605550049554,0.9993055555555556
0.5333002973240832,0.9993055555555556
0.5333333333333333,0.9993055555555556
0.5341427155599604,0.9993055555555556
0.5341757515692105,0.9993055555555556
0.5355302279484638,0.9993055555555556
0.5355632639577139,0.9993055555555556
0.5397258011232243,0.9993055555555556
0.5397588371324744,0.9993055555555556
0.5406673273868516,0.9993055555555556
0.5407003633961017,0.9993055555555556
0.5407168814007268,0.9993055555555556
0.5407499174099769,0.9993055555555556
0.544400396432111,0.9993055555555556
0.5444334324413611,0.9993055555555556
0.5479187314172448,0.9993055555555556
0.5479517674264949,0.9993055555555556
0.5501651800462504,0.9993055555555556
0.5501982160555005,0.9993055555555556
0.5534357449620085,0.9993055555555556
0.5534687809712586,0.9993055555555556
0.5536669970267591,0.9993055555555556
0.5537000330360092,0.9993055555555556
0.5555004955401388,0.9993055555555556
0.5555335315493888,0.9993055555555556
0.5575982821275189,0.9993055555555556
0.557631318136769,0.9993055555555556
0.5577799801783945,0.9993055555555556
0.5578130161876446,0.9993055555555556
0.5609514370664024,0.9993055555555556
0.5609844730756525,0.9993055555555556
0.5623224314502808,0.9993055555555556
0.5623554674595309,0.9993055555555556
0.563230921704658,0.9993055555555556
0.5632639577139081,0.9993055555555556
0.564007267922035,0.9993055555555556
0.5640403039312851,0.9993055555555556
0.5645193260654113,0.9993055555555556
0.5645523620746614,0.9993055555555556
0.566402378592666,0.9993055555555556
0.566435414601916,0.9993055555555556
0.5685332011892963,0.9993055555555556
0.5685662371985464,0.9993055555555556
0.5755368351503138,0.9993055555555556
0.5755698711595639,0.9993055555555556
0.5765279154278163,0.9993055555555556
0.5765609514370664,0.9993055555555556
0.585612817971589,0.9993055555555556
0.5856458539808391,0.9993055555555556
0.5878427485959696,0.9993055555555556
0.5878757846052197,0.9993055555555556
0.5901057152296003,0.9993055555555556
0.5901387512388504,0.9993055555555556
0.5902213412619756,0.9993055555555556
0.5902543772712256,0.9993055555555556
0.5903204492897258,0.9993055555555556
0.5903534852989759,0.9993055555555556
0.5921209117938553,0.9993055555555556
0.5921539478031054,0.9993055555555556
0.5922365378262306,0.9993055555555556
0.5922695738354806,0.9993055555555556
0.593227618103733,0.9993055555555556
0.5932606541129831,0.9993055555555556
0.5939709283118599,0.9993055555555556
0.59400396432111,0.9993055555555556
0.5949454905847373,0.9993055555555556
0.5949785265939874,0.9993055555555556
0.599620085893624,0.9993055555555556
0.5996531219028741,0.9993055555555556
0.600825900231252,0.9993055555555556
0.6008589362405021,0.9993055555555556
0.6018830525272547,0.9993055555555556
0.6019160885365048,0.9993055555555556
0.6019491245457549,0.9993055555555556
0.601982160555005,0.9993055555555556
0.6025107367030063,0.9993055555555556
0.6025437727122563,0.9993055555555556
0.6037165510406343,0.9993055555555556
0.6037495870498844,0.9993055555555556
0.6053683515031384,0.9993055555555556
0.6054013875123885,0.9993055555555556
0.6061281797158903,0.9993055555555556
0.6061612157251404,0.9993055555555556
0.6084902543772712,0.9993055555555556
0.6085232903865213,0.9993055555555556
0.6132804757185332,0.9993055555555556
0.6133135117277833,0.9993055555555556
0.6137594978526594,0.9993055555555556
0.6137925338619095,0.9993055555555556
0.6175256029071688,0.9993055555555556
0.6175586389164189,0.9993055555555556
0.6192930294020482,0.9993055555555556
0.6193260654112983,0.9993055555555556
0.6205153617443013,0.9993055555555556
0.6205483977535514,0.9993055555555556
0.6221176081929303,0.9993055555555556
0.6221506442021804,0.9993055555555556
0.624380574826561,0.9993055555555556
0.624413610835811,0.9993055555555556
0.6291212421539478,0.9993055555555556
0.6291212421539478,1.0
0.6295837462834489,1.0
0.629616782292699,1.0
0.6301453584407004,1.0
0.6301783944499505,1.0
0.6303600925008259,1.0
0.6304261645193261,1.0
0.6322101090188306,1.0
0.6322431450280807,1.0
0.6346052196894615,1.0
0.6346382556987116,1.0
0.6353650479022134,1.0
0.6353980839114635,1.0
0.6391476709613478,1.0
0.6391807069705979,1.0
0.6402213412619756,1.0
0.6402543772712256,1.0
0.6409811694747275,1.0
0.6410142054839776,1.0
0.6424677898909812,1.0
0.6425008259002313,1.0
0.6441526263627354,1.0
0.6441856623719855,1.0
0.6451271886356128,1.0
0.6451602246448629,1.0
0.6487115956392467,1.0
0.6487446316484968,1.0
0.65199867855963,1.0
0.6520317145688801,1.0
0.6554509415262636,1.0
0.6554839775355137,1.0
0.6575652461182689,1.0
0.657598282127519,1.0
0.658391146349521,1.0
0.6584241823587711,1.0
0.6632474397092831,1.0
0.6632804757185332,1.0
0.6634621737694086,1.0
0.6634952097786587,1.0
0.6654608523290386,1.0
0.6654938883382887,1.0
0.6667162206805418,1.0
0.6667492566897919,1.0
0.6672447968285431,1.0
0.6672778328377932,1.0
0.6683349851337959,1.0
0.6683680211430459,1.0
0.6690122233234226,1.0
0.6690452593326726,1.0
0.6698546415592996,1.0
0.6698876775685497,1.0
0.6707631318136769,1.0
0.670796167822927,1.0
0.6710604558969276,1.0
0.6710934919061777,1.0
0.6713247439709283,1.0
0.6713577799801784,1.0
0.6716881400726792,1.0
0.6717211760819293,1.0
0.6766930954740668,1.0
0.6767261314833168,1.0
0.6774033696729435,1.0
0.6774364056821935,1.0
0.684390485629336,1.0
0.6844235216385861,1.0
0.6869177403369673,1.0
0.6869507763462174,1.0
0.6893458870168484,1.0
0.6893789230260985,1.0
0.689593657086224,1.0
0.6896266930954741,1.0
0.6904525933267261,1.0
0.6904856293359762,1.0
0.6910472414932276,1.0
0.6910802775024777,1.0
0.6913115295672283,1.0
0.6913445655764784,1.0
0.6942847703997357,1.0
0.6943178064089858,1.0
0.6966963990749917,1.0
0.6967294350842418,1.0
0.7000825900231252,1.0
0.7001156260323753,1.0
0.703221010901883,1.0
0.7032540469111331,1.0
0.7040799471423852,1.0
0.7041129831516353,1.0
0.7049223653782624,1.0
0.7049554013875123,1.0
0.7058638916418897,1.0
0.7058969276511398,1.0
0.7074826560951437,1.0
0.7075156921043938,1.0
0.7131318136769078,1.0
0.7131648496861579,1.0
0.7191278493557978,1.0
0.7191608853650479,1.0
0.7210769739015527,1.0
0.7211100099108028,1.0
0.7218698381235547,1.0
0.7219028741328047,1.0
0.7225140403039313,1.0
0.7225470763131814,1.0
0.723207796498183,1.0
0.7232408325074331,1.0
0.724777006937562,1.0
0.7248100429468121,1.0
0.7253055830855633,1.0
0.7253386190948133,1.0
0.7309547406673274,1.0
0.7309877766765774,1.0
0.73201189296333,1.0
0.7320449289725801,1.0
0.7330360092500826,1.0
0.7330855632639577,1.0
0.733184671291708,1.0
0.733217707300958,1.0
0.7362239841427156,1.0
0.7362570201519656,1.0
0.738817310868847,1.0
0.7388503468780971,1.0
0.74400396432111,1.0
0.7440370003303601,1.0
0.7462999669639907,1.0
0.7463330029732408,1.0
0.7518004625041295,1.0
0.7518334985133796,1.0
0.7536835150313842,1.0
0.7537165510406343,1.0
0.756392467789891,1.0
0.7564255037991411,1.0
0.7611331351172779,1.0
0.761166171126528,1.0
0.7624545754872811,1.0
0.7624876114965312,1.0
0.7637429798480344,1.0
0.7637760158572844,1.0
0.7668648827221671,1.0
0.7668979187314172,1.0
0.7693425834159233,1.0
0.7693756194251734,1.0
0.7698050875454245,1.0
0.7698381235546746,1.0
0.771192599933928,1.0
0.7712256359431781,1.0
0.7715064420218037,1.0
0.7715394780310538,1.0
0.7717872481004294,1.0
0.7718202841096795,1.0
0.7737859266600595,1.0
0.7738189626693095,1.0
0.7779649818301949,1.0
0.777998017839445,1.0
0.7781136438718202,1.0
0.7781466798810703,1.0
0.7782457879088206,1.0
0.7782788239180707,1.0
0.7787413280475719,1.0
0.778774364056822,1.0
0.7789395441030723,1.0
0.7789725801123224,1.0
0.7803600925008259,1.0
0.780393128510076,1.0
0.7805417905517014,1.0
0.7805748265609515,1.0
0.780822596630327,1.0
0.7808556326395771,1.0
0.7814667988107037,1.0
0.7814998348199538,1.0
0.783994053518335,1.0
0.784027089527585,1.0
0.7848860257680872,1.0
0.7849190617773373,1.0
0.7857779980178394,1.0
0.7858110340270895,1.0
0.7908655434423522,1.0
0.7908985794516022,1.0
0.7914932276181037,1.0
0.7915262636273538,1.0
0.793194582094483,1.0
0.7932276181037331,1.0
0.7988932936901222,1.0
0.7989263296993723,1.0
0.8008919722497523,1.0
0.8009250082590023,1.0
0.8014040303931285,1.0
0.8014370664023786,1.0
0.8020977865873803,1.0
0.8021308225966304,1.0
0.8026924347538817,1.0
0.8027254707631318,1.0
0.8058638916418897,1.0
0.8058969276511397,1.0
0.8087049884373968,1.0
0.8087380244466469,1.0
0.8102081268582755,1.0
0.8102411628675256,1.0
0.8118103733069045,1.0
0.8118434093161546,1.0
0.8119425173439049,1.0
0.811975553353155,1.0
0.8125371655104063,1.0
0.8125702015196564,1.0
0.8129335976214074,1.0
0.8129666336306575,1.0
0.8135612817971589,1.0
0.813594317806409,1.0
0.8167327386851668,1.0
0.8167657746944169,1.0
0.8194086554344235,1.0
0.8194416914436736,1.0
0.8201850016518004,1.0
0.8202180376610505,1.0
0.8215559960356789,1.0
0.821589032044929,1.0
0.8216551040634291,1.0
0.8216881400726792,1.0
0.8221176081929303,1.0
0.8221506442021804,1.0
0.8229269904195573,1.0
0.8229600264288074,1.0
0.823620746613809,1.0
0.8236537826230591,1.0
0.8253386190948133,1.0
0.8253716551040634,1.0
0.8266930954740668,1.0
0.8267261314833169,1.0
0.8286422200198216,1.0
0.8286752560290717,1.0
0.8288899900891972,1.0
0.8289230260984473,1.0
0.8327056491575817,1.0
0.8327386851668318,1.0
0.8337628014535844,1.0
0.8337958374628345,1.0
0.8451767426494879,1.0
0.845209778658738,1.0
0.8458704988437397,1.0
0.8459035348529897,1.0
0.8474727452923687,1.0
0.8475057813016188,1.0
0.8498843739676247,1.0
0.8499174099768748,1.0
0.8505120581433763,1.0
0.8505450941526264,1.0
0.8520647505781301,1.0
0.8520977865873802,1.0
0.8551370994383879,1.0
0.855170135447638,1.0
0.8573339940535183,1.0
0.8573670300627684,1.0
0.8614139411959035,1.0
0.8614469772051536,1.0
0.8644862900561612,1.0
0.8645193260654113,1.0
0.867971589032045,1.0
0.868004625041295,1.0
0.8712917079616782,1.0
0.8713247439709283,1.0
0.8714734060125536,1.0
0.8715064420218037,1.0
0.8728609184010572,1.0
0.8728939544103073,1.0
0.8734720845721837,1.0
0.8735051205814338,1.0
0.8758506772381897,1.0
0.8758837132474397,1.0
0.8765939874463164,1.0
0.8766270234555665,1.0
0.8791377601585728,1.0
0.8791707961678229,1.0
0.8797489263296994,1.0
0.8797819623389495,1.0
0.8823587710604559,1.0
0.8824248430789561,1.0
0.8826230591344566,1.0
0.8826560951437067,1.0
0.8834819953749588,1.0
0.8835150313842088,1.0
0.8863561281797159,1.0
0.886389164188966,1.0
0.8896432111000991,1.0
0.8896762471093492,1.0
0.8900231252064751,1.0
0.8900561612157252,1.0
0.8907003633961017,1.0
0.8907333994053518,1.0
0.8913941195903535,1.0
0.8914271555996036,1.0
0.893194582094483,1.0
0.8932276181037331,1.0
0.8965807730426164,1.0
0.8966138090518665,1.0
0.8971423851998679,1.0
0.897175421209118,1.0
0.9022299306243806,1.0
0.9022629666336307,1.0
0.9030227948463826,1.0
0.9030558308556327,1.0
0.903204492897258,1.0
0.9032375289065081,1.0
0.9050545094152627,1.0
0.9050875454245128,1.0
0.9097951767426495,1.0
0.9098282127518996,1.0
0.9109349190617774,1.0
0.9109679550710275,1.0
0.9160224644862901,1.0
0.9160555004955402,1.0
0.92198546415593,1.0
0.92201850016518,1.0
0.9300462504129501,1.0
0.9300792864222002,1.0
0.930806078625702,1.0
0.9308391146349521,1.0
0.9417740336967294,1.0
0.9418070697059795,1.0
0.9441361083581103,1.0
0.9441691443673604,1.0
0.9446481665014866,1.0
0.9446812025107367,1.0
0.9506937561942518,1.0
0.9507267922035019,1.0
0.9535348529897588,1.0
0.9535678889990089,1.0
0.9573835480673935,1.0
0.9574165840766435,1.0
0.961628675256029,1.0
0.9616617112652791,1.0
0.9659398744631649,1.0
0.965972910472415,1.0
0.9836141394119591,1.0
0.9836471754212092,1.0
0.9867690782953419,1.0
0.986802114304592,1.0
0.9887016848364718,1.0
0.9887347208457218,1.0
0.9894780310538487,1.0
0.9895110670630988,1.0
0.9926660059464817,1.0
0.9926990419557318,1.0
0.9975553353154939,1.0
0.997588371324744,1.0
0.998794185662372,1.0
0.9988272216716221,1.0
1.0,1.0
