fpr,tpr
0.0,0.0
0.0,0.0007320644216691069
0.0,0.0010980966325036604
0.0,0.0011896046852122987
0.0,0.0013726207906295754
0.0,0.001738653001464129
0.0,0.0019216691068814056
0.0,0.0021961932650073207
0.0,0.002745241581259151
0.0,0.0036603221083455345
0.0,0.0038433382137628112
0.0,0.0046669106881405565
0.0,0.004849926793557833
0.0,0.005490483162518302
0.0,0.005765007320644217
0.0,0.005948023426061494
0.0,0.006588579795021962
5.037732617303604e-06,0.006588579795021962
5.037732617303604e-06,0.008601756954612006
5.037732617303604e-06,0.008784773060029283
5.037732617303604e-06,0.009425329428989751
1.0075465234607208e-05,0.009425329428989751
1.0075465234607208e-05,0.011072474377745242
1.0075465234607208e-05,0.011255490483162519
1.0075465234607208e-05,0.011621522693997072
1.0075465234607208e-05,0.011804538799414349
1.0075465234607208e-05,0.011896046852122987
1.0075465234607208e-05,0.012079062957540264
1.0075465234607208e-05,0.014458272327964861
1.5113197851910811e-05,0.014458272327964861
1.5113197851910811e-05,0.019857247437774523
2.0150930469214415e-05,0.019857247437774523
2.0150930469214415e-05,0.021595900439238654
2.0150930469214415e-05,0.02177891654465593
2.0150930469214415e-05,0.0279099560761347
2.518866308651802e-05,0.0279099560761347
2.518866308651802e-05,0.03294289897510981
2.518866308651802e-05,0.033125915080527084
2.518866308651802e-05,0.03413250366032211
3.0226395703821623e-05,0.03413250366032211
3.0226395703821623e-05,0.03687774524158126
3.0226395703821623e-05,0.03706076134699854
3.0226395703821623e-05,0.04108711566617863
3.526412832112523e-05,0.04108711566617863
3.526412832112523e-05,0.04145314787701318
4.030186093842883e-05,0.04145314787701318
4.030186093842883e-05,0.04319180087847731
4.030186093842883e-05,0.04337481698389458
4.030186093842883e-05,0.0479502196193265
4.533959355573244e-05,0.0479502196193265
4.533959355573244e-05,0.05197657393850659
4.533959355573244e-05,0.05215959004392386
4.533959355573244e-05,0.05490483162518302
5.037732617303604e-05,0.05490483162518302
5.037732617303604e-05,0.05911420204978038
5.037732617303604e-05,0.05929721815519766
5.037732617303604e-05,0.061035871156661786
5.037732617303604e-05,0.061218887262079066
5.037732617303604e-05,0.06158491947291362
5.037732617303604e-05,0.06176793557833089
5.037732617303604e-05,0.07320644216691069
5.5415058790339646e-05,0.07320644216691069
5.5415058790339646e-05,0.08940336749633968
5.5415058790339646e-05,0.08958638360175696
5.5415058790339646e-05,0.09123352855051245
6.0452791407643246e-05,0.09123352855051245
6.0452791407643246e-05,0.09333821376281112
6.0452791407643246e-05,0.0935212298682284
6.0452791407643246e-05,0.10001830161054173
6.549052402494685e-05,0.10001830161054173
6.549052402494685e-05,0.10010980966325037
7.052825664225046e-05,0.10010980966325037
7.052825664225046e-05,0.10834553440702782
7.052825664225046e-05,0.1085285505124451
7.052825664225046e-05,0.10871156661786237
7.556598925955406e-05,0.10871156661786237
7.556598925955406e-05,0.11209736456808199
8.060372187685766e-05,0.11209736456808199
8.060372187685766e-05,0.12371888726207907
8.564145449416126e-05,0.12371888726207907
8.564145449416126e-05,0.1261896046852123
9.067918711146488e-05,0.1261896046852123
9.067918711146488e-05,0.12655563689604685
9.067918711146488e-05,0.12673865300146414
9.067918711146488e-05,0.14119692532942898
9.571691972876848e-05,0.14119692532942898
9.571691972876848e-05,0.14439970717423134
9.571691972876848e-05,0.1445827232796486
9.571691972876848e-05,0.15162884333821378
0.00010075465234607208,0.15162884333821378
0.00010075465234607208,0.1517203513909224
0.00010075465234607208,0.15190336749633968
0.00010075465234607208,0.15556368960468522
0.00010075465234607208,0.1557467057101025
0.00010075465234607208,0.15657027818448024
0.00010579238496337569,0.15657027818448024
0.00010579238496337569,0.18310761346998536
0.00011083011758067929,0.18310761346998536
0.00011083011758067929,0.1934480234260615
0.00011083011758067929,0.19363103953147878
0.00011083011758067929,0.19665080527086384
0.00011586785019798289,0.19665080527086384
0.00011586785019798289,0.20076866764275256
0.00012090558281528649,0.20076866764275256
0.00012090558281528649,0.22025988286969253
0.00012090558281528649,0.2204428989751098
0.00012090558281528649,0.22080893118594436
0.0001259433154325901,0.22080893118594436
0.0001259433154325901,0.22227306002928257
0.0001309810480498937,0.22227306002928257
0.0001309810480498937,0.22355417276720352
0.0001309810480498937,0.22373718887262078
0.0001309810480498937,0.23060029282576866
0.00013601878066719732,0.23060029282576866
0.00013601878066719732,0.2354502196193265
0.00014105651328450092,0.2354502196193265
0.00014105651328450092,0.23627379209370425
0.00014609424590180452,0.23627379209370425
0.00014609424590180452,0.24606515373352855
0.00014609424590180452,0.24624816983894582
0.00014609424590180452,0.2464311859443631
0.00014609424590180452,0.24661420204978038
0.00014609424590180452,0.26656295754026355
0.00015113197851910812,0.26656295754026355
0.00015113197851910812,0.2740666178623719
0.00015616971113641172,0.2740666178623719
0.00015616971113641172,0.2876098096632504
0.00015616971113641172,0.28779282576866766
0.00015616971113641172,0.2898060029282577
0.00016120744375371532,0.2898060029282577
0.00016120744375371532,0.29026354319180087
0.00016120744375371532,0.29044655929721813
0.00016120744375371532,0.2905380673499268
0.00016624517637101892,0.2905380673499268
0.00016624517637101892,0.2908125915080527
0.00017128290898832252,0.2908125915080527
0.00017128290898832252,0.2936493411420205
0.00017632064160562615,0.2936493411420205
0.00017632064160562615,0.2960285505124451
0.00018135837422292975,0.2960285505124451
0.00018135837422292975,0.29831625183016103
0.00018639610684023335,0.29831625183016103
0.00018639610684023335,0.29968887262079064
0.00019143383945753695,0.29968887262079064
0.00019143383945753695,0.3008784773060029
0.00019647157207484055,0.3008784773060029
0.00019647157207484055,0.3037152269399707
0.00020150930469214415,0.3037152269399707
0.00020150930469214415,0.3060944363103953
0.00020150930469214415,0.3062774524158126
0.00020150930469214415,0.30920571010248904
0.00020654703730944775,0.30920571010248904
0.00020654703730944775,0.31359809663250365
0.00021158476992675138,0.31359809663250365
0.00021158476992675138,0.320095168374817
0.00021662250254405498,0.320095168374817
0.00021662250254405498,0.32238286969253294
0.00022166023516135858,0.32238286969253294
0.00022166023516135858,0.32403001464128844
0.00022669796777866218,0.32403001464128844
0.00022669796777866218,0.3244875549048316
0.00023173570039596578,0.3244875549048316
0.00023173570039596578,0.325402635431918
0.00024181116563057298,0.325402635431918
0.00024181116563057298,0.32714128843338214
0.0002468488982478766,0.32714128843338214
0.0002468488982478766,0.32979502196193267
0.0002518866308651802,0.32979502196193267
0.0002518866308651802,0.33071010248901905
0.0002569243634824838,0.33071010248901905
0.0002569243634824838,0.3337298682284041
0.0002619620960997874,0.3337298682284041
0.0002619620960997874,0.3361090775988287
0.000266999828717091,0.3361090775988287
0.000266999828717091,0.3373901903367496
0.00027203756133439464,0.3373901903367496
0.00027203756133439464,0.33821376281112736
0.0002770752939516982,0.33821376281112736
0.0002770752939516982,0.3427891654465593
0.00028211302656900184,0.3427891654465593
0.00028211302656900184,0.3457174231332357
0.0002871507591863054,0.3457174231332357
0.0002871507591863054,0.3592606149341142
0.00029218849180360904,0.3592606149341142
0.00029218849180360904,0.3595351390922401
0.0002972262244209126,0.3595351390922401
0.0002972262244209126,0.3616398243045388
0.00030226395703821624,0.3616398243045388
0.00030226395703821624,0.36191434846266474
0.0003073016896555198,0.36191434846266474
0.0003073016896555198,0.3659407027818448
0.00031233942227282344,0.3659407027818448
0.00031233942227282344,0.36694729136163984
0.00031737715489012707,0.36694729136163984
0.00031737715489012707,0.36749633967789164
0.00032241488750743065,0.36749633967789164
0.00032241488750743065,0.3716142020497804
0.00032745262012473427,0.3716142020497804
0.00032745262012473427,0.3724377745241581
0.00033249035274203785,0.3724377745241581
0.00033249035274203785,0.3752745241581259
0.0003375280853593415,0.3752745241581259
0.0003375280853593415,0.3761896046852123
0.00034256581797664505,0.3761896046852123
0.00034256581797664505,0.3766471449487555
0.0003476035505939487,0.3766471449487555
0.0003476035505939487,0.37774524158125916
0.0003526412832112523,0.37774524158125916
0.0003526412832112523,0.379300878477306
0.0003576790158285559,0.379300878477306
0.0003576790158285559,0.37957540263543194
0.0003627167484458595,0.37957540263543194
0.0003627167484458595,0.38021595900439237
0.0003627167484458595,0.3803989751098097
0.0003677544810631631,0.3803989751098097
0.0003677544810631631,0.38973279648609077
0.0003727922136804667,0.38973279648609077
0.0003727922136804667,0.38991581259150804
0.0003727922136804667,0.39000732064421667
0.0003778299462977703,0.39000732064421667
0.0003778299462977703,0.391196925329429
0.0003828676789150739,0.391196925329429
0.0003828676789150739,0.3995241581259151
0.00038790541153237753,0.3995241581259151
0.00038790541153237753,0.39970717423133234
0.0003929431441496811,0.39970717423133234
0.0003929431441496811,0.40034773060029283
0.00039798087676698473,0.40034773060029283
0.00039798087676698473,0.40830893118594436
0.0004030186093842883,0.40830893118594436
0.0004030186093842883,0.40922401171303074
0.00040805634200159193,0.40922401171303074
0.00040805634200159193,0.4097730600292826
0.0004130940746188955,0.4097730600292826
0.0004130940746188955,0.4109626647144949
0.00041813180723619913,0.4109626647144949
0.00041813180723619913,0.4137994143484627
0.00042316953985350276,0.4137994143484627
0.00042316953985350276,0.4191983894582723
0.00042820727247080634,0.4191983894582723
0.00042820727247080634,0.421303074670571
0.00043324500508810996,0.421303074670571
0.00043324500508810996,0.4214860907759883
0.00043828273770541354,0.4214860907759883
0.00043828273770541354,0.4217606149341142
0.00044835820294002074,0.4217606149341142
0.00044835820294002074,0.4229502196193265
0.00045339593555732436,0.4229502196193265
0.00045339593555732436,0.423590775988287
0.00046347140079193157,0.423590775988287
0.00046347140079193157,0.42734260614934116
0.0004685091334092352,0.42734260614934116
0.0004685091334092352,0.43008784773060027
0.00047354686602653877,0.43008784773060027
0.00047354686602653877,0.4312774524158126
0.0004785845986438424,0.4312774524158126
0.0004785845986438424,0.4321010248901903
0.00048362233126114597,0.4321010248901903
0.00048362233126114597,0.4327415812591508
0.0004886600638784495,0.4327415812591508
0.0004886600638784495,0.4346632503660322
0.0004936977964957532,0.4346632503660322
0.0004936977964957532,0.4358528550512445
0.0004987355291130568,0.4358528550512445
0.0004987355291130568,0.44170937042459735
0.0005037732617303604,0.44170937042459735
0.0005037732617303604,0.44234992679355783
0.000508810994347664,0.44234992679355783
0.000508810994347664,0.4425329428989751
0.0005138487269649676,0.4425329428989751
0.0005138487269649676,0.4428989751098097
0.0005188864595822712,0.4428989751098097
0.0005188864595822712,0.44335651537335286
0.0005239241921995748,0.44335651537335286
0.0005239241921995748,0.44619326500732065
0.0005289619248168785,0.44619326500732065
0.0005289619248168785,0.45049414348462663
0.000533999657434182,0.45049414348462663
0.000533999657434182,0.4513177159590044
0.0005390373900514856,0.4513177159590044
0.0005390373900514856,0.45214128843338214
0.0005440751226687893,0.45214128843338214
0.0005440751226687893,0.4538799414348463
0.0005491128552860929,0.4538799414348463
0.0005491128552860929,0.4539714494875549
0.0005541505879033964,0.4539714494875549
0.0005541505879033964,0.4556185944363104
0.0005591883205207,0.4556185944363104
0.0005591883205207,0.45598462664714495
0.0005642260531380037,0.45598462664714495
0.0005642260531380037,0.4587298682284041
0.0005692637857553073,0.4587298682284041
0.0005692637857553073,0.46074304538799415
0.0005793392509899145,0.46074304538799415
0.0005793392509899145,0.46357979502196195
0.0005843769836072181,0.46357979502196195
0.0005843769836072181,0.465592972181552
0.0005894147162245217,0.465592972181552
0.0005894147162245217,0.46577598828696926
0.0005944524488418252,0.46577598828696926
0.0005944524488418252,0.4661420204978038
0.0005944524488418252,0.4663250366032211
0.0005944524488418252,0.46742313323572476
0.0005994901814591289,0.46742313323572476
0.0005994901814591289,0.4690702781844802
0.0006045279140764325,0.4690702781844802
0.0006045279140764325,0.4694363103953148
0.0006095656466937361,0.4694363103953148
0.0006095656466937361,0.47080893118594436
0.0006146033793110396,0.47080893118594436
0.0006146033793110396,0.47172401171303074
0.0006196411119283433,0.47172401171303074
0.0006196411119283433,0.4732796486090776
0.0006246788445456469,0.4732796486090776
0.0006246788445456469,0.47428623718887264
0.0006347543097802541,0.47428623718887264
0.0006347543097802541,0.4785871156661786
0.0006397920423975577,0.4785871156661786
0.0006397920423975577,0.4797767203513909
0.0006448297750148613,0.4797767203513909
0.0006448297750148613,0.4814238653001464
0.0006498675076321649,0.4814238653001464
0.0006498675076321649,0.4836200585651537
0.0006549052402494685,0.4836200585651537
0.0006549052402494685,0.48462664714494874
0.0006649807054840757,0.48462664714494874
0.0006649807054840757,0.484809663250366
0.0006700184381013794,0.484809663250366
0.0006700184381013794,0.4859077598828697
0.000675056170718683,0.4859077598828697
0.000675056170718683,0.48718887262079064
0.0006800939033359865,0.48718887262079064
0.0006800939033359865,0.48883601756954614
0.0006800939033359865,0.4890190336749634
0.0006800939033359865,0.4908491947291362
0.0006851316359532901,0.4908491947291362
0.0006851316359532901,0.4916727672035139
0.0006901693685705938,0.4916727672035139
0.0006901693685705938,0.49194729136163984
0.0006952071011878973,0.49194729136163984
0.0006952071011878973,0.49249633967789164
0.0007002448338052009,0.49249633967789164
0.0007002448338052009,0.49579062957540265
0.0007052825664225046,0.49579062957540265
0.0007052825664225046,0.4970717423133236
0.0007153580316571118,0.4970717423133236
0.0007153580316571118,0.4988103953147877
0.0007203957642744153,0.4988103953147877
0.0007203957642744153,0.4997254758418741
0.000725433496891719,0.4997254758418741
0.000725433496891719,0.5001830161054173
0.0007304712295090226,0.5001830161054173
0.0007304712295090226,0.5007320644216691
0.0007355089621263262,0.5007320644216691
0.0007355089621263262,0.5008235724743777
0.0007405466947436298,0.5008235724743777
0.0007405466947436298,0.5010065885797951
0.0007455844273609334,0.5010065885797951
0.0007455844273609334,0.5037518301610542
0.000750622159978237,0.5037518301610542
0.000750622159978237,0.5054904831625183
0.0007606976252128442,0.5054904831625183
0.0007606976252128442,0.5059480234260615
0.0007657353578301478,0.5059480234260615
0.0007657353578301478,0.5066800878477306
0.0007758108230647551,0.5066800878477306
0.0007758108230647551,0.5076866764275256
0.0007808485556820586,0.5076866764275256
0.0007808485556820586,0.5087847730600292
0.0007909240209166658,0.5087847730600292
0.0007909240209166658,0.5091508052708639
0.000800999486151273,0.5091508052708639
0.000800999486151273,0.5092423133235725
0.0008060372187685766,0.5092423133235725
0.0008060372187685766,0.5095168374816984
0.0008110749513858803,0.5095168374816984
0.0008110749513858803,0.5120790629575402
0.0008161126840031839,0.5120790629575402
0.0008161126840031839,0.5129941434846267
0.0008211504166204874,0.5129941434846267
0.0008211504166204874,0.5153733528550513
0.000826188149237791,0.5153733528550513
0.000826188149237791,0.5156478770131772
0.0008312258818550947,0.5156478770131772
0.0008312258818550947,0.5167459736456809
0.0008362636144723983,0.5167459736456809
0.0008362636144723983,0.5179355783308931
0.0008413013470897018,0.5179355783308931
0.0008413013470897018,0.5180270863836017
0.0008463390797070055,0.5180270863836017
0.0008463390797070055,0.5192166910688141
0.0008513768123243091,0.5192166910688141
0.0008513768123243091,0.5195827232796486
0.0008564145449416127,0.5195827232796486
0.0008564145449416127,0.5200402635431918
0.0008614522775589162,0.5200402635431918
0.0008614522775589162,0.520223279648609
0.0008664900101762199,0.520223279648609
0.0008664900101762199,0.5204062957540263
0.0008715277427935235,0.5204062957540263
0.0008715277427935235,0.5220534407027818
0.0008765654754108271,0.5220534407027818
0.0008765654754108271,0.5221449487554904
0.0008816032080281306,0.5221449487554904
0.0008816032080281306,0.5237005856515373
0.0008916786732627379,0.5237005856515373
0.0008916786732627379,0.5247071742313324
0.0008967164058800415,0.5247071742313324
0.0008967164058800415,0.5250732064421669
0.0009017541384973452,0.5250732064421669
0.0009017541384973452,0.5254392386530015
0.0009067918711146487,0.5254392386530015
0.0009067918711146487,0.5257137628111274
0.0009118296037319523,0.5257137628111274
0.0009118296037319523,0.5260797950219619
0.0009168673363492559,0.5260797950219619
0.0009168673363492559,0.5275439238653001
0.0009219050689665596,0.5275439238653001
0.0009219050689665596,0.5276354319180088
0.0009269428015838631,0.5276354319180088
0.0009269428015838631,0.5280929721815519
0.0009319805342011667,0.5280929721815519
0.0009319805342011667,0.5286420204978038
0.0009370182668184704,0.5286420204978038
0.0009370182668184704,0.5290080527086384
0.000942055999435774,0.5290080527086384
0.000942055999435774,0.5309297218155198
0.0009470937320530775,0.5309297218155198
0.0009470937320530775,0.5325768667642753
0.0009521314646703811,0.5325768667642753
0.0009521314646703811,0.5328513909224012
0.0009571691972876848,0.5328513909224012
0.0009571691972876848,0.5337664714494875
0.0009672446625222919,0.5337664714494875
0.0009672446625222919,0.5339494875549048
0.000977320127756899,0.5339494875549048
0.000977320127756899,0.5344070278184481
0.0009873955929915064,0.5344070278184481
0.0009873955929915064,0.5349560761346999
0.0009974710582261136,0.5349560761346999
0.0009974710582261136,0.5350475841874085
0.0010025087908434173,0.5350475841874085
0.0010025087908434173,0.5363286969253295
0.0010075465234607207,0.5363286969253295
0.0010075465234607207,0.5368777452415813
0.0010125842560780244,0.5368777452415813
0.0010125842560780244,0.5374267935578331
0.0010226597213126316,0.5374267935578331
0.0010226597213126316,0.5380673499267935
0.0010276974539299352,0.5380673499267935
0.0010276974539299352,0.5383418740849195
0.0010377729191645424,0.5383418740849195
0.0010377729191645424,0.5384333821376281
0.001042810651781846,0.5384333821376281
0.001042810651781846,0.53898243045388
0.0010478483843991495,0.53898243045388
0.0010478483843991495,0.5392569546120058
0.0010528861170164532,0.5392569546120058
0.0010528861170164532,0.5394399707174231
0.001057923849633757,0.5394399707174231
0.001057923849633757,0.5404465592972182
0.0010629615822510604,0.5404465592972182
0.0010629615822510604,0.5407210834553441
0.0010780747801029712,0.5407210834553441
0.0010780747801029712,0.5415446559297218
0.0010831125127202749,0.5415446559297218
0.0010831125127202749,0.5427342606149341
0.0010881502453375786,0.5427342606149341
0.0010881502453375786,0.5433748169838946
0.001093187977954882,0.5433748169838946
0.001093187977954882,0.5435578330893118
0.0010982257105721857,0.5435578330893118
0.0010982257105721857,0.5436493411420205
0.0011032634431894892,0.5436493411420205
0.0011032634431894892,0.5440153733528551
0.0011083011758067929,0.5440153733528551
0.0011083011758067929,0.5441983894582724
0.0011133389084240965,0.5441983894582724
0.0011133389084240965,0.5454795021961932
0.0011183766410414,0.5454795021961932
0.0011183766410414,0.546303074670571
0.0011234143736587037,0.546303074670571
0.0011234143736587037,0.5464860907759883
0.0011284521062760074,0.5464860907759883
0.0011284521062760074,0.5475841874084919
0.0011334898388933108,0.5475841874084919
0.0011334898388933108,0.5476756954612005
0.0011385275715106145,0.5476756954612005
0.0011385275715106145,0.5480417276720352
0.0011435653041279182,0.5480417276720352
0.0011435653041279182,0.5482247437774525
0.0011486030367452217,0.5482247437774525
0.0011486030367452217,0.5488653001464129
0.0011536407693625253,0.5488653001464129
0.0011536407693625253,0.549322840409956
0.001158678501979829,0.549322840409956
0.001158678501979829,0.551610541727672
0.0011637162345971325,0.551610541727672
0.0011637162345971325,0.551885065885798
0.0011687539672144362,0.551885065885798
0.0011687539672144362,0.5524341142020498
0.0011737916998317396,0.5524341142020498
0.0011737916998317396,0.5526171303074671
0.0011788294324490433,0.5526171303074671
0.0011788294324490433,0.5527086383601757
0.001183867165066347,0.5527086383601757
0.001183867165066347,0.553623718887262
0.0011889048976836505,0.553623718887262
0.0011889048976836505,0.5537152269399708
0.0011939426303009541,0.5537152269399708
0.0011939426303009541,0.554904831625183
0.0011989803629182578,0.554904831625183
0.0011989803629182578,0.5554538799414348
0.0012040180955355613,0.5554538799414348
0.0012040180955355613,0.5558199121522694
0.001209055828152865,0.5558199121522694
0.001209055828152865,0.5559114202049781
0.0012140935607701687,0.5559114202049781
0.0012140935607701687,0.5567349926793558
0.0012191312933874721,0.5567349926793558
0.0012191312933874721,0.5584736456808199
0.0012241690260047758,0.5584736456808199
0.0012241690260047758,0.559205710102489
0.0012292067586220793,0.559205710102489
0.0012292067586220793,0.5592972181551976
0.0012392822238566866,0.5592972181551976
0.0012392822238566866,0.5610358711566618
0.00124431995647399,0.5610358711566618
0.00124431995647399,0.5613103953147877
0.0012493576890912938,0.5613103953147877
0.0012493576890912938,0.5618594436310396
0.0012543954217085975,0.5618594436310396
0.0012543954217085975,0.5626830161054173
0.001259433154325901,0.5626830161054173
0.001259433154325901,0.5628660322108345
0.0012695086195605083,0.5628660322108345
0.0012695086195605083,0.5629575402635432
0.0012745463521778118,0.5629575402635432
0.0012745463521778118,0.5638726207906296
0.0012846218174124191,0.5638726207906296
0.0012846218174124191,0.5646046852122987
0.0012896595500297226,0.5646046852122987
0.0012896595500297226,0.5661603221083455
0.0012997350152643297,0.5661603221083455
0.0012997350152643297,0.5673499267935578
0.0013047727478816334,0.5673499267935578
0.0013047727478816334,0.5674414348462665
0.001309810480498937,0.5674414348462665
0.001309810480498937,0.5678989751098097
0.0013148482131162406,0.5678989751098097
0.0013148482131162406,0.568081991215227
0.0013148482131162406,0.5682650073206442
0.0013148482131162406,0.568814055636896
0.001324923678350848,0.568814055636896
0.001324923678350848,0.5698206442166911
0.0013299614109681514,0.5698206442166911
0.0013299614109681514,0.5704612005856515
0.001334999143585455,0.5704612005856515
0.001334999143585455,0.5712847730600292
0.0013400368762027587,0.5712847730600292
0.0013400368762027587,0.5715592972181552
0.0013450746088200622,0.5715592972181552
0.0013450746088200622,0.5716508052708639
0.001350112341437366,0.5716508052708639
0.001350112341437366,0.5719253294289898
0.0013551500740546696,0.5719253294289898
0.0013551500740546696,0.5720168374816984
0.0013652255392892767,0.5720168374816984
0.0013652255392892767,0.572108345534407
0.0013753010045238839,0.572108345534407
0.0013753010045238839,0.5724743777452416
0.0013803387371411876,0.5724743777452416
0.0013803387371411876,0.5746705710102489
0.001385376469758491,0.5746705710102489
0.001385376469758491,0.575128111273792
0.0013904142023757947,0.575128111273792
0.0013904142023757947,0.5757686676427526
0.0014004896676104018,0.5757686676427526
0.0014004896676104018,0.5779648609077599
0.0014055274002277055,0.5779648609077599
0.0014055274002277055,0.5781478770131772
0.0014105651328450092,0.5781478770131772
0.0014105651328450092,0.578696925329429
0.0014156028654623127,0.578696925329429
0.0014156028654623127,0.5789714494875549
0.00142567833069692,0.5789714494875549
0.00142567833069692,0.5796120058565154
0.0014307160633142235,0.5796120058565154
0.0014307160633142235,0.5812591508052709
0.0014357537959315272,0.5812591508052709
0.0014357537959315272,0.5813506588579795
0.0014407915285488306,0.5813506588579795
0.0014407915285488306,0.5817166910688141
0.0014458292611661343,0.5817166910688141
0.0014458292611661343,0.5820827232796486
0.001450866993783438,0.5820827232796486
0.001450866993783438,0.5829978038067349
0.0014659801916353488,0.5829978038067349
0.0014659801916353488,0.5831808199121523
0.001476055656869956,0.5831808199121523
0.001476055656869956,0.5835468521229868
0.0014810933894872597,0.5835468521229868
0.0014810933894872597,0.5841874084919473
0.0014861311221045631,0.5841874084919473
0.0014861311221045631,0.5842789165446559
0.0014911688547218668,0.5842789165446559
0.0014911688547218668,0.5843704245973645
0.0014962065873391703,0.5843704245973645
0.0014962065873391703,0.5844619326500732
0.001501244319956474,0.5844619326500732
0.001501244319956474,0.5845534407027818
0.0015062820525737776,0.5845534407027818
0.0015062820525737776,0.5855600292825769
0.0015163575178083848,0.5855600292825769
0.0015163575178083848,0.5856515373352855
0.0015213952504256885,0.5856515373352855
0.0015213952504256885,0.5861090775988287
0.001526432983042992,0.5861090775988287
0.001526432983042992,0.5866581259150805
0.0015314707156602956,0.5866581259150805
0.0015314707156602956,0.5867496339677891
0.0015415461808949028,0.5867496339677891
0.0015415461808949028,0.5869326500732065
0.0015465839135122064,0.5869326500732065
0.0015465839135122064,0.5873901903367497
0.0015516216461295101,0.5873901903367497
0.0015516216461295101,0.5883967789165446
0.0015566593787468136,0.5883967789165446
0.0015566593787468136,0.5890373352855052
0.0015616971113641173,0.5890373352855052
0.0015616971113641173,0.5893118594436311
0.0015717725765987244,0.5893118594436311
0.0015717725765987244,0.5894033674963397
0.001576810309216028,0.5894033674963397
0.001576810309216028,0.589586383601757
0.0015818480418333316,0.589586383601757
0.0015818480418333316,0.5897693997071742
0.0015868857744506353,0.5897693997071742
0.0015868857744506353,0.5900439238653001
0.001591923507067939,0.5900439238653001
0.001591923507067939,0.5902269399707174
0.0015969612396852424,0.5902269399707174
0.0015969612396852424,0.5911420204978038
0.001601998972302546,0.5911420204978038
0.001601998972302546,0.5914165446559297
0.0016070367049198498,0.5914165446559297
0.0016070367049198498,0.5915080527086384
0.0016120744375371532,0.5915080527086384
0.0016120744375371532,0.5922401171303074
0.001617112170154457,0.5922401171303074
0.001617112170154457,0.5924231332357247
0.0016322253680063677,0.5924231332357247
0.0016322253680063677,0.5927891654465594
0.0016372631006236712,0.5927891654465594
0.0016372631006236712,0.5931551976573939
0.0016423008332409749,0.5931551976573939
0.0016423008332409749,0.5943448023426061
0.0016473385658582786,0.5943448023426061
0.0016473385658582786,0.5944363103953147
0.001652376298475582,0.5944363103953147
0.001652376298475582,0.5945278184480234
0.0016574140310928857,0.5945278184480234
0.0016574140310928857,0.5948023426061494
0.0016624517637101894,0.5948023426061494
0.0016624517637101894,0.594893850658858
0.0016674894963274929,0.594893850658858
0.0016674894963274929,0.5953513909224012
0.0016775649615621002,0.5953513909224012
0.0016775649615621002,0.5961749633967789
0.0016826026941794037,0.5961749633967789
0.0016826026941794037,0.5963579795021962
0.0017027536246486182,0.5963579795021962
0.0017027536246486182,0.5964494875549048
0.001717866822500529,0.5964494875549048
0.001717866822500529,0.5968155197657394
0.0017279422877351362,0.5968155197657394
0.0017279422877351362,0.597181551976574
0.0017329800203524399,0.597181551976574
0.0017329800203524399,0.5978221083455344
0.0017380177529697433,0.5978221083455344
0.0017380177529697433,0.5980966325036603
0.001743055485587047,0.5980966325036603
0.001743055485587047,0.5981881405563689
0.0017531309508216541,0.5981881405563689
0.0017531309508216541,0.5982796486090776
0.0017581686834389578,0.5982796486090776
0.0017581686834389578,0.5986456808199122
0.001768244148673565,0.5986456808199122
0.001768244148673565,0.5994692532942899
0.0017732818812908687,0.5994692532942899
0.0017732818812908687,0.6004758418740849
0.0017783196139081721,0.6004758418740849
0.0017783196139081721,0.6007503660322109
0.0017833573465254758,0.6007503660322109
0.0017833573465254758,0.6010248901903368
0.0017883950791427795,0.6010248901903368
0.0017883950791427795,0.6012994143484627
0.0017984705443773866,0.6012994143484627
0.0017984705443773866,0.6015739385065886
0.0018035082769946903,0.6015739385065886
0.0018035082769946903,0.6023060029282576
0.0018135837422292975,0.6023060029282576
0.0018135837422292975,0.6023975109809663
0.0018186214748466011,0.6023975109809663
0.0018186214748466011,0.6025805270863837
0.0018236592074639046,0.6025805270863837
0.0018236592074639046,0.6030380673499268
0.0018286969400812083,0.6030380673499268
0.0018286969400812083,0.6039531478770132
0.0018337346726985118,0.6039531478770132
0.0018337346726985118,0.604227672035139
0.0018438101379331191,0.604227672035139
0.0018438101379331191,0.6063323572474377
0.0018488478705504226,0.6063323572474377
0.0018488478705504226,0.606789897510981
0.00185892333578503,0.606789897510981
0.00185892333578503,0.6076134699853587
0.0018740365336369408,0.6076134699853587
0.0018740365336369408,0.6077049780380673
0.0018790742662542442,0.6077049780380673
0.0018790742662542442,0.607796486090776
0.001884111998871548,0.607796486090776
0.001884111998871548,0.6083455344070278
0.0018891497314888516,0.6083455344070278
0.0018891497314888516,0.609809663250366
0.001894187464106155,0.609809663250366
0.001894187464106155,0.6099011713030746
0.0018992251967234587,0.6099011713030746
0.0018992251967234587,0.6104502196193266
0.0019042629293407622,0.6104502196193266
0.0019042629293407622,0.6108162518301611
0.001909300661958066,0.6108162518301611
0.001909300661958066,0.6111822840409956
0.0019143383945753696,0.6111822840409956
0.0019143383945753696,0.611822840409956
0.001919376127192673,0.611822840409956
0.001919376127192673,0.6119143484626647
0.0019294515924272804,0.6119143484626647
0.0019294515924272804,0.6121888726207906
0.0019344893250445839,0.6121888726207906
0.0019344893250445839,0.6122803806734992
0.0019395270576618876,0.6122803806734992
0.0019395270576618876,0.6127379209370425
0.0019445647902791912,0.6127379209370425
0.0019445647902791912,0.613103953147877
0.001954640255513798,0.613103953147877
0.001954640255513798,0.6131954612005857
0.001959677988131102,0.6131954612005857
0.001959677988131102,0.6133784773060029
0.0019647157207484055,0.6133784773060029
0.0019647157207484055,0.6134699853587116
0.001969753453365709,0.6134699853587116
0.001969753453365709,0.6142935578330894
0.0019798289186003164,0.6142935578330894
0.0019798289186003164,0.6147510980966325
0.00198486665121762,0.6147510980966325
0.00198486665121762,0.6152086383601757
0.001994942116452227,0.6152086383601757
0.001994942116452227,0.6153001464128843
0.0019999798490695306,0.6153001464128843
0.0019999798490695306,0.6154831625183016
0.002010055314304138,0.6154831625183016
0.002010055314304138,0.6157576866764275
0.0020150930469214415,0.6157576866764275
0.0020150930469214415,0.6159407027818448
0.0020201307795387454,0.6159407027818448
0.0020201307795387454,0.6162152269399708
0.002025168512156049,0.6162152269399708
0.002025168512156049,0.616398243045388
0.0020302062447733523,0.616398243045388
0.0020302062447733523,0.6169472913616398
0.0020402817100079597,0.6169472913616398
0.0020402817100079597,0.6170387994143485
0.002050357175242567,0.6170387994143485
0.002050357175242567,0.6174963396778916
0.0020553949078598705,0.6174963396778916
0.0020553949078598705,0.6176793557833089
0.002060432640477174,0.6176793557833089
0.002060432640477174,0.6180453879941434
0.0020705081057117813,0.6180453879941434
0.0020705081057117813,0.6183199121522694
0.0020805835709463883,0.6183199121522694
0.0020805835709463883,0.618685944363104
0.002085621303563692,0.618685944363104
0.002085621303563692,0.6190519765739385
0.002095696768798299,0.6190519765739385
0.002095696768798299,0.6195095168374817
0.002100734501415603,0.6195095168374817
0.002100734501415603,0.6197840409956076
0.0021057722340329064,0.6197840409956076
0.0021057722340329064,0.6205161054172768
0.00211080996665021,0.6205161054172768
0.00211080996665021,0.6207906295754027
0.002115847699267514,0.6207906295754027
0.002115847699267514,0.6209736456808199
0.0021208854318848173,0.6209736456808199
0.0021208854318848173,0.6212481698389458
0.002135998629736728,0.6212481698389458
0.002135998629736728,0.6216142020497804
0.0021410363623540316,0.6216142020497804
0.0021410363623540316,0.621705710102489
0.0021460740949713355,0.621705710102489
0.0021460740949713355,0.6220717423133236
0.002151111827588639,0.6220717423133236
0.002151111827588639,0.6221632503660323
0.0021561495602059424,0.6221632503660323
0.0021561495602059424,0.6225292825768668
0.0021611872928232463,0.6225292825768668
0.0021611872928232463,0.6236273792093704
0.0021662250254405498,0.6236273792093704
0.0021662250254405498,0.6238103953147877
0.002176300490675157,0.6238103953147877
0.002176300490675157,0.6239019033674963
0.0021813382232924606,0.6239019033674963
0.0021813382232924606,0.6248169838945827
0.002186375955909764,0.6248169838945827
0.002186375955909764,0.6253660322108345
0.002191413688527068,0.6253660322108345
0.002191413688527068,0.6260065885797951
0.0022065268863789783,0.6260065885797951
0.0022065268863789783,0.6265556368960469
0.0022115646189962822,0.6265556368960469
0.0022115646189962822,0.6266471449487555
0.0022166023516135857,0.6266471449487555
0.0022166023516135857,0.6269216691068814
0.002221640084230889,0.6269216691068814
0.002221640084230889,0.62701317715959
0.002226677816848193,0.62701317715959
0.002226677816848193,0.6274707174231332
0.0022317155494654965,0.6274707174231332
0.0022317155494654965,0.6278367496339677
0.002241791014700104,0.6278367496339677
0.002241791014700104,0.6286603221083455
0.0022468287473174074,0.6286603221083455
0.0022468287473174074,0.6287518301610542
0.002251866479934711,0.6287518301610542
0.002251866479934711,0.6291178623718887
0.002261941945169318,0.6291178623718887
0.002261941945169318,0.629300878477306
0.002277055143021229,0.629300878477306
0.002277055143021229,0.6293923865300146
0.0022871306082558364,0.6293923865300146
0.0022871306082558364,0.6294838945827232
0.0022972060734904433,0.6294838945827232
0.0022972060734904433,0.6297584187408491
0.002312319271342354,0.6297584187408491
0.002312319271342354,0.6298499267935578
0.002317357003959658,0.6298499267935578
0.002317357003959658,0.6303989751098097
0.002327432469194265,0.6303989751098097
0.002327432469194265,0.6307650073206442
0.0023324702018115684,0.6307650073206442
0.0023324702018115684,0.6309480234260615
0.002342545667046176,0.6309480234260615
0.002342545667046176,0.6311310395314788
0.0023475833996634793,0.6311310395314788
0.0023475833996634793,0.631314055636896
0.002352621132280783,0.631314055636896
0.002352621132280783,0.6317715959004392
0.0023576588648980866,0.6317715959004392
0.0023576588648980866,0.632595168374817
0.00236269659751539,0.632595168374817
0.00236269659751539,0.6329612005856515
0.002367734330132694,0.6329612005856515
0.002367734330132694,0.6330527086383602
0.0023727720627499975,0.6330527086383602
0.0023727720627499975,0.6332357247437774
0.002377809795367301,0.6332357247437774
0.002377809795367301,0.6336932650073206
0.002382847527984605,0.6336932650073206
0.002382847527984605,0.6337847730600292
0.0023929229932192118,0.6337847730600292
0.0023929229932192118,0.6340592972181552
0.0023979607258365157,0.6340592972181552
0.0023979607258365157,0.6345168374816984
0.002402998458453819,0.6345168374816984
0.002402998458453819,0.634608345534407
0.0024080361910711226,0.634608345534407
0.0024080361910711226,0.6352489019033675
0.0024130739236884265,0.6352489019033675
0.0024130739236884265,0.6353404099560761
0.00241811165630573,0.6353404099560761
0.00241811165630573,0.6359809663250366
0.0024281871215403373,0.6359809663250366
0.0024281871215403373,0.6360724743777453
0.0024332248541576408,0.6360724743777453
0.0024332248541576408,0.6363469985358712
0.0024382625867749442,0.6363469985358712
0.0024382625867749442,0.6366215226939971
0.002443300319392248,0.6366215226939971
0.002443300319392248,0.6367130307467057
0.0024483380520095516,0.6367130307467057
0.0024483380520095516,0.6369875549048316
0.0024584135172441585,0.6369875549048316
0.0024584135172441585,0.6370790629575402
0.002468488982478766,0.6370790629575402
0.002468488982478766,0.6374450951683748
0.0024735267150960694,0.6374450951683748
0.0024735267150960694,0.6382686676427526
0.0024785644477133733,0.6382686676427526
0.0024785644477133733,0.638909224011713
0.0024836021803306767,0.638909224011713
0.0024836021803306767,0.6391837481698389
0.00248863991294798,0.6391837481698389
0.00248863991294798,0.6394582723279648
0.002503753110799891,0.6394582723279648
0.002503753110799891,0.6397327964860908
0.002508790843417195,0.6397327964860908
0.002508790843417195,0.6399158125915081
0.002518866308651802,0.6399158125915081
0.002518866308651802,0.6400073206442167
0.002528941773886409,0.6400073206442167
0.002528941773886409,0.6400988286969254
0.0025339795065037127,0.6400988286969254
0.0025339795065037127,0.6402818448023426
0.00254405497173832,0.6402818448023426
0.00254405497173832,0.6405563689604685
0.0025490927043556235,0.6405563689604685
0.0025490927043556235,0.6406478770131772
0.0025541304369729274,0.6406478770131772
0.0025541304369729274,0.6407393850658858
0.002559168169590231,0.6407393850658858
0.002559168169590231,0.6415629575402635
0.0025642059022075343,0.6415629575402635
0.0025642059022075343,0.6420204978038068
0.0025692436348248382,0.6420204978038068
0.0025692436348248382,0.6421120058565154
0.002579319100059445,0.6421120058565154
0.002579319100059445,0.6422950219619327
0.002584356832676749,0.6422950219619327
0.002584356832676749,0.643210102489019
0.0025893945652940525,0.643210102489019
0.0025893945652940525,0.6435761346998536
0.002594432297911356,0.6435761346998536
0.002594432297911356,0.6437591508052709
0.0025994700305286595,0.6437591508052709
0.0025994700305286595,0.6439421669106882
0.0026045077631459634,0.6439421669106882
0.0026045077631459634,0.6443081991215227
0.002609545495763267,0.6443081991215227
0.002609545495763267,0.64449121522694
0.0026145832283805703,0.64449121522694
0.0026145832283805703,0.6450402635431918
0.0026246586936151776,0.6450402635431918
0.0026246586936151776,0.6451317715959004
0.002634734158849785,0.6451317715959004
0.002634734158849785,0.645223279648609
0.0026397718914670885,0.645223279648609
0.0026397718914670885,0.6454978038067349
0.002644809624084392,0.6454978038067349
0.002644809624084392,0.6455893118594437
0.002649847356701696,0.6455893118594437
0.002649847356701696,0.645772327964861
0.0026548850893189993,0.645772327964861
0.0026548850893189993,0.6462298682284041
0.0026599228219363028,0.6462298682284041
0.0026599228219363028,0.6463213762811127
0.0026649605545536067,0.6463213762811127
0.0026649605545536067,0.6464128843338214
0.00266999828717091,0.6464128843338214
0.00266999828717091,0.6465959004392386
0.0026750360197882136,0.6465959004392386
0.0026750360197882136,0.6466874084919473
0.0026800737524055175,0.6466874084919473
0.0026800737524055175,0.6469619326500732
0.002700224682874732,0.6469619326500732
0.002700224682874732,0.6474194729136163
0.0027052624154920353,0.6474194729136163
0.0027052624154920353,0.6475109809663251
0.002710300148109339,0.6475109809663251
0.002710300148109339,0.6476024890190337
0.0027254133459612495,0.6476024890190337
0.0027254133459612495,0.6479685212298683
0.0027304510785785534,0.6479685212298683
0.0027304510785785534,0.6480600292825769
0.0027455642764304643,0.6480600292825769
0.0027455642764304643,0.6481515373352855
0.0027506020090477677,0.6481515373352855
0.0027506020090477677,0.6482430453879942
0.002755639741665071,0.6482430453879942
0.002755639741665071,0.6483345534407028
0.002760677474282375,0.6483345534407028
0.002760677474282375,0.6486090775988287
0.0027657152068996786,0.6486090775988287
0.0027657152068996786,0.6487005856515373
0.002775790672134286,0.6487005856515373
0.002775790672134286,0.6493411420204978
0.0027808284047515894,0.6493411420204978
0.0027808284047515894,0.6494326500732065
0.002785866137368893,0.6494326500732065
0.002785866137368893,0.6497071742313324
0.0027909038699861968,0.6497071742313324
0.0027909038699861968,0.649798682284041
0.0028009793352208037,0.649798682284041
0.0028009793352208037,0.6501647144948756
0.0028060170678381076,0.6501647144948756
0.0028060170678381076,0.6502562225475842
0.002811054800455411,0.6502562225475842
0.002811054800455411,0.650805270863836
0.0028211302656900184,0.650805270863836
0.0028211302656900184,0.6508967789165446
0.0028312057309246253,0.6508967789165446
0.0028312057309246253,0.6511713030746705
0.0028563943940111435,0.6511713030746705
0.0028563943940111435,0.6514458272327965
0.002861432126628447,0.6514458272327965
0.002861432126628447,0.6521778916544656
0.0028664698592457505,0.6521778916544656
0.0028664698592457505,0.6524524158125915
0.0028715075918630544,0.6524524158125915
0.0028715075918630544,0.6536420204978038
0.002876545324480358,0.6536420204978038
0.002876545324480358,0.6545571010248902
0.002886620789714965,0.6545571010248902
0.002886620789714965,0.6547401171303074
0.0028916585223322687,0.6547401171303074
0.0028916585223322687,0.655106149341142
0.002896696254949572,0.655106149341142
0.002896696254949572,0.6554721815519766
0.0029067717201841795,0.6554721815519766
0.0029067717201841795,0.6557467057101025
0.002911809452801483,0.6557467057101025
0.002911809452801483,0.6558382137628112
0.002916847185418787,0.6558382137628112
0.002916847185418787,0.6562042459736457
0.0029218849180360903,0.6562042459736457
0.0029218849180360903,0.6566617862371888
0.0029269226506533938,0.6566617862371888
0.0029269226506533938,0.6569363103953147
0.0029319603832706977,0.6569363103953147
0.0029319603832706977,0.6572108345534406
0.002936998115888001,0.6572108345534406
0.002936998115888001,0.6573023426061494
0.0029420358485053046,0.6573023426061494
0.0029420358485053046,0.657393850658858
0.0029470735811226085,0.657393850658858
0.0029470735811226085,0.6578513909224012
0.0029621867789745193,0.6578513909224012
0.0029621867789745193,0.6580344070278185
0.002967224511591823,0.6580344070278185
0.002967224511591823,0.6581259150805271
0.00297729997682643,0.6581259150805271
0.00297729997682643,0.6583089311859444
0.0029823377094437336,0.6583089311859444
0.0029823377094437336,0.6591325036603221
0.0029924131746783406,0.6591325036603221
0.0029924131746783406,0.6594070278184481
0.0029974509072956445,0.6594070278184481
0.0029974509072956445,0.6595900439238653
0.0030075263725302514,0.6595900439238653
0.0030075263725302514,0.6597730600292826
0.0030125641051475553,0.6597730600292826
0.0030125641051475553,0.6598645680819912
0.0030176018377648588,0.6598645680819912
0.0030176018377648588,0.6599560761346999
0.003022639570382162,0.6599560761346999
0.003022639570382162,0.6600475841874085
0.003027677302999466,0.6600475841874085
0.003027677302999466,0.6614202049780381
0.003037752768234073,0.6614202049780381
0.003037752768234073,0.6616032210834554
0.0030629414313205912,0.6616032210834554
0.0030629414313205912,0.661694729136164
0.0030679791639378947,0.661694729136164
0.0030679791639378947,0.6622437774524158
0.003078054629172502,0.6622437774524158
0.003078054629172502,0.6628843338213762
0.0030830923617898055,0.6628843338213762
0.0030830923617898055,0.6630673499267935
0.0030881300944071094,0.6630673499267935
0.0030881300944071094,0.6631588579795022
0.003093167827024413,0.6631588579795022
0.003093167827024413,0.6632503660322109
0.0030982055596417164,0.6632503660322109
0.0030982055596417164,0.6637994143484627
0.0031032432922590203,0.6637994143484627
0.0031032432922590203,0.6638909224011713
0.0031082810248763237,0.6638909224011713
0.0031082810248763237,0.66398243045388
0.003113318757493627,0.66398243045388
0.003113318757493627,0.6640739385065886
0.003118356490110931,0.6640739385065886
0.003118356490110931,0.664714494875549
0.0031233942227282346,0.664714494875549
0.0031233942227282346,0.6649890190336749
0.003128431955345538,0.6649890190336749
0.003128431955345538,0.6652635431918009
0.0031334696879628415,0.6652635431918009
0.0031334696879628415,0.6653550512445096
0.0031385074205801454,0.6653550512445096
0.0031385074205801454,0.6661786237188873
0.003143545153197449,0.6661786237188873
0.003143545153197449,0.6663616398243045
0.0031586583510493597,0.6663616398243045
0.0031586583510493597,0.6666361639824304
0.003163696083666663,0.6666361639824304
0.003163696083666663,0.6670021961932651
0.003168733816283967,0.6670021961932651
0.003168733816283967,0.6670937042459737
0.0031737715489012705,0.6670937042459737
0.0031737715489012705,0.6675512445095169
0.003178809281518574,0.6675512445095169
0.003178809281518574,0.6676427525622255
0.003183847014135878,0.6676427525622255
0.003183847014135878,0.6683748169838946
0.0031888847467531813,0.6683748169838946
0.0031888847467531813,0.6685578330893118
0.003193922479370485,0.6685578330893118
0.003193922479370485,0.6688323572474377
0.0031989602119877887,0.6688323572474377
0.0031989602119877887,0.6689238653001464
0.003203997944605092,0.6689238653001464
0.003203997944605092,0.6691068814055637
0.0032090356772223956,0.6691068814055637
0.0032090356772223956,0.6691983894582724
0.0032140734098396995,0.6691983894582724
0.0032140734098396995,0.6693814055636896
0.003219111142457003,0.6693814055636896
0.003219111142457003,0.6694729136163983
0.0032241488750743065,0.6694729136163983
0.0032241488750743065,0.6701134699853587
0.0032392620729262173,0.6701134699853587
0.0032392620729262173,0.670296486090776
0.0032493375381608246,0.670296486090776
0.0032493375381608246,0.6706625183016105
0.0032594130033954316,0.6706625183016105
0.0032594130033954316,0.6709370424597365
0.0032644507360127355,0.6709370424597365
0.0032644507360127355,0.6711200585651538
0.003269488468630039,0.6711200585651538
0.003269488468630039,0.671303074670571
0.0032795639338646463,0.671303074670571
0.0032795639338646463,0.6721266471449487
0.0032846016664819498,0.6721266471449487
0.0032846016664819498,0.6722181551976574
0.0032997148643338606,0.6722181551976574
0.0032997148643338606,0.672309663250366
0.0033148280621857714,0.672309663250366
0.0033148280621857714,0.6731332357247438
0.003319865794803075,0.6731332357247438
0.003319865794803075,0.6733162518301611
0.003324903527420379,0.6733162518301611
0.003324903527420379,0.673590775988287
0.0033349789926549857,0.673590775988287
0.0033349789926549857,0.6745058565153733
0.0033400167252722896,0.6745058565153733
0.0033400167252722896,0.674597364568082
0.0033551299231242004,0.674597364568082
0.0033551299231242004,0.6749633967789166
0.0033652053883588074,0.6749633967789166
0.0033652053883588074,0.6750549048316252
0.0033702431209761113,0.6750549048316252
0.0033702431209761113,0.6751464128843339
0.0033752808535934147,0.6751464128843339
0.0033752808535934147,0.6754209370424598
0.003380318586210718,0.6754209370424598
0.003380318586210718,0.6755124450951684
0.003385356318828022,0.6755124450951684
0.003385356318828022,0.675603953147877
0.0033903940514453256,0.675603953147877
0.0033903940514453256,0.6756954612005857
0.003395431784062629,0.6756954612005857
0.003395431784062629,0.6759699853587116
0.0034155827145318433,0.6759699853587116
0.0034155827145318433,0.6761530014641288
0.003430695912383754,0.6761530014641288
0.003430695912383754,0.6762445095168375
0.003435733645001058,0.6762445095168375
0.003435733645001058,0.6764275256222547
0.0034407713776183615,0.6764275256222547
0.0034407713776183615,0.6767020497803806
0.003445809110235665,0.6767020497803806
0.003445809110235665,0.6773426061493412
0.003450846842852969,0.6773426061493412
0.003450846842852969,0.6777086383601757
0.003460922308087576,0.6777086383601757
0.003460922308087576,0.6778001464128843
0.0034810732385567905,0.6778001464128843
0.0034810732385567905,0.677891654465593
0.0034961864364087014,0.677891654465593
0.0034961864364087014,0.6779831625183016
0.003501224169026005,0.6779831625183016
0.003501224169026005,0.6780746705710102
0.0035062619016433083,0.6780746705710102
0.0035062619016433083,0.6787152269399708
0.003511299634260612,0.6787152269399708
0.003511299634260612,0.678898243045388
0.0035163373668779157,0.678898243045388
0.0035163373668779157,0.6789897510980967
0.003521375099495219,0.6789897510980967
0.003521375099495219,0.6792642752562226
0.0035264128321125226,0.6792642752562226
0.0035264128321125226,0.6795387994143485
0.0035314505647298265,0.6795387994143485
0.0035314505647298265,0.6801793557833089
0.0035516014951990408,0.6801793557833089
0.0035516014951990408,0.6804538799414348
0.0035566392278163442,0.6804538799414348
0.0035566392278163442,0.6806368960468521
0.003561676960433648,0.6806368960468521
0.003561676960433648,0.6807284040995608
0.0035667146930509516,0.6807284040995608
0.0035667146930509516,0.6808199121522694
0.003571752425668255,0.6808199121522694
0.003571752425668255,0.6814604685212299
0.0035818278909028624,0.6814604685212299
0.0035818278909028624,0.6815519765739385
0.003586865623520166,0.6815519765739385
0.003586865623520166,0.6816434846266471
0.0036019788213720767,0.6816434846266471
0.0036019788213720767,0.6821925329428989
0.0036070165539893806,0.6821925329428989
0.0036070165539893806,0.6824670571010248
0.003612054286606684,0.6824670571010248
0.003612054286606684,0.6825585651537335
0.0036221297518412915,0.6825585651537335
0.0036221297518412915,0.683199121522694
0.0036422806823105057,0.683199121522694
0.0036422806823105057,0.6832906295754027
0.003647318414927809,0.6832906295754027
0.003647318414927809,0.6837481698389458
0.003652356147545113,0.6837481698389458
0.003652356147545113,0.6838396778916545
0.003677544810631631,0.6838396778916545
0.003677544810631631,0.6839311859443631
0.0036876202758662382,0.6839311859443631
0.0036876202758662382,0.6840226939970717
0.0036926580084835417,0.6840226939970717
0.0036926580084835417,0.6841142020497804
0.003697695741100845,0.6841142020497804
0.003697695741100845,0.6846632503660323
0.003702733473718149,0.6846632503660323
0.003702733473718149,0.6851207906295754
0.0037077712063354525,0.6851207906295754
0.0037077712063354525,0.68548682284041
0.00371784667157006,0.68548682284041
0.00371784667157006,0.6860358711566618
0.0037228844041873634,0.6860358711566618
0.0037228844041873634,0.6864934114202049
0.003727922136804667,0.6864934114202049
0.003727922136804667,0.6865849194729137
0.0037329598694219707,0.6865849194729137
0.0037329598694219707,0.6866764275256223
0.0037430353346565776,0.6866764275256223
0.0037430353346565776,0.6871339677891655
0.0037480730672738815,0.6871339677891655
0.0037480730672738815,0.6872254758418741
0.003753110799891185,0.6872254758418741
0.003753110799891185,0.6873169838945827
0.0037581485325084885,0.6873169838945827
0.0037581485325084885,0.6877745241581259
0.0037631862651257924,0.6877745241581259
0.0037631862651257924,0.6879575402635432
0.003768223997743096,0.6879575402635432
0.003768223997743096,0.6880490483162518
0.003778299462977703,0.6880490483162518
0.003778299462977703,0.6882320644216691
0.0037833371955950067,0.6882320644216691
0.0037833371955950067,0.6885980966325037
0.0037984503934469175,0.6885980966325037
0.0037984503934469175,0.6886896046852123
0.0038085258586815244,0.6886896046852123
0.0038085258586815244,0.6889641288433382
0.0038135635912988283,0.6889641288433382
0.0038135635912988283,0.6890556368960469
0.003818601323916132,0.6890556368960469
0.003818601323916132,0.6896961932650073
0.0038236390565334353,0.6896961932650073
0.0038236390565334353,0.6897877013177159
0.003838752254385346,0.6897877013177159
0.003838752254385346,0.6898792093704246
0.00384378998700265,0.6898792093704246
0.00384378998700265,0.6900622254758418
0.0038488277196199534,0.6900622254758418
0.0038488277196199534,0.6902452415812591
0.003853865452237257,0.6902452415812591
0.003853865452237257,0.6903367496339677
0.003858903184854561,0.6903367496339677
0.003858903184854561,0.6906112737920937
0.0038639409174718643,0.6906112737920937
0.0038639409174718643,0.690794289897511
0.0038740163827064716,0.690794289897511
0.0038740163827064716,0.6908857979502196
0.0038840918479410786,0.6908857979502196
0.0038840918479410786,0.6910688140556369
0.003894167313175686,0.6910688140556369
0.003894167313175686,0.6911603221083455
0.0039042427784102933,0.6911603221083455
0.0039042427784102933,0.6913433382137628
0.003919355976262204,0.6913433382137628
0.003919355976262204,0.6915263543191801
0.003924393708879507,0.6915263543191801
0.003924393708879507,0.6916178623718887
0.003939506906731418,0.6916178623718887
0.003939506906731418,0.6917093704245973
0.003949582371966026,0.6917093704245973
0.003949582371966026,0.6918923865300146
0.003954620104583329,0.6918923865300146
0.003954620104583329,0.6922584187408491
0.003959657837200633,0.6922584187408491
0.003959657837200633,0.6925329428989752
0.003964695569817937,0.6925329428989752
0.003964695569817937,0.6926244509516838
0.0039747710350525435,0.6926244509516838
0.0039747710350525435,0.6927159590043924
0.0039798087676698474,0.6927159590043924
0.0039798087676698474,0.6928074670571011
0.0039848465002871505,0.6928074670571011
0.0039848465002871505,0.693081991215227
0.003994921965521758,0.693081991215227
0.003994921965521758,0.6937225475841874
0.003999959698139061,0.6937225475841874
0.003999959698139061,0.693814055636896
0.00402514836122558,0.693814055636896
0.00402514836122558,0.6939055636896047
0.004035223826460187,0.6939055636896047
0.004035223826460187,0.6939970717423133
0.004050337024312098,0.6939970717423133
0.004050337024312098,0.6940885797950219
0.004055374756929402,0.6940885797950219
0.004055374756929402,0.6941800878477306
0.0040755256873986154,0.6941800878477306
0.0040755256873986154,0.6943631039531479
0.004080563420015919,0.6943631039531479
0.004080563420015919,0.6946376281112738
0.004110789815719741,0.6946376281112738
0.004110789815719741,0.6947291361639825
0.004120865280954348,0.6947291361639825
0.004120865280954348,0.6952781844802343
0.004125903013571652,0.6952781844802343
0.004125903013571652,0.6957357247437774
0.004130940746188955,0.6957357247437774
0.004130940746188955,0.6958272327964861
0.00415109167665817,0.6958272327964861
0.00415109167665817,0.6960102489019033
0.0041561294092754735,0.6960102489019033
0.0041561294092754735,0.696376281112738
0.0041611671418927765,0.696376281112738
0.0041611671418927765,0.697108345534407
0.004176280339744687,0.697108345534407
0.004176280339744687,0.6971998535871157
0.004186355804979295,0.6971998535871157
0.004186355804979295,0.6973828696925329
0.004206506735448509,0.6973828696925329
0.004206506735448509,0.6976573938506588
0.004211544468065813,0.6976573938506588
0.004211544468065813,0.6977489019033675
0.004216582200683117,0.6977489019033675
0.004216582200683117,0.6980234260614934
0.00422161993330042,0.6980234260614934
0.00422161993330042,0.6985724743777453
0.004226657665917724,0.6985724743777453
0.004226657665917724,0.6987554904831625
0.004231695398535028,0.6987554904831625
0.004231695398535028,0.699396046852123
0.004236733131152331,0.699396046852123
0.004236733131152331,0.6996705710102489
0.0042417708637696346,0.6996705710102489
0.0042417708637696346,0.6997620790629575
0.0042468085963869385,0.6997620790629575
0.0042468085963869385,0.6998535871156661
0.0042518463290042415,0.6998535871156661
0.0042518463290042415,0.6999450951683748
0.004261921794238849,0.6999450951683748
0.004261921794238849,0.700128111273792
0.004271997259473456,0.700128111273792
0.004271997259473456,0.700402635431918
0.004297185922559974,0.700402635431918
0.004297185922559974,0.7004941434846267
0.004302223655177278,0.7004941434846267
0.004302223655177278,0.7005856515373353
0.004312299120411885,0.7005856515373353
0.004312299120411885,0.700677159590044
0.004317336853029189,0.700677159590044
0.004317336853029189,0.7007686676427526
0.004327412318263796,0.7007686676427526
0.004327412318263796,0.7008601756954612
0.0043324500508810995,0.7008601756954612
0.0043324500508810995,0.7012262079062958
0.0043425255161157065,0.7012262079062958
0.0043425255161157065,0.7016837481698389
0.00434756324873301,0.7016837481698389
0.00434756324873301,0.7017752562225475
0.004357638713967617,0.7017752562225475
0.004357638713967617,0.7028733528550513
0.004362676446584921,0.7028733528550513
0.004362676446584921,0.7029648609077599
0.004367714179202225,0.7029648609077599
0.004367714179202225,0.7030563689604685
0.004372751911819528,0.7030563689604685
0.004372751911819528,0.7036054172767203
0.004382827377054136,0.7036054172767203
0.004382827377054136,0.703696925329429
0.004387865109671439,0.703696925329429
0.004387865109671439,0.7037884333821376
0.00440297830752335,0.7037884333821376
0.00440297830752335,0.7038799414348462
0.004418091505375261,0.7038799414348462
0.004418091505375261,0.7040629575402635
0.0044231292379925645,0.7040629575402635
0.0044231292379925645,0.7041544655929722
0.004433204703227171,0.7041544655929722
0.004433204703227171,0.7044289897510981
0.004438242435844475,0.7044289897510981
0.004438242435844475,0.7045204978038068
0.004448317901079082,0.7045204978038068
0.004448317901079082,0.704703513909224
0.004453355633696386,0.704703513909224
0.004453355633696386,0.7048865300146413
0.004463431098930993,0.7048865300146413
0.004463431098930993,0.7050695461200586
0.004478544296782904,0.7050695461200586
0.004478544296782904,0.7051610541727672
0.004483582029400208,0.7051610541727672
0.004483582029400208,0.7053440702781845
0.004493657494634815,0.7053440702781845
0.004493657494634815,0.7054355783308931
0.004498695227252119,0.7054355783308931
0.004498695227252119,0.705710102489019
0.004503732959869422,0.705710102489019
0.004503732959869422,0.7060761346998536
0.0045188461577213325,0.7060761346998536
0.0045188461577213325,0.7062591508052709
0.004523883890338636,0.7062591508052709
0.004523883890338636,0.7063506588579795
0.00452892162295594,0.7063506588579795
0.00452892162295594,0.7064421669106882
0.004533959355573243,0.7064421669106882
0.004533959355573243,0.7065336749633968
0.004544034820807851,0.7065336749633968
0.004544034820807851,0.7066251830161054
0.004549072553425154,0.7066251830161054
0.004549072553425154,0.7067166910688141
0.004554110286042458,0.7067166910688141
0.004554110286042458,0.7068997071742313
0.004559148018659762,0.7068997071742313
0.004559148018659762,0.7070827232796486
0.004569223483894369,0.7070827232796486
0.004569223483894369,0.7072657393850659
0.004574261216511673,0.7072657393850659
0.004574261216511673,0.7078147877013177
0.00458433668174628,0.7078147877013177
0.00458433668174628,0.7079062957540263
0.004589374414363584,0.7079062957540263
0.004589374414363584,0.7083638360175696
0.004594412146980887,0.7083638360175696
0.004594412146980887,0.7086383601756955
0.0045994498795981905,0.7086383601756955
0.0045994498795981905,0.7087298682284041
0.0046044876122154944,0.7087298682284041
0.0046044876122154944,0.7088213762811127
0.0046095253448327975,0.7088213762811127
0.0046095253448327975,0.7089128843338214
0.004624638542684708,0.7089128843338214
0.004624638542684708,0.70900439238653
0.004629676275302012,0.70900439238653
0.004629676275302012,0.7091874084919473
0.004634714007919316,0.7091874084919473
0.004634714007919316,0.7096449487554904
0.004639751740536619,0.7096449487554904
0.004639751740536619,0.7100109809663251
0.004649827205771226,0.7100109809663251
0.004649827205771226,0.7101939970717424
0.00465486493838853,0.7101939970717424
0.00465486493838853,0.710285505124451
0.004659902671005834,0.710285505124451
0.004659902671005834,0.7103770131771596
0.004664940403623137,0.7103770131771596
0.004664940403623137,0.7104685212298683
0.004669978136240441,0.7104685212298683
0.004669978136240441,0.7107430453879942
0.0046901290667096555,0.7107430453879942
0.0046901290667096555,0.7109260614934114
0.0046951667993269585,0.7109260614934114
0.0046951667993269585,0.7112005856515373
0.0047002045319442624,0.7112005856515373
0.0047002045319442624,0.7118411420204978
0.004705242264561566,0.7118411420204978
0.004705242264561566,0.7123901903367497
0.004710279997178869,0.7123901903367497
0.004710279997178869,0.7124816983894583
0.00472539319503078,0.7124816983894583
0.00472539319503078,0.7125732064421669
0.004730430927648084,0.7125732064421669
0.004730430927648084,0.7129392386530015
0.004740506392882691,0.7129392386530015
0.004740506392882691,0.7131222547584187
0.004745544125499995,0.7131222547584187
0.004745544125499995,0.7133967789165446
0.004750581858117299,0.7133967789165446
0.004750581858117299,0.7136713030746705
0.00476569505596921,0.7136713030746705
0.00476569505596921,0.7137628111273792
0.0047808082538211205,0.7137628111273792
0.0047808082538211205,0.7141288433382138
0.004790883719055727,0.7141288433382138
0.004790883719055727,0.7142203513909224
0.004805996916907638,0.7142203513909224
0.004805996916907638,0.7144948755490483
0.004816072382142245,0.7144948755490483
0.004816072382142245,0.7150439238653001
0.004826147847376853,0.7150439238653001
0.004826147847376853,0.7151354319180088
0.004831185579994156,0.7151354319180088
0.004831185579994156,0.7152269399707174
0.004861411975697978,0.7152269399707174
0.004861411975697978,0.7156844802342606
0.0048714874409325854,0.7156844802342606
0.0048714874409325854,0.7158674963396779
0.0048765251735498885,0.7158674963396779
0.0048765251735498885,0.7160505124450952
0.004881562906167192,0.7160505124450952
0.004881562906167192,0.7162335285505125
0.004886600638784496,0.7162335285505125
0.004886600638784496,0.7165080527086384
0.004901713836636407,0.7165080527086384
0.004901713836636407,0.7167825768667643
0.004916827034488317,0.7167825768667643
0.004916827034488317,0.7168740849194729
0.004921864767105621,0.7168740849194729
0.004921864767105621,0.7175146412884333
0.004936977964957532,0.7175146412884333
0.004936977964957532,0.717606149341142
0.004947053430192139,0.717606149341142
0.004947053430192139,0.7177891654465594
0.0049571288954267465,0.7177891654465594
0.0049571288954267465,0.717880673499268
0.0049621666280440496,0.717880673499268
0.0049621666280440496,0.7181551976573939
0.0049672043606613535,0.7181551976573939
0.0049672043606613535,0.7183382137628112
0.004972242093278657,0.7183382137628112
0.004972242093278657,0.7184297218155198
0.004992393023747871,0.7184297218155198
0.004992393023747871,0.7191617862371888
0.005012543954217086,0.7191617862371888
0.005012543954217086,0.7195278184480234
0.005022619419451693,0.7195278184480234
0.005022619419451693,0.7197108345534406
0.005032694884686301,0.7197108345534406
0.005032694884686301,0.7198023426061494
0.0050528458151555145,0.7198023426061494
0.0050528458151555145,0.7202598828696926
0.005072996745624729,0.7202598828696926
0.005072996745624729,0.7204428989751098
0.005078034478242033,0.7204428989751098
0.005078034478242033,0.7205344070278185
0.005093147676093944,0.7205344070278185
0.005093147676093944,0.7207174231332357
0.005098185408711247,0.7207174231332357
0.005098185408711247,0.7209919472913616
0.005118336339180462,0.7209919472913616
0.005118336339180462,0.7210834553440703
0.005123374071797766,0.7210834553440703
0.005123374071797766,0.7212664714494875
0.005128411804415069,0.7212664714494875
0.005128411804415069,0.7213579795021962
0.0051384872696496765,0.7213579795021962
0.0051384872696496765,0.7216325036603221
0.0051435250022669795,0.7216325036603221
0.0051435250022669795,0.7217240117130308
0.005153600467501587,0.7217240117130308
0.005153600467501587,0.7219070278184481
0.00515863820011889,0.7219070278184481
0.00515863820011889,0.7219985358711567
0.005163675932736194,0.7219985358711567
0.005163675932736194,0.7220900439238653
0.005168713665353498,0.7220900439238653
0.005168713665353498,0.7222730600292826
0.005178789130588105,0.7222730600292826
0.005178789130588105,0.7223645680819912
0.005183826863205408,0.7223645680819912
0.005183826863205408,0.7225475841874085
0.005188864595822712,0.7225475841874085
0.005188864595822712,0.7226390922401171
0.005193902328440016,0.7226390922401171
0.005193902328440016,0.7227306002928258
0.005198940061057319,0.7227306002928258
0.005198940061057319,0.722913616398243
0.005203977793674623,0.722913616398243
0.005203977793674623,0.7230051244509517
0.005219090991526534,0.7230051244509517
0.005219090991526534,0.7230966325036603
0.0052241287241438375,0.7230966325036603
0.0052241287241438375,0.7231881405563689
0.005239241921995748,0.7231881405563689
0.005239241921995748,0.7235541727672035
0.005244279654613051,0.7235541727672035
0.005244279654613051,0.7236456808199122
0.005249317387230355,0.7236456808199122
0.005249317387230355,0.7237371888726208
0.005254355119847659,0.7237371888726208
0.005254355119847659,0.7238286969253295
0.005264430585082266,0.7238286969253295
0.005264430585082266,0.7239202049780381
0.005284581515551481,0.7239202049780381
0.005284581515551481,0.7240117130307467
0.005289619248168784,0.7240117130307467
0.005289619248168784,0.724194729136164
0.005294656980786088,0.724194729136164
0.005294656980786088,0.7242862371888726
0.005299694713403392,0.7242862371888726
0.005299694713403392,0.7245607613469985
0.005304732446020695,0.7245607613469985
0.005304732446020695,0.7249267935578331
0.005309770178637999,0.7249267935578331
0.005309770178637999,0.725201317715959
0.0053148079112553025,0.725201317715959
0.0053148079112553025,0.7252928257686676
0.0053198456438726055,0.7252928257686676
0.0053198456438726055,0.7253843338213762
0.005329921109107213,0.7253843338213762
0.005329921109107213,0.7254758418740849
0.00533999657434182,0.7254758418740849
0.00533999657434182,0.7255673499267935
0.005345034306959124,0.7255673499267935
0.005345034306959124,0.7256588579795022
0.005365185237428338,0.7256588579795022
0.005365185237428338,0.7258418740849195
0.005370222970045642,0.7258418740849195
0.005370222970045642,0.7261163982430454
0.005375260702662946,0.7261163982430454
0.005375260702662946,0.7262994143484627
0.005385336167897553,0.7262994143484627
0.005385336167897553,0.72648243045388
0.00539541163313216,0.72648243045388
0.00539541163313216,0.7265739385065886
0.005400449365749464,0.7265739385065886
0.005400449365749464,0.7266654465592972
0.0054054870983667675,0.7266654465592972
0.0054054870983667675,0.7269399707174231
0.0054105248309840705,0.7269399707174231
0.0054105248309840705,0.7271229868228404
0.005425638028835981,0.7271229868228404
0.005425638028835981,0.727214494875549
0.005430675761453285,0.727214494875549
0.005430675761453285,0.7273060029282576
0.005435713494070589,0.7273060029282576
0.005435713494070589,0.7273975109809663
0.005445788959305196,0.7273975109809663
0.005445788959305196,0.7274890190336749
0.005460902157157107,0.7274890190336749
0.005460902157157107,0.7275805270863837
0.00546593988977441,0.7275805270863837
0.00546593988977441,0.7277635431918009
0.005470977622391714,0.7277635431918009
0.005470977622391714,0.7278550512445096
0.005476015355009018,0.7278550512445096
0.005476015355009018,0.7279465592972182
0.005496166285478232,0.7279465592972182
0.005496166285478232,0.7281295754026355
0.0055012040180955355,0.7281295754026355
0.0055012040180955355,0.7284040995607614
0.005506241750712839,0.7284040995607614
0.005506241750712839,0.7291361639824304
0.005511279483330142,0.7291361639824304
0.005511279483330142,0.729227672035139
0.00552135494856475,0.729227672035139
0.00552135494856475,0.7296852122986823
0.005526392681182053,0.7296852122986823
0.005526392681182053,0.7300512445095169
0.005541505879033964,0.7300512445095169
0.005541505879033964,0.7303257686676428
0.005546543611651268,0.7303257686676428
0.005546543611651268,0.73050878477306
0.005551581344268572,0.73050878477306
0.005551581344268572,0.7309663250366032
0.005556619076885875,0.7309663250366032
0.005556619076885875,0.7310578330893118
0.005561656809503179,0.7310578330893118
0.005561656809503179,0.7311493411420205
0.00557677000735509,0.7311493411420205
0.00557677000735509,0.7312408491947291
0.0055918832052070004,0.7312408491947291
0.0055918832052070004,0.7313323572474377
0.005596920937824304,0.7313323572474377
0.005596920937824304,0.7315153733528551
0.005601958670441607,0.7315153733528551
0.005601958670441607,0.7316068814055637
0.005606996403058911,0.7316068814055637
0.005606996403058911,0.7316983894582724
0.005622109600910822,0.7316983894582724
0.005622109600910822,0.7323389458272328
0.005627147333528126,0.7323389458272328
0.005627147333528126,0.7324304538799414
0.005642260531380037,0.7324304538799414
0.005642260531380037,0.7325219619326501
0.005652335996614644,0.7325219619326501
0.005652335996614644,0.7327049780380673
0.005662411461849251,0.7327049780380673
0.005662411461849251,0.732796486090776
0.0056724869270838585,0.732796486090776
0.0056724869270838585,0.7334370424597365
0.0056775246597011615,0.7334370424597365
0.0056775246597011615,0.7337115666178624
0.005682562392318465,0.7337115666178624
0.005682562392318465,0.7341691068814056
0.005687600124935769,0.7341691068814056
0.005687600124935769,0.7342606149341142
0.005692637857553072,0.7342606149341142
0.005692637857553072,0.7343521229868228
0.005722864253256894,0.7343521229868228
0.005722864253256894,0.7345351390922401
0.005732939718491501,0.7345351390922401
0.005732939718491501,0.7346266471449487
0.005743015183726109,0.7346266471449487
0.005743015183726109,0.734809663250366
0.005748052916343412,0.734809663250366
0.005748052916343412,0.7349011713030746
0.005763166114195323,0.7349011713030746
0.005763166114195323,0.7349926793557833
0.0057682038468126265,0.7349926793557833
0.0057682038468126265,0.7350841874084919
0.005783317044664537,0.7350841874084919
0.005783317044664537,0.7352672035139092
0.005793392509899144,0.7352672035139092
0.005793392509899144,0.7355417276720352
0.005798430242516448,0.7355417276720352
0.005798430242516448,0.7356332357247438
0.005808505707751055,0.7356332357247438
0.005808505707751055,0.7357247437774525
0.005818581172985663,0.7357247437774525
0.005818581172985663,0.7358162518301611
0.005823618905602966,0.7358162518301611
0.005823618905602966,0.736090775988287
0.005833694370837574,0.736090775988287
0.005833694370837574,0.7362737920937042
0.005838732103454877,0.7362737920937042
0.005838732103454877,0.7363653001464129
0.0058488075686894845,0.7363653001464129
0.0058488075686894845,0.7365483162518301
0.0058538453013067876,0.7365483162518301
0.0058538453013067876,0.7367313323572474
0.0058588830339240915,0.7367313323572474
0.0058588830339240915,0.737097364568082
0.005884071697010609,0.737097364568082
0.005884071697010609,0.7372803806734992
0.005904222627479824,0.7372803806734992
0.005904222627479824,0.737371888726208
0.0059394867558009495,0.737371888726208
0.0059394867558009495,0.7375549048316252
0.005949562221035556,0.7375549048316252
0.005949562221035556,0.7376464128843339
0.00595459995365286,0.7376464128843339
0.00595459995365286,0.7380124450951684
0.005974750884122074,0.7380124450951684
0.005974750884122074,0.7381954612005857
0.005984826349356681,0.7381954612005857
0.005984826349356681,0.7383784773060029
0.005994901814591289,0.7383784773060029
0.005994901814591289,0.7384699853587116
0.006004977279825896,0.7384699853587116
0.006004977279825896,0.7385614934114202
0.0060100150124432,0.7385614934114202
0.0060100150124432,0.7387445095168375
0.006015052745060503,0.7387445095168375
0.006015052745060503,0.7388360175695461
0.006030165942912414,0.7388360175695461
0.006030165942912414,0.7389275256222547
0.006040241408147021,0.7389275256222547
0.006040241408147021,0.7392020497803806
0.006065430071233539,0.7392020497803806
0.006065430071233539,0.7395680819912153
0.006075505536468146,0.7395680819912153
0.006075505536468146,0.7396595900439239
0.006085581001702754,0.7396595900439239
0.006085581001702754,0.7398426061493412
0.006095656466937361,0.7398426061493412
0.006095656466937361,0.7400256222547584
0.006110769664789272,0.7400256222547584
0.006110769664789272,0.7401171303074671
0.0061158073974065755,0.7401171303074671
0.0061158073974065755,0.7402086383601757
0.006120845130023879,0.7402086383601757
0.006120845130023879,0.7404831625183016
0.0061258828626411825,0.7404831625183016
0.0061258828626411825,0.7405746705710102
0.006135958327875789,0.7405746705710102
0.006135958327875789,0.7408491947291361
0.006146033793110397,0.7408491947291361
0.006146033793110397,0.7410322108345534
0.0061510715257277,0.7410322108345534
0.0061510715257277,0.741123718887262
0.006156109258345004,0.741123718887262
0.006156109258345004,0.7415812591508053
0.006161146990962308,0.7415812591508053
0.006161146990962308,0.7416727672035139
0.006166184723579611,0.7416727672035139
0.006166184723579611,0.7417642752562226
0.006171222456196915,0.7417642752562226
0.006171222456196915,0.7422218155197657
0.006181297921431522,0.7422218155197657
0.006181297921431522,0.7423133235724744
0.006186335654048826,0.7423133235724744
0.006186335654048826,0.742404831625183
0.00619137338666613,0.742404831625183
0.00619137338666613,0.7424963396778916
0.006196411119283433,0.7424963396778916
0.006196411119283433,0.7427708638360175
0.0062115243171353435,0.7427708638360175
0.0062115243171353435,0.7428623718887262
0.006221599782369951,0.7428623718887262
0.006221599782369951,0.7429538799414348
0.006231675247604558,0.7429538799414348
0.006231675247604558,0.7430453879941434
0.006241750712839165,0.7430453879941434
0.006241750712839165,0.7432284040995608
0.006246788445456469,0.7432284040995608
0.006246788445456469,0.7434114202049781
0.006266939375925683,0.7434114202049781
0.006266939375925683,0.7435029282576867
0.006282052573777594,0.7435029282576867
0.006282052573777594,0.7435944363103953
0.006307241236864112,0.7435944363103953
0.006307241236864112,0.7438689604685212
0.006317316702098719,0.7438689604685212
0.006317316702098719,0.7440519765739385
0.006322354434716023,0.7440519765739385
0.006322354434716023,0.7441434846266471
0.006327392167333326,0.7441434846266471
0.006327392167333326,0.7443265007320644
0.006342505365185237,0.7443265007320644
0.006342505365185237,0.744418008784773
0.006367694028271756,0.744418008784773
0.006367694028271756,0.7445095168374817
0.006377769493506363,0.7445095168374817
0.006377769493506363,0.7446925329428989
0.006397920423975577,0.7446925329428989
0.006397920423975577,0.7448755490483162
0.006407995889210184,0.7448755490483162
0.006407995889210184,0.7449670571010248
0.006418071354444791,0.7449670571010248
0.006418071354444791,0.7450585651537335
0.006423109087062095,0.7450585651537335
0.006423109087062095,0.7455161054172768
0.006428146819679399,0.7455161054172768
0.006428146819679399,0.7456076134699854
0.006438222284914006,0.7456076134699854
0.006438222284914006,0.745699121522694
0.00644326001753131,0.745699121522694
0.00644326001753131,0.7458821376281113
0.006453335482765917,0.7458821376281113
0.006453335482765917,0.7459736456808199
0.006463410948000524,0.7459736456808199
0.006463410948000524,0.7460651537335286
0.0064734864132351315,0.7460651537335286
0.0064734864132351315,0.7463396778916545
0.006488599611087042,0.7463396778916545
0.006488599611087042,0.7465226939970717
0.006503712808938953,0.7465226939970717
0.006503712808938953,0.7466142020497804
0.006508750541556256,0.7466142020497804
0.006508750541556256,0.746705710102489
0.00651378827417356,0.746705710102489
0.00651378827417356,0.7467972181551976
0.006523863739408167,0.7467972181551976
0.006523863739408167,0.7469802342606149
0.006533939204642774,0.7469802342606149
0.006533939204642774,0.7471632503660323
0.006544014669877382,0.7471632503660323
0.006544014669877382,0.7472547584187409
0.006549052402494685,0.7472547584187409
0.006549052402494685,0.7474377745241582
0.006589354263433114,0.7474377745241582
0.006589354263433114,0.7476207906295754
0.006594391996050417,0.7476207906295754
0.006594391996050417,0.7480783308931186
0.006599429728667721,0.7480783308931186
0.006599429728667721,0.7483528550512445
0.006604467461285025,0.7483528550512445
0.006604467461285025,0.7486273792093704
0.006609505193902328,0.7486273792093704
0.006609505193902328,0.748718887262079
0.006614542926519632,0.748718887262079
0.006614542926519632,0.7488103953147877
0.006624618391754239,0.7488103953147877
0.006624618391754239,0.7489019033674963
0.006634693856988847,0.7489019033674963
0.006634693856988847,0.7489934114202049
0.00663973158960615,0.7489934114202049
0.00663973158960615,0.7490849194729137
0.006649807054840758,0.7490849194729137
0.006649807054840758,0.7491764275256223
0.006690108915779186,0.7491764275256223
0.006690108915779186,0.7493594436310396
0.006700184381013793,0.7493594436310396
0.006700184381013793,0.7494509516837482
0.006705222113631097,0.7494509516837482
0.006705222113631097,0.7495424597364568
0.006720335311483008,0.7495424597364568
0.006720335311483008,0.7497254758418741
0.006725373044100312,0.7497254758418741
0.006725373044100312,0.7502745241581259
0.0067404862419522225,0.7502745241581259
0.0067404862419522225,0.7503660322108345
0.006745523974569526,0.7503660322108345
0.006745523974569526,0.7505490483162518
0.006755599439804133,0.7505490483162518
0.006755599439804133,0.7506405563689604
0.006780788102890651,0.7506405563689604
0.006780788102890651,0.7508235724743777
0.006785825835507954,0.7508235724743777
0.006785825835507954,0.7509150805270863
0.006811014498594473,0.7509150805270863
0.006811014498594473,0.7510980966325037
0.006816052231211776,0.7510980966325037
0.006816052231211776,0.7511896046852123
0.00682108996382908,0.7511896046852123
0.00682108996382908,0.7515556368960469
0.0068412408942982944,0.7515556368960469
0.0068412408942982944,0.7517386530014641
0.006851316359532901,0.7517386530014641
0.006851316359532901,0.7518301610541728
0.006856354092150205,0.7518301610541728
0.006856354092150205,0.7521961932650073
0.006861391824767508,0.7521961932650073
0.006861391824767508,0.7522877013177159
0.006866429557384812,0.7522877013177159
0.006866429557384812,0.7523792093704246
0.006881542755236723,0.7523792093704246
0.006881542755236723,0.7524707174231332
0.006886580487854027,0.7524707174231332
0.006886580487854027,0.7525622254758418
0.006896655953088634,0.7525622254758418
0.006896655953088634,0.7526537335285505
0.006911769150940545,0.7526537335285505
0.006911769150940545,0.7527452415812591
0.0069369578140270624,0.7527452415812591
0.0069369578140270624,0.7529282576866764
0.006962146477113581,0.7529282576866764
0.006962146477113581,0.753294289897511
0.006982297407582795,0.753294289897511
0.006982297407582795,0.7533857979502196
0.006992372872817403,0.7533857979502196
0.006992372872817403,0.7534773060029283
0.006997410605434706,0.7534773060029283
0.006997410605434706,0.7535688140556369
0.00700244833805201,0.7535688140556369
0.00700244833805201,0.7536603221083455
0.0070175615359039205,0.7536603221083455
0.0070175615359039205,0.7537518301610542
0.007022599268521224,0.7537518301610542
0.007022599268521224,0.7541178623718887
0.007032674733755831,0.7541178623718887
0.007032674733755831,0.7543923865300146
0.007042750198990438,0.7543923865300146
0.007042750198990438,0.7545754026354319
0.007052825664225045,0.7545754026354319
0.007052825664225045,0.7546669106881405
0.007057863396842349,0.7546669106881405
0.007057863396842349,0.7547584187408491
0.00707297659469426,0.7547584187408491
0.00707297659469426,0.7549414348462665
0.007078014327311564,0.7549414348462665
0.007078014327311564,0.7552159590043924
0.007083052059928867,0.7552159590043924
0.007083052059928867,0.7553074670571011
0.007098165257780778,0.7553074670571011
0.007098165257780778,0.7553989751098097
0.0071032029903980816,0.7553989751098097
0.0071032029903980816,0.7554904831625183
0.0071132784556326885,0.7554904831625183
0.0071132784556326885,0.7557650073206442
0.007118316188249992,0.7557650073206442
0.007118316188249992,0.7560395314787701
0.007128391653484599,0.7560395314787701
0.007128391653484599,0.7561310395314788
0.007138467118719207,0.7561310395314788
0.007138467118719207,0.7562225475841874
0.00714350485133651,0.7562225475841874
0.00714350485133651,0.756314055636896
0.007153580316571118,0.756314055636896
0.007153580316571118,0.7567715959004392
0.007158618049188421,0.7567715959004392
0.007158618049188421,0.7568631039531479
0.007163655781805725,0.7568631039531479
0.007163655781805725,0.7572291361639825
0.007168693514423029,0.7572291361639825
0.007168693514423029,0.7574121522693997
0.007178768979657636,0.7574121522693997
0.007178768979657636,0.7575036603221084
0.00719891991012685,0.7575036603221084
0.00719891991012685,0.757595168374817
0.007208995375361457,0.757595168374817
0.007208995375361457,0.7576866764275256
0.007219070840596064,0.7576866764275256
0.007219070840596064,0.7577781844802343
0.007224108573213368,0.7577781844802343
0.007224108573213368,0.7578696925329429
0.007234184038447975,0.7578696925329429
0.007234184038447975,0.7579612005856515
0.007244259503682583,0.7579612005856515
0.007244259503682583,0.7582357247437774
0.007249297236299886,0.7582357247437774
0.007249297236299886,0.7583272327964861
0.00725433496891719,0.7583272327964861
0.00725433496891719,0.7584187408491947
0.007259372701534494,0.7584187408491947
0.007259372701534494,0.7585102489019033
0.007289599097238315,0.7585102489019033
0.007289599097238315,0.7586932650073206
0.007304712295090226,0.7586932650073206
0.007304712295090226,0.7587847730600292
0.007319825492942136,0.7587847730600292
0.007319825492942136,0.758876281112738
0.00732486322555944,0.758876281112738
0.00732486322555944,0.7589677891654466
0.007329900958176744,0.7589677891654466
0.007329900958176744,0.7592423133235725
0.007334938690794047,0.7592423133235725
0.007334938690794047,0.7593338213762811
0.007339976423411351,0.7593338213762811
0.007339976423411351,0.7595168374816984
0.007345014156028655,0.7595168374816984
0.007345014156028655,0.759608345534407
0.007370202819115173,0.759608345534407
0.007370202819115173,0.7597913616398243
0.0073802782843497795,0.7597913616398243
0.0073802782843497795,0.7602489019033675
0.007390353749584387,0.7602489019033675
0.007390353749584387,0.7604319180087847
0.00739539148220169,0.7604319180087847
0.00739539148220169,0.7607064421669106
0.007400429214818994,0.7607064421669106
0.007400429214818994,0.760889458272328
0.007410504680053601,0.760889458272328
0.007410504680053601,0.7609809663250366
0.007425617877905512,0.7609809663250366
0.007425617877905512,0.7610724743777453
0.007430655610522816,0.7610724743777453
0.007430655610522816,0.7611639824304539
0.00743569334314012,0.7611639824304539
0.00743569334314012,0.7614385065885798
0.007445768808374727,0.7614385065885798
0.007445768808374727,0.7615300146412884
0.007450806540992031,0.7615300146412884
0.007450806540992031,0.7617130307467057
0.0074608820062266375,0.7617130307467057
0.0074608820062266375,0.7618045387994143
0.0074709574714612445,0.7618045387994143
0.0074709574714612445,0.761896046852123
0.007475995204078548,0.761896046852123
0.007475995204078548,0.7619875549048316
0.007486070669313155,0.7619875549048316
0.007486070669313155,0.7623535871156661
0.00750622159978237,0.7623535871156661
0.00750622159978237,0.762628111273792
0.007511259332399674,0.762628111273792
0.007511259332399674,0.7627196193265008
0.007531410262868888,0.7627196193265008
0.007531410262868888,0.762902635431918
0.007536447995486192,0.762902635431918
0.007536447995486192,0.763177159590044
0.007541485728103496,0.763177159590044
0.007541485728103496,0.7632686676427526
0.007546523460720799,0.7632686676427526
0.007546523460720799,0.7633601756954612
0.007556598925955406,0.7633601756954612
0.007556598925955406,0.7634516837481699
0.0075616366585727094,0.7634516837481699
0.0075616366585727094,0.7636346998535871
0.007581787589041924,0.7636346998535871
0.007581787589041924,0.7640007320644217
0.007586825321659227,0.7640007320644217
0.007586825321659227,0.7641837481698389
0.007591863054276531,0.7641837481698389
0.007591863054276531,0.7642752562225475
0.007596900786893835,0.7642752562225475
0.007596900786893835,0.7643667642752562
0.007606976252128442,0.7643667642752562
0.007606976252128442,0.7644582723279648
0.007617051717363049,0.7644582723279648
0.007617051717363049,0.7645497803806734
0.00763216491521496,0.7645497803806734
0.00763216491521496,0.7646412884333821
0.0076472781130668705,0.7646412884333821
0.0076472781130668705,0.7649158125915081
0.007652315845684174,0.7649158125915081
0.007652315845684174,0.7650988286969254
0.007657353578301478,0.7650988286969254
0.007657353578301478,0.7653733528550513
0.007662391310918781,0.7653733528550513
0.007662391310918781,0.7654648609077599
0.007682542241387996,0.7654648609077599
0.007682542241387996,0.7656478770131772
0.0076875799740053,0.7656478770131772
0.0076875799740053,0.7657393850658858
0.007692617706622603,0.7657393850658858
0.007692617706622603,0.7660139092240117
0.007697655439239907,0.7660139092240117
0.007697655439239907,0.7661054172767203
0.007702693171857211,0.7661054172767203
0.007702693171857211,0.7664714494875549
0.007717806369709122,0.7664714494875549
0.007717806369709122,0.7665629575402635
0.0077379573001783355,0.7665629575402635
0.0077379573001783355,0.7668374816983895
0.00775810823064755,0.7668374816983895
0.00775810823064755,0.7669289897510981
0.007763145963264854,0.7669289897510981
0.007763145963264854,0.767203513909224
0.007768183695882157,0.767203513909224
0.007768183695882157,0.7673865300146413
0.007793372358968676,0.7673865300146413
0.007793372358968676,0.7675695461200586
0.007798410091585979,0.7675695461200586
0.007798410091585979,0.7676610541727672
0.007803447824203283,0.7676610541727672
0.007803447824203283,0.7677525622254758
0.007818561022055193,0.7677525622254758
0.007818561022055193,0.7679355783308931
0.007843749685141711,0.7679355783308931
0.007843749685141711,0.7680270863836017
0.007853825150376319,0.7680270863836017
0.007853825150376319,0.7683016105417276
0.007858862882993622,0.7683016105417276
0.007858862882993622,0.7683931185944363
0.007863900615610925,0.7683931185944363
0.007863900615610925,0.7684846266471449
0.007873976080845533,0.7684846266471449
0.007873976080845533,0.7685761346998536
0.007889089278697444,0.7685761346998536
0.007889089278697444,0.7688506588579795
0.007914277941783962,0.7688506588579795
0.007914277941783962,0.7689421669106882
0.007919315674401265,0.7689421669106882
0.007919315674401265,0.7690336749633968
0.007934428872253176,0.7690336749633968
0.007934428872253176,0.7691251830161054
0.00793946660487048,0.7691251830161054
0.00793946660487048,0.7693997071742313
0.007949542070105087,0.7693997071742313
0.007949542070105087,0.7698572474377745
0.00795457980272239,0.7698572474377745
0.00795457980272239,0.7699487554904831
0.007959617535339695,0.7699487554904831
0.007959617535339695,0.7700402635431918
0.007964655267956998,0.7700402635431918
0.007964655267956998,0.7701317715959004
0.007989843931043517,0.7701317715959004
0.007989843931043517,0.770223279648609
0.008004957128895427,0.770223279648609
0.008004957128895427,0.7704978038067349
0.008030145791981944,0.7704978038067349
0.008030145791981944,0.7706808199121523
0.008035183524599249,0.7706808199121523
0.008035183524599249,0.770772327964861
0.008040221257216552,0.770772327964861
0.008040221257216552,0.7708638360175696
0.008060372187685766,0.7708638360175696
0.008060372187685766,0.7709553440702782
0.00806540992030307,0.7709553440702782
0.00806540992030307,0.7710468521229868
0.008080523118154982,0.7710468521229868
0.008080523118154982,0.7711383601756955
0.008100674048624195,0.7711383601756955
0.008100674048624195,0.7712298682284041
0.008105711781241498,0.7712298682284041
0.008105711781241498,0.77150439238653
0.008115787246476106,0.77150439238653
0.008115787246476106,0.7716874084919473
0.00812082497909341,0.7716874084919473
0.00812082497909341,0.7718704245973645
0.00813593817694532,0.7718704245973645
0.00813593817694532,0.7719619326500732
0.008146013642179928,0.7719619326500732
0.008146013642179928,0.7720534407027818
0.008161126840031839,0.7720534407027818
0.008161126840031839,0.7721449487554904
0.008166164572649142,0.7721449487554904
0.008166164572649142,0.7722364568081991
0.00817624003788375,0.7722364568081991
0.00817624003788375,0.7723279648609077
0.008181277770501053,0.7723279648609077
0.008181277770501053,0.7724194729136163
0.008196390968352963,0.7724194729136163
0.008196390968352963,0.7726024890190337
0.008201428700970268,0.7726024890190337
0.008201428700970268,0.7726939970717424
0.008211504166204874,0.7726939970717424
0.008211504166204874,0.772785505124451
0.008216541898822179,0.772785505124451
0.008216541898822179,0.7729685212298683
0.008226617364056785,0.7729685212298683
0.008226617364056785,0.7730600292825769
0.008236692829291393,0.7730600292825769
0.008236692829291393,0.7731515373352855
0.008251806027143304,0.7731515373352855
0.008251806027143304,0.7733345534407028
0.008256843759760607,0.7733345534407028
0.008256843759760607,0.7734260614934114
0.00826188149237791,0.7734260614934114
0.00826188149237791,0.77351756954612
0.008292107888081731,0.77351756954612
0.008292107888081731,0.7737005856515373
0.008297145620699036,0.7737005856515373
0.008297145620699036,0.773792093704246
0.008307221085933642,0.773792093704246
0.008307221085933642,0.7738836017569546
0.008322334283785553,0.7738836017569546
0.008322334283785553,0.7739751098096632
0.00833240974902016,0.7739751098096632
0.00833240974902016,0.7740666178623719
0.008337447481637464,0.7740666178623719
0.008337447481637464,0.7741581259150805
0.00837271160995859,0.7741581259150805
0.00837271160995859,0.7742496339677891
0.008397900273045107,0.7742496339677891
0.008397900273045107,0.7743411420204978
0.008418051203514323,0.7743411420204978
0.008418051203514323,0.7744326500732065
0.008433164401366234,0.7744326500732065
0.008433164401366234,0.7746156661786238
0.008448277599218144,0.7746156661786238
0.008448277599218144,0.7747071742313324
0.008468428529687358,0.7747071742313324
0.008468428529687358,0.774798682284041
0.008483541727539269,0.774798682284041
0.008483541727539269,0.7749816983894583
0.00851376812324309,0.7749816983894583
0.00851376812324309,0.7750732064421669
0.008518805855860394,0.7750732064421669
0.008518805855860394,0.7752562225475842
0.008528881321095002,0.7752562225475842
0.008528881321095002,0.7753477306002928
0.00853895678632961,0.7753477306002928
0.00853895678632961,0.7755307467057101
0.008543994518946912,0.7755307467057101
0.008543994518946912,0.7756222547584187
0.00855406998418152,0.7756222547584187
0.00855406998418152,0.7758967789165446
0.008559107716798823,0.7758967789165446
0.008559107716798823,0.7760797950219619
0.008564145449416126,0.7760797950219619
0.008564145449416126,0.7761713030746705
0.008589334112502645,0.7761713030746705
0.008589334112502645,0.7762628111273792
0.008614522775589164,0.7762628111273792
0.008614522775589164,0.7764458272327965
0.00862459824082377,0.7764458272327965
0.00862459824082377,0.7766288433382138
0.008649786903910288,0.7766288433382138
0.008649786903910288,0.7769948755490483
0.008654824636527591,0.7769948755490483
0.008654824636527591,0.777086383601757
0.008669937834379502,0.777086383601757
0.008669937834379502,0.7772693997071742
0.008690088764848718,0.7772693997071742
0.008690088764848718,0.7773609077598829
0.008705201962700629,0.7773609077598829
0.008705201962700629,0.7775439238653001
0.008710239695317932,0.7775439238653001
0.008710239695317932,0.7777269399707174
0.00872031516055254,0.7777269399707174
0.00872031516055254,0.777818448023426
0.008725352893169842,0.777818448023426
0.008725352893169842,0.7779099560761347
0.008730390625787145,0.7779099560761347
0.008730390625787145,0.7780014641288433
0.00873542835840445,0.7780014641288433
0.00873542835840445,0.7780929721815519
0.008745503823639056,0.7780929721815519
0.008745503823639056,0.7782759882869692
0.008760617021490967,0.7782759882869692
0.008760617021490967,0.7784590043923866
0.008780767951960181,0.7784590043923866
0.008780767951960181,0.7786420204978038
0.008790843417194789,0.7786420204978038
0.008790843417194789,0.7789165446559297
0.008795881149812092,0.7789165446559297
0.008795881149812092,0.7790080527086384
0.008831145278133218,0.7790080527086384
0.008831145278133218,0.7791910688140556
0.008841220743367824,0.7791910688140556
0.008841220743367824,0.7792825768667643
0.008851296208602432,0.7792825768667643
0.008851296208602432,0.7793740849194729
0.008866409406454343,0.7793740849194729
0.008866409406454343,0.7795571010248902
0.00887648487168895,0.7795571010248902
0.00887648487168895,0.7796486090775988
0.008886560336923557,0.7796486090775988
0.008886560336923557,0.7797401171303074
0.008901673534775468,0.7797401171303074
0.008901673534775468,0.7798316251830161
0.008916786732627378,0.7798316251830161
0.008916786732627378,0.7799231332357247
0.008926862197861986,0.7799231332357247
0.008926862197861986,0.7800146412884333
0.00893189993047929,0.7800146412884333
0.00893189993047929,0.780106149341142
0.008941975395713897,0.780106149341142
0.008941975395713897,0.7801976573938506
0.008957088593565808,0.7801976573938506
0.008957088593565808,0.7802891654465594
0.008982277256652326,0.7802891654465594
0.008982277256652326,0.780380673499268
0.00898731498926963,0.780380673499268
0.00898731498926963,0.7805636896046853
0.008992352721886933,0.7805636896046853
0.008992352721886933,0.7806551976573939
0.008997390454504237,0.7806551976573939
0.008997390454504237,0.7807467057101025
0.00900242818712154,0.7807467057101025
0.00900242818712154,0.7808382137628112
0.009007465919738843,0.7808382137628112
0.009007465919738843,0.7809297218155198
0.009017541384973451,0.7809297218155198
0.009017541384973451,0.7810212298682284
0.009022579117590754,0.7810212298682284
0.009022579117590754,0.781112737920937
0.009037692315442665,0.781112737920937
0.009037692315442665,0.7812042459736457
0.009047767780677273,0.7812042459736457
0.009047767780677273,0.7814787701317716
0.00905784324591188,0.7814787701317716
0.00905784324591188,0.7815702781844802
0.009062880978529184,0.7815702781844802
0.009062880978529184,0.7820278184480234
0.009077994176381094,0.7820278184480234
0.009077994176381094,0.782119326500732
0.009088069641615702,0.782119326500732
0.009088069641615702,0.7824853587115667
0.009093107374233005,0.7824853587115667
0.009093107374233005,0.7826683748169839
0.009098145106850308,0.7826683748169839
0.009098145106850308,0.7827598828696926
0.009103182839467613,0.7827598828696926
0.009103182839467613,0.7829428989751098
0.009148522433023346,0.7829428989751098
0.009148522433023346,0.7832174231332357
0.009163635630875256,0.7832174231332357
0.009163635630875256,0.7833089311859444
0.00918378656134447,0.7833089311859444
0.00918378656134447,0.783400439238653
0.009203937491813684,0.783400439238653
0.009203937491813684,0.7834919472913616
0.009219050689665595,0.7834919472913616
0.009219050689665595,0.7835834553440703
0.009229126154900203,0.7835834553440703
0.009229126154900203,0.7836749633967789
0.009244239352752114,0.7836749633967789
0.009244239352752114,0.7840409956076134
0.009249277085369417,0.7840409956076134
0.009249277085369417,0.7841325036603221
0.009264390283221327,0.7841325036603221
0.009264390283221327,0.7842240117130308
0.009269428015838632,0.7842240117130308
0.009269428015838632,0.7843155197657394
0.009274465748455935,0.7843155197657394
0.009274465748455935,0.7844070278184481
0.009284541213690543,0.7844070278184481
0.009284541213690543,0.7844985358711567
0.009299654411542452,0.7844985358711567
0.009299654411542452,0.7845900439238653
0.009304692144159757,0.7845900439238653
0.009304692144159757,0.784681551976574
0.009314767609394363,0.784681551976574
0.009314767609394363,0.7848645680819912
0.00932484307462897,0.7848645680819912
0.00932484307462897,0.7849560761346999
0.009344994005098185,0.7849560761346999
0.009344994005098185,0.7850475841874085
0.009355069470332792,0.7850475841874085
0.009355069470332792,0.7851390922401171
0.009360107202950095,0.7851390922401171
0.009360107202950095,0.7852306002928258
0.009370182668184703,0.7852306002928258
0.009370182668184703,0.7853221083455344
0.009405446796505828,0.7853221083455344
0.009405446796505828,0.785413616398243
0.009415522261740436,0.785413616398243
0.009415522261740436,0.7855966325036603
0.009420559994357739,0.7855966325036603
0.009420559994357739,0.7859626647144948
0.00943567319220965,0.7859626647144948
0.00943567319220965,0.7861456808199122
0.009445748657444257,0.7861456808199122
0.009445748657444257,0.7864202049780381
0.00945078639006156,0.7864202049780381
0.00945078639006156,0.7865117130307467
0.009460861855296168,0.7865117130307467
0.009460861855296168,0.7866032210834554
0.009470937320530776,0.7866032210834554
0.009470937320530776,0.7869692532942899
0.009486050518382687,0.7869692532942899
0.009486050518382687,0.7871522693997072
0.0095062014488519,0.7871522693997072
0.0095062014488519,0.7874267935578331
0.00954650330979033,0.7874267935578331
0.00954650330979033,0.7876098096632503
0.009556578775024936,0.7876098096632503
0.009556578775024936,0.787701317715959
0.009566654240259544,0.787701317715959
0.009566654240259544,0.7878843338213762
0.009571691972876847,0.7878843338213762
0.009571691972876847,0.7880673499267935
0.009576729705494152,0.7880673499267935
0.009576729705494152,0.7881588579795022
0.009581767438111455,0.7881588579795022
0.009581767438111455,0.7882503660322109
0.009596880635963366,0.7882503660322109
0.009596880635963366,0.7883418740849195
0.009601918368580669,0.7883418740849195
0.009601918368580669,0.7884333821376281
0.009606956101197973,0.7884333821376281
0.009606956101197973,0.7885248901903368
0.00963214476428449,0.7885248901903368
0.00963214476428449,0.7886163982430454
0.009642220229519098,0.7886163982430454
0.009642220229519098,0.788707906295754
0.009652295694753706,0.788707906295754
0.009652295694753706,0.7887994143484627
0.009667408892605617,0.7887994143484627
0.009667408892605617,0.78898243045388
0.00967244662522292,0.78898243045388
0.00967244662522292,0.7890739385065886
0.009692597555692134,0.7890739385065886
0.009692597555692134,0.7891654465592972
0.009702673020926741,0.7891654465592972
0.009702673020926741,0.7892569546120058
0.009717786218778652,0.7892569546120058
0.009717786218778652,0.7895314787701317
0.009737937149247866,0.7895314787701317
0.009737937149247866,0.7896229868228404
0.009763125812334385,0.7896229868228404
0.009763125812334385,0.7900805270863837
0.009788314475420903,0.7900805270863837
0.009788314475420903,0.7903550512445096
0.00981350313850742,0.7903550512445096
0.00981350313850742,0.7904465592972182
0.009818540871124725,0.7904465592972182
0.009818540871124725,0.7905380673499268
0.009823578603742028,0.7905380673499268
0.009823578603742028,0.7906295754026355
0.009838691801593939,0.7906295754026355
0.009838691801593939,0.7907210834553441
0.009843729534211242,0.7907210834553441
0.009843729534211242,0.7908125915080527
0.00985380499944585,0.7908125915080527
0.00985380499944585,0.79099560761347
0.009878993662532367,0.79099560761347
0.009878993662532367,0.7910871156661786
0.009914257790853493,0.7910871156661786
0.009914257790853493,0.7911786237188873
0.009929370988705404,0.7911786237188873
0.009929370988705404,0.7912701317715959
0.009949521919174618,0.7912701317715959
0.009949521919174618,0.7913616398243045
0.00995455965179192,0.7913616398243045
0.00995455965179192,0.7914531478770132
0.009964635117026529,0.7914531478770132
0.009964635117026529,0.7915446559297218
0.009969672849643832,0.7915446559297218
0.009969672849643832,0.7916361639824304
0.00997974831487844,0.7916361639824304
0.00997974831487844,0.791727672035139
0.009999899245347653,0.791727672035139
0.009999899245347653,0.7918191800878477
0.010015012443199564,0.7918191800878477
0.010015012443199564,0.7919106881405563
0.010020050175816869,0.7919106881405563
0.010020050175816869,0.7920021961932651
0.010040201106286083,0.7920021961932651
0.010040201106286083,0.7920937042459737
0.010055314304137994,0.7920937042459737
0.010055314304137994,0.7921852122986823
0.010075465234607207,0.7921852122986823
0.010075465234607207,0.7924597364568082
0.010085540699841815,0.7924597364568082
0.010085540699841815,0.7926427525622255
0.010110729362928334,0.7926427525622255
0.010110729362928334,0.7927342606149341
0.010115767095545637,0.7927342606149341
0.010115767095545637,0.7928257686676428
0.010130880293397548,0.7928257686676428
0.010130880293397548,0.7929172767203514
0.01013591802601485,0.7929172767203514
0.01013591802601485,0.79300878477306
0.010151031223866762,0.79300878477306
0.010151031223866762,0.7931002928257687
0.01016110668910137,0.7931002928257687
0.01016110668910137,0.7931918008784773
0.010166144421718672,0.7931918008784773
0.010166144421718672,0.7932833089311859
0.010186295352187888,0.7932833089311859
0.010186295352187888,0.7933748169838946
0.010211484015274405,0.7933748169838946
0.010211484015274405,0.7935578330893118
0.01021652174789171,0.7935578330893118
0.01021652174789171,0.7937408491947291
0.010241710410978227,0.7937408491947291
0.010241710410978227,0.7940153733528551
0.010246748143595531,0.7940153733528551
0.010246748143595531,0.7941068814055637
0.010261861341447442,0.7941068814055637
0.010261861341447442,0.7941983894582724
0.010271936806682048,0.7941983894582724
0.010271936806682048,0.7944729136163983
0.010276974539299353,0.7944729136163983
0.010276974539299353,0.7946559297218155
0.010292087737151264,0.7946559297218155
0.010292087737151264,0.7948389458272328
0.010297125469768567,0.7948389458272328
0.010297125469768567,0.7949304538799414
0.010307200935003175,0.7949304538799414
0.010307200935003175,0.7950219619326501
0.010312238667620478,0.7950219619326501
0.010312238667620478,0.7951134699853587
0.010347502795941602,0.7951134699853587
0.010347502795941602,0.7952049780380673
0.010362615993793513,0.7952049780380673
0.010362615993793513,0.795296486090776
0.010392842389497335,0.795296486090776
0.010392842389497335,0.7954795021961932
0.010412993319966549,0.7954795021961932
0.010412993319966549,0.7955710102489019
0.010418031052583853,0.7955710102489019
0.010418031052583853,0.7956625183016105
0.010423068785201156,0.7956625183016105
0.010423068785201156,0.7959370424597365
0.01044321971567037,0.7959370424597365
0.01044321971567037,0.7960285505124451
0.010448257448287675,0.7960285505124451
0.010448257448287675,0.796303074670571
0.010478483843991497,0.796303074670571
0.010478483843991497,0.7965775988286969
0.0104835215766088,0.7965775988286969
0.0104835215766088,0.7966691068814056
0.010493597041843408,0.7966691068814056
0.010493597041843408,0.7968521229868228
0.01049863477446071,0.7968521229868228
0.01049863477446071,0.7969436310395315
0.010503672507078014,0.7969436310395315
0.010503672507078014,0.7971266471449487
0.010508710239695318,0.7971266471449487
0.010508710239695318,0.797309663250366
0.010513747972312621,0.797309663250366
0.010513747972312621,0.7974011713030746
0.010518785704929924,0.7974011713030746
0.010518785704929924,0.7974926793557833
0.010528861170164532,0.7974926793557833
0.010528861170164532,0.7975841874084919
0.010533898902781835,0.7975841874084919
0.010533898902781835,0.7976756954612005
0.01055404983325105,0.7976756954612005
0.01055404983325105,0.7977672035139092
0.010559087565868354,0.7977672035139092
0.010559087565868354,0.7979502196193266
0.010574200763720265,0.7979502196193266
0.010574200763720265,0.7980417276720352
0.010579238496337568,0.7980417276720352
0.010579238496337568,0.7981332357247438
0.010584276228954873,0.7981332357247438
0.010584276228954873,0.7984077598828697
0.010594351694189479,0.7984077598828697
0.010594351694189479,0.7984992679355783
0.010639691287745211,0.7984992679355783
0.010639691287745211,0.798590775988287
0.010649766752979819,0.798590775988287
0.010649766752979819,0.7986822840409956
0.01066487995083173,0.7986822840409956
0.01066487995083173,0.7987737920937042
0.010669917683449033,0.7987737920937042
0.010669917683449033,0.7988653001464129
0.010674955416066337,0.7988653001464129
0.010674955416066337,0.7990483162518301
0.010700144079152854,0.7990483162518301
0.010700144079152854,0.799322840409956
0.010710219544387462,0.799322840409956
0.010710219544387462,0.7994143484626647
0.01072029500962207,0.7994143484626647
0.01072029500962207,0.7995058565153733
0.010725332742239373,0.7995058565153733
0.010725332742239373,0.799597364568082
0.010740445940091284,0.799597364568082
0.010740445940091284,0.7996888726207906
0.010750521405325892,0.7996888726207906
0.010750521405325892,0.799871888726208
0.010765634603177802,0.799871888726208
0.010765634603177802,0.7999633967789166
0.010780747801029713,0.7999633967789166
0.010780747801029713,0.8001464128843339
0.010785785533647016,0.8001464128843339
0.010785785533647016,0.8002379209370425
0.010821049661968141,0.8002379209370425
0.010821049661968141,0.8004209370424598
0.010826087394585446,0.8004209370424598
0.010826087394585446,0.800603953147877
0.010836162859820052,0.800603953147877
0.010836162859820052,0.8007869692532943
0.010876464720758481,0.8007869692532943
0.010876464720758481,0.8008784773060029
0.010896615651227695,0.8008784773060029
0.010896615651227695,0.8009699853587116
0.010901653383844998,0.8009699853587116
0.010901653383844998,0.8010614934114202
0.010921804314314214,0.8010614934114202
0.010921804314314214,0.8011530014641288
0.010957068442635338,0.8011530014641288
0.010957068442635338,0.8012445095168375
0.01097218164048725,0.8012445095168375
0.01097218164048725,0.8013360175695461
0.010982257105721857,0.8013360175695461
0.010982257105721857,0.8014275256222547
0.01098729483833916,0.8014275256222547
0.01098729483833916,0.8015190336749634
0.011007445768808374,0.8015190336749634
0.011007445768808374,0.801610541727672
0.011017521234042982,0.801610541727672
0.011017521234042982,0.8017020497803806
0.0110427098971295,0.8017020497803806
0.0110427098971295,0.8019765739385066
0.011052785362364106,0.8019765739385066
0.011052785362364106,0.8020680819912153
0.011057823094981411,0.8020680819912153
0.011057823094981411,0.8023426061493412
0.011062860827598714,0.8023426061493412
0.011062860827598714,0.8024341142020498
0.011067898560216017,0.8024341142020498
0.011067898560216017,0.8025256222547584
0.011083011758067928,0.8025256222547584
0.011083011758067928,0.8026171303074671
0.011103162688537144,0.8026171303074671
0.011103162688537144,0.802891654465593
0.01111323815377175,0.802891654465593
0.01111323815377175,0.8030746705710102
0.01112835135162366,0.8030746705710102
0.01112835135162366,0.8031661786237189
0.011138426816858268,0.8031661786237189
0.011138426816858268,0.8035322108345534
0.01115354001471018,0.8035322108345534
0.01115354001471018,0.803623718887262
0.011158577747327482,0.803623718887262
0.011158577747327482,0.8037152269399708
0.011193841875648609,0.8037152269399708
0.011193841875648609,0.8038067349926794
0.011203917340883215,0.8038067349926794
0.011203917340883215,0.803898243045388
0.011213992806117823,0.803898243045388
0.011213992806117823,0.8039897510980967
0.011249256934438947,0.8039897510980967
0.011249256934438947,0.8040812591508053
0.011259332399673555,0.8040812591508053
0.011259332399673555,0.8042642752562226
0.01129459652799468,0.8042642752562226
0.01129459652799468,0.8044472913616398
0.011299634260611984,0.8044472913616398
0.011299634260611984,0.8045387994143485
0.011324822923698501,0.8045387994143485
0.011324822923698501,0.8047218155197657
0.011344973854167717,0.8047218155197657
0.011344973854167717,0.804904831625183
0.011360087052019628,0.804904831625183
0.011360087052019628,0.8049963396778916
0.011370162517254234,0.8049963396778916
0.011370162517254234,0.8051793557833089
0.011385275715106145,0.8051793557833089
0.011385275715106145,0.8052708638360175
0.011395351180340752,0.8052708638360175
0.011395351180340752,0.8053623718887262
0.01140542664557536,0.8053623718887262
0.01140542664557536,0.8054538799414348
0.011450766239131091,0.8054538799414348
0.011450766239131091,0.8055453879941434
0.011460841704365699,0.8055453879941434
0.011460841704365699,0.8057284040995608
0.011486030367452217,0.8057284040995608
0.011486030367452217,0.8058199121522694
0.011501143565304128,0.8058199121522694
0.011501143565304128,0.8060944363103953
0.011536407693625253,0.8060944363103953
0.011536407693625253,0.806185944363104
0.01154648315885986,0.806185944363104
0.01154648315885986,0.8063689604685212
0.011556558624094467,0.8063689604685212
0.011556558624094467,0.8064604685212299
0.011561596356711772,0.8064604685212299
0.011561596356711772,0.8065519765739385
0.011566634089329075,0.8065519765739385
0.011566634089329075,0.8066434846266471
0.011571671821946378,0.8066434846266471
0.011571671821946378,0.8068265007320644
0.011586785019798288,0.8068265007320644
0.011586785019798288,0.806918008784773
0.01161701141550211,0.806918008784773
0.01161701141550211,0.8070095168374817
0.011622049148119415,0.8070095168374817
0.011622049148119415,0.8071010248901903
0.011637162345971326,0.8071010248901903
0.011637162345971326,0.8072840409956076
0.011642200078588629,0.8072840409956076
0.011642200078588629,0.8074670571010248
0.01165731327644054,0.8074670571010248
0.01165731327644054,0.8075585651537335
0.01171272833523088,0.8075585651537335
0.01171272833523088,0.8078330893118595
0.011737916998317397,0.8078330893118595
0.011737916998317397,0.8079245973645681
0.011742954730934702,0.8079245973645681
0.011742954730934702,0.8080161054172768
0.011763105661403915,0.8080161054172768
0.011763105661403915,0.8081076134699854
0.011778218859255826,0.8081076134699854
0.011778218859255826,0.808199121522694
0.011803407522342345,0.808199121522694
0.011803407522342345,0.8082906295754027
0.011808445254959648,0.8082906295754027
0.011808445254959648,0.8083821376281113
0.011813482987576951,0.8083821376281113
0.011813482987576951,0.8084736456808199
0.011828596185428862,0.8084736456808199
0.011828596185428862,0.8085651537335286
0.01183867165066347,0.8085651537335286
0.01183867165066347,0.8086566617862372
0.01185378484851538,0.8086566617862372
0.01185378484851538,0.8088396778916545
0.011873935778984594,0.8088396778916545
0.011873935778984594,0.8090226939970717
0.011878973511601899,0.8090226939970717
0.011878973511601899,0.8091142020497804
0.01189408670945381,0.8091142020497804
0.01189408670945381,0.809205710102489
0.011904162174688416,0.809205710102489
0.011904162174688416,0.8092972181551976
0.011924313105157631,0.8092972181551976
0.011924313105157631,0.8093887262079063
0.011934388570392238,0.8093887262079063
0.011934388570392238,0.8094802342606149
0.011939426303009542,0.8094802342606149
0.011939426303009542,0.8096632503660323
0.011949501768244148,0.8096632503660323
0.011949501768244148,0.8097547584187409
0.011954539500861453,0.8097547584187409
0.011954539500861453,0.8099377745241582
0.011974690431330667,0.8099377745241582
0.011974690431330667,0.8100292825768668
0.011999879094417184,0.8100292825768668
0.011999879094417184,0.8102122986822841
0.012025067757503703,0.8102122986822841
0.012025067757503703,0.8106698389458272
0.01203514322273831,0.8106698389458272
0.01203514322273831,0.8107613469985359
0.012060331885824827,0.8107613469985359
0.012060331885824827,0.8108528550512445
0.012065369618442132,0.8108528550512445
0.012065369618442132,0.811218887262079
0.012070407351059435,0.811218887262079
0.012070407351059435,0.8113103953147877
0.012080482816294043,0.8113103953147877
0.012080482816294043,0.8114019033674963
0.012090558281528649,0.8114019033674963
0.012090558281528649,0.8115849194729137
0.012095596014145954,0.8115849194729137
0.012095596014145954,0.8116764275256223
0.012110709211997864,0.8116764275256223
0.012110709211997864,0.8117679355783309
0.012125822409849775,0.8117679355783309
0.012125822409849775,0.8119509516837482
0.012140935607701686,0.8119509516837482
0.012140935607701686,0.8122254758418741
0.012156048805553597,0.8122254758418741
0.012156048805553597,0.8123169838945827
0.012196350666492025,0.8123169838945827
0.012196350666492025,0.8124084919472914
0.01220138839910933,0.8124084919472914
0.01220138839910933,0.8125
0.012211463864343935,0.8125
0.012211463864343935,0.8125915080527086
0.01221650159696124,0.8125915080527086
0.01221650159696124,0.8126830161054173
0.012221539329578543,0.8126830161054173
0.012221539329578543,0.8127745241581259
0.012226577062195846,0.8127745241581259
0.012226577062195846,0.8128660322108345
0.012236652527430454,0.8128660322108345
0.012236652527430454,0.8129575402635432
0.012246727992665062,0.8129575402635432
0.012246727992665062,0.8130490483162518
0.012297105318838097,0.8130490483162518
0.012297105318838097,0.8131405563689604
0.012322293981924616,0.8131405563689604
0.012322293981924616,0.8132320644216691
0.012337407179776527,0.8132320644216691
0.012337407179776527,0.8134150805270863
0.012347482645011133,0.8134150805270863
0.012347482645011133,0.8135980966325037
0.012352520377628438,0.8135980966325037
0.012352520377628438,0.8136896046852123
0.012362595842863044,0.8136896046852123
0.012362595842863044,0.8138726207906296
0.012372671308097652,0.8138726207906296
0.012372671308097652,0.8140556368960469
0.012412973169036081,0.8140556368960469
0.012412973169036081,0.81451317715959
0.012448237297357206,0.81451317715959
0.012448237297357206,0.8146046852122987
0.012453275029974509,0.8146046852122987
0.012453275029974509,0.8146961932650073
0.012478463693061027,0.8146961932650073
0.012478463693061027,0.8147877013177159
0.012503652356147544,0.8147877013177159
0.012503652356147544,0.8148792093704246
0.012518765553999455,0.8148792093704246
0.012518765553999455,0.8149707174231332
0.01252380328661676,0.8149707174231332
0.01252380328661676,0.8150622254758418
0.012528841019234063,0.8150622254758418
0.012528841019234063,0.8151537335285505
0.012533878751851366,0.8151537335285505
0.012533878751851366,0.8152452415812591
0.01253891648446867,0.8152452415812591
0.01253891648446867,0.8153367496339677
0.012554029682320582,0.8153367496339677
0.012554029682320582,0.8154282576866764
0.012574180612789795,0.8154282576866764
0.012574180612789795,0.8155197657393851
0.01259433154325901,0.8155197657393851
0.01259433154325901,0.8156112737920937
0.01260944474111092,0.8156112737920937
0.01260944474111092,0.8157027818448024
0.012614482473728225,0.8157027818448024
0.012614482473728225,0.815794289897511
0.012644708869432046,0.815794289897511
0.012644708869432046,0.8162518301610542
0.01264974660204935,0.8162518301610542
0.01264974660204935,0.8163433382137628
0.012659822067283957,0.8163433382137628
0.012659822067283957,0.8166178623718887
0.01266485979990126,0.8166178623718887
0.01266485979990126,0.816800878477306
0.012674935265135868,0.816800878477306
0.012674935265135868,0.8168923865300146
0.012700123928222385,0.8168923865300146
0.012700123928222385,0.8169838945827232
0.012715237126074296,0.8169838945827232
0.012715237126074296,0.8170754026354319
0.0127202748586916,0.8170754026354319
0.0127202748586916,0.8171669106881405
0.012730350323926207,0.8171669106881405
0.012730350323926207,0.8172584187408491
0.012780727650099244,0.8172584187408491
0.012780727650099244,0.8174414348462665
0.012795840847951155,0.8174414348462665
0.012795840847951155,0.8175329428989752
0.012815991778420369,0.8175329428989752
0.012815991778420369,0.8176244509516838
0.01284621817412419,0.8176244509516838
0.01284621817412419,0.8177159590043924
0.012876444569828012,0.8177159590043924
0.012876444569828012,0.8178989751098097
0.012881482302445315,0.8178989751098097
0.012881482302445315,0.818081991215227
0.012911708698149137,0.818081991215227
0.012911708698149137,0.8181734992679356
0.012921784163383744,0.8181734992679356
0.012921784163383744,0.8183565153733529
0.012931859628618352,0.8183565153733529
0.012931859628618352,0.8184480234260615
0.012952010559087566,0.8184480234260615
0.012952010559087566,0.8185395314787701
0.012957048291704869,0.8185395314787701
0.012957048291704869,0.8186310395314788
0.012962086024322174,0.8186310395314788
0.012962086024322174,0.8189970717423133
0.012967123756939477,0.8189970717423133
0.012967123756939477,0.8190885797950219
0.012977199222174085,0.8190885797950219
0.012977199222174085,0.8191800878477306
0.013007425617877906,0.8191800878477306
0.013007425617877906,0.8192715959004392
0.01302757654834712,0.8192715959004392
0.01302757654834712,0.8193631039531479
0.013037652013581726,0.8193631039531479
0.013037652013581726,0.8194546120058566
0.013062840676668245,0.8194546120058566
0.013062840676668245,0.8195461200585652
0.013067878409285548,0.8195461200585652
0.013067878409285548,0.8197291361639825
0.013093067072372067,0.8197291361639825
0.013093067072372067,0.8198206442166911
0.013108180270223977,0.8198206442166911
0.013108180270223977,0.8199121522693997
0.013138406665927799,0.8199121522693997
0.013138406665927799,0.8200036603221084
0.013143444398545102,0.8200036603221084
0.013143444398545102,0.820095168374817
0.013188783992100835,0.820095168374817
0.013188783992100835,0.8201866764275256
0.013198859457335442,0.8201866764275256
0.013198859457335442,0.8204612005856515
0.013229085853039264,0.8204612005856515
0.013229085853039264,0.8206442166910688
0.013239161318273872,0.8206442166910688
0.013239161318273872,0.8207357247437774
0.013244199050891175,0.8207357247437774
0.013244199050891175,0.8208272327964861
0.013269387713977693,0.8208272327964861
0.013269387713977693,0.8209187408491947
0.013329840505385337,0.8209187408491947
0.013329840505385337,0.8210102489019033
0.013339915970619943,0.8210102489019033
0.013339915970619943,0.8212847730600292
0.013344953703237248,0.8212847730600292
0.013344953703237248,0.821376281112738
0.01334999143585455,0.821376281112738
0.01334999143585455,0.8214677891654466
0.01337518009894107,0.8214677891654466
0.01337518009894107,0.8215592972181552
0.013380217831558372,0.8215592972181552
0.013380217831558372,0.8216508052708639
0.013395331029410283,0.8216508052708639
0.013395331029410283,0.8219253294289898
0.013415481959879497,0.8219253294289898
0.013415481959879497,0.822108345534407
0.013430595157731408,0.822108345534407
0.013430595157731408,0.8222913616398243
0.013440670622966016,0.8222913616398243
0.013440670622966016,0.8223828696925329
0.013450746088200623,0.8223828696925329
0.013450746088200623,0.8224743777452416
0.01346082155343523,0.8224743777452416
0.01346082155343523,0.8225658857979502
0.013470897018669837,0.8225658857979502
0.013470897018669837,0.8226573938506588
0.01347593475128714,0.8226573938506588
0.01347593475128714,0.8228404099560761
0.013480972483904445,0.8228404099560761
0.013480972483904445,0.8229319180087847
0.013486010216521748,0.8229319180087847
0.013486010216521748,0.8230234260614934
0.013491047949139051,0.8230234260614934
0.013491047949139051,0.823114934114202
0.013496085681756356,0.823114934114202
0.013496085681756356,0.8232979502196194
0.013536387542694784,0.8232979502196194
0.013536387542694784,0.8235724743777453
0.013551500740546694,0.8235724743777453
0.013551500740546694,0.8237554904831625
0.013566613938398605,0.8237554904831625
0.013566613938398605,0.8240300146412884
0.013571651671015908,0.8240300146412884
0.013571651671015908,0.8241215226939971
0.01358676486886782,0.8241215226939971
0.01358676486886782,0.824396046852123
0.013637142195040856,0.824396046852123
0.013637142195040856,0.8244875549048316
0.01365729312551007,0.8244875549048316
0.01365729312551007,0.8245790629575402
0.013662330858127373,0.8245790629575402
0.013662330858127373,0.8247620790629575
0.013672406323361981,0.8247620790629575
0.013672406323361981,0.8249450951683748
0.013687519521213892,0.8249450951683748
0.013687519521213892,0.8250366032210834
0.013692557253831195,0.8250366032210834
0.013692557253831195,0.825128111273792
0.013702632719065803,0.825128111273792
0.013702632719065803,0.8252196193265008
0.013722783649535017,0.8252196193265008
0.013722783649535017,0.825402635431918
0.013732859114769624,0.825402635431918
0.013732859114769624,0.8254941434846267
0.013758047777856143,0.8254941434846267
0.013758047777856143,0.8255856515373353
0.013788274173559965,0.8255856515373353
0.013788274173559965,0.8257686676427526
0.013793311906177268,0.8257686676427526
0.013793311906177268,0.8258601756954612
0.01379834963879457,0.8258601756954612
0.01379834963879457,0.8259516837481699
0.013808425104029179,0.8259516837481699
0.013808425104029179,0.8260431918008785
0.013818500569263786,0.8260431918008785
0.013818500569263786,0.8261346998535871
0.013828576034498392,0.8261346998535871
0.013828576034498392,0.8262262079062958
0.013843689232350303,0.8262262079062958
0.013843689232350303,0.8263177159590044
0.01389406655852334,0.8263177159590044
0.01389406655852334,0.826409224011713
0.013904142023757947,0.826409224011713
0.013904142023757947,0.8266837481698389
0.013909179756375251,0.8266837481698389
0.013909179756375251,0.8267752562225475
0.013924292954227162,0.8267752562225475
0.013924292954227162,0.8268667642752562
