fpr,tpr
0.0,0.0
8.095579651598635e-06,5.334898236816133e-05
1.2952927442557815e-05,8.002347355224199e-05
1.4572043372877542e-05,0.00010669796473632266
2.2667623024476175e-05,0.00010669796473632266
2.2667623024476175e-05,0.00013337245592040333
2.4286738954795904e-05,0.00013337245592040333
2.4286738954795904e-05,0.00016004694710448398
2.7524970815435355e-05,0.00016004694710448398
2.7524970815435355e-05,0.00018672143828856464
3.238231860639454e-05,0.00018672143828856464
3.238231860639454e-05,0.0002934194030248873
3.562055046703399e-05,0.0002934194030248873
3.562055046703399e-05,0.00032009389420896797
3.885878232767344e-05,0.00032009389420896797
3.885878232767344e-05,0.00034676838539304865
4.533524604895235e-05,0.00034676838539304865
4.533524604895235e-05,0.0003734428765771293
4.6954361979272075e-05,0.0003734428765771293
4.6954361979272075e-05,0.00040011736776120996
5.181170977023126e-05,0.00040011736776120996
5.181170977023126e-05,0.00045346635012937127
5.3430825700550985e-05,0.00045346635012937127
5.3430825700550985e-05,0.00048014084131345195
5.504994163087071e-05,0.00048014084131345195
5.504994163087071e-05,0.0005068153324975326
5.828817349151017e-05,0.0005068153324975326
5.828817349151017e-05,0.0005601643148656939
6.152640535214963e-05,0.0005601643148656939
6.152640535214963e-05,0.0005868388060497746
6.314552128246934e-05,0.0005868388060497746
6.314552128246934e-05,0.0006401877884179359
7.124110093406798e-05,0.0006401877884179359
7.124110093406798e-05,0.0006668622796020166
7.286021686438771e-05,0.0006668622796020166
7.286021686438771e-05,0.0006935367707860973
7.447933279470743e-05,0.0006935367707860973
7.771756465534688e-05,0.0006935367707860973
7.933668058566661e-05,0.0006935367707860973
7.933668058566661e-05,0.0007468857531542586
8.257491244630607e-05,0.0007468857531542586
8.257491244630607e-05,0.0007735602443383392
8.41940283766258e-05,0.0007735602443383392
8.41940283766258e-05,0.0008002347355224199
9.390872395854415e-05,0.0008002347355224199
9.390872395854415e-05,0.0008269092267065006
9.552783988886388e-05,0.0008269092267065006
9.552783988886388e-05,0.0009069327002587425
9.714695581918362e-05,0.0009069327002587425
9.714695581918362e-05,0.0009336071914428232
0.00010686165140110197,0.0009336071914428232
0.00010686165140110197,0.0009869561738109845
0.00011009988326174142,0.0009869561738109845
0.00011009988326174142,0.0010403051561791458
0.0001214336947739795,0.0010403051561791458
0.0001214336947739795,0.0011203286297313878
0.00012467192663461897,0.0011203286297313878
0.00012467192663461897,0.0011736776120995491
0.0001279101584952584,0.0011736776120995491
0.0001279101584952584,0.00120035210328363
0.00012952927442557815,0.00120035210328363
0.00012952927442557815,0.0013337245592040332
0.00013438662221653734,0.0013337245592040332
0.00013438662221653734,0.0014404225239403557
0.00013600573814685706,0.0014404225239403557
0.00013600573814685706,0.0014670970151244365
0.0001392439700074965,0.0014670970151244365
0.0001392439700074965,0.001493771506308517
0.00014733954965909514,0.001493771506308517
0.00014733954965909514,0.0016004694710448398
0.00014895866558941486,0.0016004694710448398
0.00014895866558941486,0.0016271439622289204
0.00015381601338037404,0.0016271439622289204
0.00015381601338037404,0.0017071674357811626
0.0001570542452410135,0.0017071674357811626
0.0001570542452410135,0.0017605164181493237
0.00015867336117133323,0.0017605164181493237
0.00015867336117133323,0.001813865400517485
0.00016029247710165295,0.001813865400517485
0.00016029247710165295,0.0018405398917015659
0.00016514982489261213,0.0018405398917015659
0.00016514982489261213,0.0018672143828856464
0.00016676894082293188,0.0018672143828856464
0.00016676894082293188,0.0018938888740697272
0.00017000717268357131,0.0018938888740697272
0.00017000717268357131,0.0019472378564378884
0.00017324540454421078,0.0019472378564378884
0.00017324540454421078,0.0020005868388060497
0.0001748645204745305,0.0020005868388060497
0.0001748645204745305,0.0020272613299901305
0.00017810275233516996,0.0020272613299901305
0.00017810275233516996,0.0020806103123582917
0.0001813409841958094,0.0020806103123582917
0.0001813409841958094,0.002213982768278695
0.00018296010012612912,0.002213982768278695
0.00018296010012612912,0.0022406572594627755
0.00018619833198676858,0.0022406572594627755
0.00018619833198676858,0.002294006241830937
0.0001878174479170883,0.002294006241830937
0.0001878174479170883,0.0023473552241990983
0.00019429391163836723,0.0023473552241990983
0.00019429391163836723,0.002374029715383179
0.00019591302756868695,0.002374029715383179
0.00019591302756868695,0.00240070420656726
0.00020238949128996585,0.00240070420656726
0.00020238949128996585,0.002454053188935421
0.00020400860722028557,0.002454053188935421
0.00020400860722028557,0.002534076662487663
0.00020562772315060532,0.002534076662487663
0.00020562772315060532,0.0025874256448558245
0.00021210418687188422,0.0025874256448558245
0.00021210418687188422,0.0026407746272239857
0.00021210418687188422,0.002694123609592147
0.00021534241873252366,0.002694123609592147
0.00021534241873252366,0.0027207981007762276
0.0002169615346628434,0.0027207981007762276
0.0002169615346628434,0.002774147083144389
0.00021858065059316312,0.002774147083144389
0.00021858065059316312,0.0029075195390647923
0.00022181888245380259,0.0029075195390647923
0.00022181888245380259,0.002934194030248873
0.0002234379983841223,0.002934194030248873
0.0002234379983841223,0.003014217503801115
0.00022667623024476174,0.003014217503801115
0.00022667623024476174,0.003040891994985196
0.0002282953461750815,0.003040891994985196
0.0002282953461750815,0.0031209154685374377
0.0002299144621054012,0.0031209154685374377
0.0002299144621054012,0.0031475899597215185
0.00023153357803572093,0.0031475899597215185
0.00023153357803572093,0.003174264450905599
0.00023315269396604067,0.003174264450905599
0.00023315269396604067,0.0032009389420896797
0.0002347718098963604,0.0032009389420896797
0.0002347718098963604,0.0032276134332737605
0.00023801004175699986,0.0032276134332737605
0.00023801004175699986,0.003254287924457841
0.0002412482736176393,0.003254287924457841
0.0002412482736176393,0.0032809624156419216
0.000242867389547959,0.0032809624156419216
0.000242867389547959,0.0033876603803782443
0.0002461056214085985,0.0033876603803782443
0.0002461056214085985,0.0034676838539304863
0.00024934385326923794,0.0034676838539304863
0.00024934385326923794,0.003494358345114567
0.00025096296919955766,0.003494358345114567
0.00025096296919955766,0.003547707327482728
0.0002525820851298774,0.003547707327482728
0.0002525820851298774,0.0036810797834031317
0.0002542012010601971,0.0036810797834031317
0.0002542012010601971,0.003707754274587212
0.0002590585488511563,0.003707754274587212
0.0002590585488511563,0.003734428765771293
0.00026391589664211546,0.003734428765771293
0.00026391589664211546,0.0037611032569553737
0.0002671541285027549,0.0037611032569553737
0.0002671541285027549,0.003814452239323535
0.0002703923603633944,0.003814452239323535
0.0002703923603633944,0.0038411267305076156
0.0002720114762937141,0.0038411267305076156
0.0002720114762937141,0.0038678012216916964
0.00027686882408467327,0.0038678012216916964
0.00027686882408467327,0.003947824695243938
0.000278487940014993,0.003947824695243938
0.000278487940014993,0.0040011736776120995
0.00028010705594531276,0.0040011736776120995
0.00028010705594531276,0.00402784816879618
0.0002833452878059522,0.00402784816879618
0.0002833452878059522,0.004054522659980261
0.00028658351966659164,0.004054522659980261
0.00028658351966659164,0.004081197151164341
0.00028820263559691135,0.004081197151164341
0.00028820263559691135,0.004107871642348423
0.00028982175152723113,0.004107871642348423
0.00028982175152723113,0.004134546133532503
0.00029144086745755085,0.004134546133532503
0.00029144086745755085,0.004187895115900665
0.0002979173311788297,0.004187895115900665
0.0002979173311788297,0.0042679185894529065
0.00029953644710914944,0.0042679185894529065
0.00029953644710914944,0.004294593080636987
0.00030277467896978893,0.004294593080636987
0.00030277467896978893,0.0043479420630051484
0.0003092511426910678,0.0043479420630051484
0.0003092511426910678,0.004374616554189229
0.0003108702586213875,0.004374616554189229
0.0003108702586213875,0.004507989010109632
0.00031572760641234674,0.004507989010109632
0.00031572760641234674,0.004561337992477794
0.0003205849542033059,0.004561337992477794
0.0003205849542033059,0.004588012483661874
0.0003222040701336256,0.004588012483661874
0.0003222040701336256,0.0046947104483981966
0.0003238231860639454,0.0046947104483981966
0.0003238231860639454,0.004721384939582278
0.0003254423019942651,0.004721384939582278
0.0003254423019942651,0.00480140841313452
0.00032868053385490454,0.00480140841313452
0.00032868053385490454,0.00485475739550268
0.00033029964978522426,0.00485475739550268
0.00033029964978522426,0.004988129851423084
0.000331918765715544,0.004988129851423084
0.000331918765715544,0.005014804342607165
0.00033353788164586375,0.005014804342607165
0.00033353788164586375,0.0050414788337912455
0.0003367761135065032,0.0050414788337912455
0.0003367761135065032,0.00522820027207981
0.0003383952294368229,0.00522820027207981
0.0003383952294368229,0.005308223745632052
0.00034001434536714263,0.005308223745632052
0.00034001434536714263,0.005361572728000213
0.00034163346129746235,0.005361572728000213
0.00034163346129746235,0.0054682706927365364
0.000349729040949061,0.0054682706927365364
0.000349729040949061,0.005494945183920617
0.00035296727280970043,0.005494945183920617
0.00035296727280970043,0.005681666622209181
0.0003562055046703399,0.005681666622209181
0.0003562055046703399,0.005921737042865908
0.00035944373653097936,0.005921737042865908
0.00035944373653097936,0.005948411534049988
0.0003626819683916188,0.005948411534049988
0.0003626819683916188,0.00602843500760223
0.00036592020025225824,0.00602843500760223
0.00036592020025225824,0.006135132972338552
0.000367539316182578,0.006135132972338552
0.000367539316182578,0.0061618074635226335
0.00037077754804321745,0.0061618074635226335
0.00037077754804321745,0.0062418309370748755
0.00037239666397353717,0.0062418309370748755
0.00037239666397353717,0.006321854410627117
0.0003740157799038569,0.006321854410627117
0.0003740157799038569,0.006348528901811198
0.0003772540117644964,0.006348528901811198
0.0003772540117644964,0.006455226866547521
0.0003788731276948161,0.006455226866547521
0.0003788731276948161,0.006508575848915682
0.00038534959141609497,0.006508575848915682
0.00038534959141609497,0.006535250340099763
0.00038858782327673446,0.006535250340099763
0.00038858782327673446,0.006561924831283843
0.0003902069392070542,0.006561924831283843
0.0003902069392070542,0.0065885993224679236
0.0003918260551373739,0.0065885993224679236
0.0003918260551373739,0.0066686227960201655
0.00039668340292833306,0.0066686227960201655
0.00039668340292833306,0.006695297287204247
0.00039992163478897255,0.006695297287204247
0.00039992163478897255,0.006748646269572408
0.00040154075071929227,0.006748646269572408
0.00040154075071929227,0.006801995251940569
0.0004047789825799317,0.006801995251940569
0.0004047789825799317,0.006855344234308731
0.0004063980985102514,0.006855344234308731
0.0004063980985102514,0.006908693216676892
0.00040801721444057114,0.006908693216676892
0.00040801721444057114,0.006962042199045053
0.00041287456223153035,0.006962042199045053
0.00041287456223153035,0.006988716690229134
0.00041449367816185007,0.006988716690229134
0.00041449367816185007,0.007042065672597295
0.00042420837374376844,0.007042065672597295
0.00042420837374376844,0.007068740163781376
0.00042582748967408816,0.007068740163781376
0.00042582748967408816,0.007148763637333618
0.0004274466056044079,0.007148763637333618
0.0004274466056044079,0.00720211261970178
0.0004290657215347276,0.00720211261970178
0.0004290657215347276,0.00722878711088586
0.0004323039533953671,0.00722878711088586
0.0004323039533953671,0.007522206513910747
0.0004339230693256868,0.007522206513910747
0.0004339230693256868,0.007548881005094828
0.0004355421852560065,0.007548881005094828
0.0004355421852560065,0.007575555496278909
0.00043716130118632624,0.007575555496278909
0.00043716130118632624,0.00762890447864707
0.00043878041711664596,0.00762890447864707
0.00043878041711664596,0.007868974899303795
0.00044363776490760517,0.007868974899303795
0.00044363776490760517,0.007895649390487876
0.0004452568808379249,0.007895649390487876
0.0004452568808379249,0.007948998372856038
0.0004468759967682446,0.007948998372856038
0.0004468759967682446,0.008135719811144602
0.00044849511269856433,0.008135719811144602
0.00044849511269856433,0.008162394302328683
0.00045011422862888405,0.008162394302328683
0.00045011422862888405,0.008189068793512763
0.0004533524604895235,0.008189068793512763
0.0004533524604895235,0.008215743284696845
0.00045497157641984326,0.008215743284696845
0.00045497157641984326,0.008322441249433167
0.0004582098082804827,0.008322441249433167
0.0004582098082804827,0.00842913921416949
0.0004598289242108024,0.00842913921416949
0.0004598289242108024,0.00845581370535357
0.00046144804014112213,0.00845581370535357
0.00046144804014112213,0.008535837178905813
0.00046306715607144185,0.008535837178905813
0.00046306715607144185,0.008589186161273974
0.0004646862720017616,0.008589186161273974
0.0004646862720017616,0.008669209634826217
0.00046630538793208134,0.008669209634826217
0.00046630538793208134,0.008882605564298861
0.00047763919944431943,0.008882605564298861
0.00047763919944431943,0.008909280055482941
0.00047925831537463915,0.008909280055482941
0.00047925831537463915,0.008989303529035184
0.00048087743130495887,0.008989303529035184
0.00048087743130495887,0.009015978020219265
0.0004824965472352786,0.009015978020219265
0.0004824965472352786,0.009096001493771506
0.0004841156631655983,0.009096001493771506
0.0004841156631655983,0.009149350476139668
0.000492211242817197,0.009149350476139668
0.000492211242817197,0.00922937394969191
0.0004954494746778364,0.00922937394969191
0.0004954494746778364,0.00925604844087599
0.0004970685906081562,0.00925604844087599
0.0004970685906081562,0.009309397423244152
0.0004986877065384759,0.009309397423244152
0.0004986877065384759,0.009336071914428232
0.0005019259383991153,0.009336071914428232
0.0005019259383991153,0.009389420896796393
0.000503545054329435,0.009389420896796393
0.000503545054329435,0.009442769879164556
0.0005051641702597548,0.009442769879164556
0.0005051641702597548,0.009496118861532716
0.0005116406339810336,0.009496118861532716
0.0005116406339810336,0.00962949131745312
0.0005132597499113534,0.00962949131745312
0.0005132597499113534,0.00968284029982128
0.0005148788658416732,0.00968284029982128
0.0005148788658416732,0.009842887246925764
0.0005181170977023126,0.009842887246925764
0.0005181170977023126,0.009896236229293927
0.0005197362136326323,0.009896236229293927
0.0005197362136326323,0.009976259702846168
0.000521355329562952,0.009976259702846168
0.000521355329562952,0.01005628317639841
0.0005229744454932718,0.01005628317639841
0.0005229744454932718,0.010082957667582491
0.0005245935614235915,0.010082957667582491
0.0005245935614235915,0.010109632158766571
0.0005278317932842309,0.010109632158766571
0.0005278317932842309,0.010269679105871055
0.0005294509092145506,0.010269679105871055
0.0005294509092145506,0.010323028088239216
0.0005310700251448704,0.010323028088239216
0.0005310700251448704,0.01045640054415962
0.0005326891410751901,0.01045640054415962
0.0005326891410751901,0.010509749526527782
0.0005343082570055098,0.010509749526527782
0.0005343082570055098,0.010589773000080023
0.0005375464888661494,0.010589773000080023
0.0005375464888661494,0.010749819947184507
0.0005391656047964691,0.010749819947184507
0.0005391656047964691,0.01082984342073675
0.0005407847207267888,0.01082984342073675
0.0005407847207267888,0.010936541385473073
0.0005472611844480677,0.010936541385473073
0.0005472611844480677,0.010963215876657153
0.0005488803003783874,0.010963215876657153
0.0005488803003783874,0.010989890367841234
0.0005537376481693465,0.010989890367841234
0.0005537376481693465,0.011016564859025314
0.0005553567640996663,0.011016564859025314
0.0005553567640996663,0.011069913841393475
0.0005585949959603058,0.011069913841393475
0.0005585949959603058,0.011096588332577557
0.0005602141118906255,0.011096588332577557
0.0005602141118906255,0.011176611806129798
0.0005618332278209452,0.011176611806129798
0.0005618332278209452,0.011309984262050201
0.000563452343751265,0.011309984262050201
0.000563452343751265,0.011336658753234282
0.0005666905756119044,0.011336658753234282
0.0005666905756119044,0.011496705700338766
0.0005683096915422241,0.011496705700338766
0.0005683096915422241,0.011576729173891008
0.0005715479234028636,0.011576729173891008
0.0005715479234028636,0.011790125103363653
0.000574786155263503,0.011790125103363653
0.000574786155263503,0.011950172050468137
0.0005796435030544623,0.011950172050468137
0.0005796435030544623,0.01205687001520446
0.000581262618984782,0.01205687001520446
0.000581262618984782,0.01211021899757262
0.0005828817349151017,0.01211021899757262
0.0005828817349151017,0.012136893488756703
0.0005893581986363806,0.012136893488756703
0.0005893581986363806,0.012190242471124864
0.0005909773145667003,0.012190242471124864
0.0005909773145667003,0.012216916962308944
0.00059259643049702,0.012216916962308944
0.00059259643049702,0.012296940435861187
0.0005942155464273397,0.012323614927045267
0.0005942155464273397,0.012350289418229347
0.0005990728942182989,0.012350289418229347
0.0005990728942182989,0.012403638400597508
0.0006006920101486186,0.012403638400597508
0.0006006920101486186,0.012483661874149751
0.0006023111260789384,0.012483661874149751
0.0006023111260789384,0.012510336365333831
0.0006071684738698976,0.012510336365333831
0.0006071684738698976,0.012643708821254235
0.0006087875898002173,0.012643708821254235
0.0006087875898002173,0.012670383312438315
0.0006152640535214962,0.012670383312438315
0.0006152640535214962,0.01285710475072688
0.0006168831694518159,0.01285710475072688
0.0006168831694518159,0.012910453733095042
0.0006201214013124553,0.012910453733095042
0.0006201214013124553,0.012937128224279122
0.000621740517242775,0.012937128224279122
0.000621740517242775,0.013097175171383606
0.0006265978650337343,0.013097175171383606
0.0006265978650337343,0.013123849662567686
0.0006298360968943738,0.013123849662567686
0.0006298360968943738,0.013150524153751767
0.0006330743287550132,0.013150524153751767
0.0006330743287550132,0.01320387313611993
0.0006363125606156526,0.01320387313611993
0.0006363125606156526,0.01323054762730401
0.0006395507924762921,0.01323054762730401
0.0006395507924762921,0.013390594574408493
0.0006427890243369315,0.013390594574408493
0.0006427890243369315,0.013497292539144817
0.0006476463721278908,0.013497292539144817
0.0006476463721278908,0.013577316012697058
0.0006492654880582105,0.013577316012697058
0.0006492654880582105,0.013603990503881138
0.0006508846039885302,0.013603990503881138
0.0006508846039885302,0.013630664995065218
0.0006654566473614077,0.013630664995065218
0.0006654566473614077,0.01368401397743338
0.0006670757632917275,0.01368401397743338
0.0006670757632917275,0.013710688468617461
0.0006719331110826867,0.013710688468617461
0.0006719331110826867,0.013817386433353784
0.0006751713429433261,0.013817386433353784
0.0006751713429433261,0.013870735415721945
0.0006800286907342853,0.013870735415721945
0.0006800286907342853,0.013897409906906025
0.000681647806664605,0.013897409906906025
0.000681647806664605,0.013924084398090106
0.0006832669225949247,0.013924084398090106
0.0006832669225949247,0.013977433380458268
0.0006848860385252444,0.013977433380458268
0.0006848860385252444,0.014030782362826429
0.0006881242703858838,0.014030782362826429
0.0006881242703858838,0.01408413134519459
0.0006897433863162037,0.01408413134519459
0.0006897433863162037,0.014110805836378672
0.0006929816181768431,0.014110805836378672
0.0006929816181768431,0.014137480327562752
0.000699458081898122,0.014137480327562752
0.000699458081898122,0.014164154818746832
0.0007010771978284417,0.014164154818746832
0.0007010771978284417,0.014217503801114993
0.0007026963137587614,0.014217503801114993
0.0007026963137587614,0.014270852783483156
0.0007075536615497206,0.014270852783483156
0.0007075536615497206,0.014324201765851316
0.0007107918934103601,0.014324201765851316
0.0007107918934103601,0.014350876257035397
0.0007124110093406798,0.014350876257035397
0.0007124110093406798,0.01445757422177172
0.0007156492412013193,0.01445757422177172
0.0007156492412013193,0.014617621168876204
0.0007221257049225982,0.014617621168876204
0.0007221257049225982,0.014644295660060284
0.0007237448208529179,0.014644295660060284
0.0007237448208529179,0.014777668115980688
0.0007253639367832376,0.014777668115980688
0.0007253639367832376,0.014804342607164768
0.0007269830527135573,0.014804342607164768
0.0007269830527135573,0.014831017098348848
0.000728602168643877,0.014831017098348848
0.000728602168643877,0.01485769158953293
0.0007302212845741968,0.01485769158953293
0.0007302212845741968,0.014911040571901091
0.0007318404005045165,0.014911040571901091
0.0007318404005045165,0.014937715063085171
0.0007334595164348363,0.014937715063085171
0.0007334595164348363,0.014964389554269252
0.000735078632365156,0.014964389554269252
0.000735078632365156,0.015097762010189655
0.0007383168642257955,0.015097762010189655
0.0007383168642257955,0.015177785483741898
0.0007399359801561152,0.015177785483741898
0.0007399359801561152,0.01528448344847822
0.000746412443877394,0.01528448344847822
0.000746412443877394,0.015311157939662302
0.0007480315598077138,0.015311157939662302
0.0007480315598077138,0.015337832430846382
0.0007496506757380335,0.015337832430846382
0.0007496506757380335,0.015471204886766786
0.0007512697916683532,0.015471204886766786
0.0007512697916683532,0.015497879377950866
0.0007528889075986729,0.015497879377950866
0.0007528889075986729,0.01563125183387127
0.0007545080235289928,0.01563125183387127
0.0007545080235289928,0.01565792632505535
0.0007561271394593125,0.01565792632505535
0.0007561271394593125,0.01573794979860759
0.0007593653713199519,0.01573794979860759
0.0007593653713199519,0.01579129878097575
0.0007609844872502716,0.01579129878097575
0.0007609844872502716,0.015817973272159832
0.0007642227191109111,0.015817973272159832
0.0007642227191109111,0.015951345728080237
0.0007658418350412308,0.015951345728080237
0.0007658418350412308,0.015978020219264318
0.0007690800669018702,0.015978020219264318
0.0007690800669018702,0.016004694710448398
0.0007706991828321899,0.016004694710448398
0.0007706991828321899,0.016191416148736964
0.0007723182987625097,0.016191416148736964
0.0007723182987625097,0.016271439622289205
0.0007755565306231491,0.016271439622289205
0.0007755565306231491,0.016298114113473285
0.0007804138784141084,0.016298114113473285
0.0007804138784141084,0.016324788604657366
0.0007820329943444281,0.016324788604657366
0.0007820329943444281,0.016351463095841446
0.0007852712262050675,0.016351463095841446
0.0007852712262050675,0.01651151004294593
0.000788509458065707,0.01651151004294593
0.000788509458065707,0.016564859025314092
0.0007901285739960267,0.016564859025314092
0.0007901285739960267,0.016698231481234494
0.0007917476899263464,0.016698231481234494
0.0007917476899263464,0.01691162741070714
0.0007933668058566661,0.01691162741070714
0.0007933668058566661,0.017071674357811626
0.0007949859217869858,0.017071674357811626
0.0007949859217869858,0.017098348848995706
0.0007966050377173056,0.017098348848995706
0.0007966050377173056,0.017125023340179787
0.0007982241536476254,0.017125023340179787
0.0007982241536476254,0.017151697831363867
0.0007998432695779451,0.017151697831363867
0.0007998432695779451,0.017205046813732028
0.0008014623855082648,0.017205046813732028
0.0008014623855082648,0.017231721304916108
0.0008079388492295437,0.017231721304916108
0.0008095579651598634,0.01725839579610019
0.0008111770810901831,0.01725839579610019
0.0008111770810901831,0.01731174477846835
0.0008127961970205028,0.01731174477846835
0.0008127961970205028,0.017338419269652433
0.0008144153129508226,0.017338419269652433
0.0008144153129508226,0.017365093760836513
0.0008160344288811423,0.017365093760836513
0.000817653544811462,0.017391768252020594
0.000817653544811462,0.017578489690309156
0.0008192726607417817,0.017578489690309156
0.0008192726607417817,0.017605164181493237
0.0008208917766721015,0.017605164181493237
0.0008208917766721015,0.0176585131638614
0.0008225108926024213,0.0176585131638614
0.0008225108926024213,0.01768518765504548
0.000824130008532741,0.01768518765504548
0.000824130008532741,0.017738536637413642
0.0008257491244630607,0.017738536637413642
0.0008257491244630607,0.017765211128597722
0.0008306064722540199,0.017765211128597722
0.0008306064722540199,0.017791885619781803
0.0008322255881843396,0.017791885619781803
0.0008322255881843396,0.017818560110965883
0.0008338447041146593,0.017818560110965883
0.0008338447041146593,0.017871909093334044
0.000835463820044979,0.017871909093334044
0.000835463820044979,0.017898583584518124
0.0008403211678359382,0.017898583584518124
0.0008403211678359382,0.017925258075702204
0.0008451785156268974,0.017925258075702204
0.0008451785156268974,0.01803195604043853
0.0008467976315572172,0.01803195604043853
0.0008467976315572172,0.01805863053162261
0.0008500358634178566,0.01805863053162261
0.0008500358634178566,0.01808530502280669
0.0008516549793481763,0.01808530502280669
0.0008516549793481763,0.018245351969911176
0.0008548932112088158,0.018245351969911176
0.0008548932112088158,0.018298700952279336
0.0008565123271391355,0.018298700952279336
0.0008565123271391355,0.018325375443463417
0.0008581314430694552,0.018325375443463417
0.0008581314430694552,0.018352049934647497
0.0008597505589997749,0.018352049934647497
0.0008597505589997749,0.01853877137293606
0.0008613696749300946,0.01853877137293606
0.0008613696749300946,0.018592120355304224
0.0008629887908604143,0.018592120355304224
0.0008629887908604143,0.018672143828856465
0.0008646079067907342,0.018672143828856465
0.0008646079067907342,0.018778841793592786
0.0008662270227210539,0.018778841793592786
0.0008662270227210539,0.018832190775960947
0.0008694652545816933,0.018832190775960947
0.0008694652545816933,0.019125610178985834
0.0008727034864423328,0.019125610178985834
0.0008727034864423328,0.01920563365253808
0.0008775608342332919,0.01920563365253808
0.0008775608342332919,0.01925898263490624
0.0008840372979545708,0.01925898263490624
0.0008840372979545708,0.01928565712609032
0.0008856564138848906,0.01928565712609032
0.0008856564138848906,0.01936568059964256
0.0008888946457455301,0.01936568059964256
0.0008888946457455301,0.01939235509082664
0.0008905137616758498,0.01939235509082664
0.0008905137616758498,0.019605751020299288
0.0008921328776061695,0.019605751020299288
0.0008921328776061695,0.01973912347621969
0.0008937519935364892,0.01973912347621969
0.0008937519935364892,0.019819146949771934
0.0008953711094668089,0.019819146949771934
0.0008953711094668089,0.019899170423324175
0.0008969902253971287,0.019899170423324175
0.0008969902253971287,0.020032542879244577
0.0008986093413274484,0.020032542879244577
0.0008986093413274484,0.02008589186161274
0.0009018475731880878,0.02008589186161274
0.0009018475731880878,0.02011256635279682
0.0009050858050487273,0.02011256635279682
0.0009050858050487273,0.020192589826349062
0.000906704920979047,0.020192589826349062
0.000906704920979047,0.020272613299901304
0.0009083240369093668,0.020272613299901304
0.0009083240369093668,0.020352636773453548
0.0009148005006306457,0.020352636773453548
0.0009148005006306457,0.02037931126463763
0.0009164196165609654,0.02037931126463763
0.0009164196165609654,0.02045933473818987
0.0009180387324912851,0.02045933473818987
0.0009180387324912851,0.02051268372055803
0.0009212769643519245,0.02051268372055803
0.0009212769643519245,0.020646056176478432
0.000924515196212564,0.020646056176478432
0.000924515196212564,0.02091280108831924
0.0009261343121428837,0.02091280108831924
0.0009261343121428837,0.020966150070687403
0.0009277534280732034,0.020966150070687403
0.0009277534280732034,0.021019499053055564
0.000930991659933843,0.021019499053055564
0.000930991659933843,0.021206220491344126
0.0009326107758641627,0.021206220491344126
0.0009326107758641627,0.02131291845608045
0.0009342298917944824,0.02131291845608045
0.0009342298917944824,0.021366267438448612
0.0009358490077248021,0.021366267438448612
0.0009358490077248021,0.021419616420816773
0.0009374681236551218,0.021419616420816773
0.0009374681236551218,0.021472965403184933
0.0009407063555157613,0.021472965403184933
0.0009407063555157613,0.021526314385553094
0.000942325471446081,0.021526314385553094
0.000942325471446081,0.02168636133265758
0.0009471828192370402,0.02168636133265758
0.0009471828192370402,0.02173971031502574
0.0009488019351673599,0.02173971031502574
0.0009488019351673599,0.021873082770946146
0.0009504210510976796,0.021873082770946146
0.0009504210510976796,0.022006455226866548
0.0009536592829583191,0.022006455226866548
0.0009536592829583191,0.022193176665155114
0.0009552783988886389,0.022193176665155114
0.0009552783988886389,0.022273200138707355
0.0009568975148189586,0.022273200138707355
0.0009568975148189586,0.02253994505054816
0.0009585166307492783,0.02253994505054816
0.0009585166307492783,0.022593294032916322
0.000960135746679598,0.022593294032916322
0.000960135746679598,0.022646643015284483
0.0009617548626099177,0.022646643015284483
0.0009617548626099177,0.022699991997652644
0.0009682313263311966,0.022699991997652644
0.0009682313263311966,0.022726666488836724
0.000971469558191836,0.022726666488836724
0.000971469558191836,0.02280668996238897
0.0009730886741221559,0.02280668996238897
0.0009730886741221559,0.02283336445357305
0.0009763269059827953,0.02283336445357305
0.0009763269059827953,0.02291338792712529
0.000977946021913115,0.02291338792712529
0.000977946021913115,0.02294006241830937
0.0009795651378434347,0.02294006241830937
0.0009795651378434347,0.02296673690949345
0.0009828033697040742,0.02296673690949345
0.0009828033697040742,0.023073434874229776
0.0009860416015647136,0.023073434874229776
0.0009860416015647136,0.023100109365413856
0.0009876607174950335,0.023100109365413856
0.0009876607174950335,0.023126783856597936
0.0009908989493556729,0.023126783856597936
0.0009908989493556729,0.023206807330150177
0.0009925180652859925,0.023206807330150177
0.0009925180652859925,0.02334017978607058
0.0009941371812163123,0.02334017978607058
0.0009941371812163123,0.023393528768438743
0.000995756297146632,0.023393528768438743
0.000995756297146632,0.023446877750806904
0.0009973754130769518,0.023446877750806904
0.0009973754130769518,0.023526901224359145
0.0009989945290072714,0.023526901224359145
0.0009989945290072714,0.023553575715543226
0.0010006136449375912,0.023553575715543226
0.0010006136449375912,0.023606924697911386
0.0010054709927285503,0.023606924697911386
0.0010054709927285503,0.02368694817146363
0.00100870922458919,0.02368694817146363
0.00100870922458919,0.023820320627384033
0.0010103283405195095,0.023820320627384033
0.0010103283405195095,0.023846995118568113
0.0010119474564498293,0.023846995118568113
0.0010119474564498293,0.023873669609752193
0.0010168048042407884,0.023873669609752193
0.0010168048042407884,0.023927018592120354
0.0010184239201711082,0.023927018592120354
0.0010184239201711082,0.023980367574488518
0.0010200430361014278,0.023980367574488518
0.0010200430361014278,0.02403371655685668
0.001024900383892387,0.02403371655685668
0.001024900383892387,0.02411374003040892
0.0010297577316833464,0.02411374003040892
0.0010297577316833464,0.024140414521593
0.0010329959635439858,0.024140414521593
0.0010329959635439858,0.024300461468697486
0.0010346150794743054,0.024300461468697486
0.0010346150794743054,0.024327135959881566
0.0010362341954046252,0.024327135959881566
0.0010362341954046252,0.024353810451065647
0.0010378533113349448,0.024353810451065647
0.0010378533113349448,0.02451385739817013
0.0010394724272652647,0.02451385739817013
0.0010394724272652647,0.024593880871722373
0.0010410915431955843,0.024593880871722373
0.001042710659125904,0.024620555362906454
0.0010459488909865435,0.024620555362906454
0.0010459488909865435,0.024673904345274614
0.001049187122847183,0.024673904345274614
0.001049187122847183,0.024727253327642775
0.0010508062387775028,0.024727253327642775
0.0010508062387775028,0.024753927818826856
0.0010524253547078224,0.024753927818826856
0.0010524253547078224,0.024833951292379097
0.0010572827024987817,0.024833951292379097
0.0010572827024987817,0.02488730027474726
0.0010605209343594211,0.02488730027474726
0.0010605209343594211,0.02494064925711542
0.0010621400502897407,0.02494064925711542
0.0010621400502897407,0.024993998239483582
0.0010637591662200606,0.024993998239483582
0.0010637591662200606,0.025100696204219904
0.0010669973980807,0.025100696204219904
0.0010669973980807,0.02523406866014031
0.0010686165140110196,0.02523406866014031
0.0010686165140110196,0.02528741764250847
0.0010702356299413394,0.02528741764250847
0.0010702356299413394,0.02531409213369255
0.0010718547458716593,0.02531409213369255
0.0010718547458716593,0.025554162554349277
0.0010783312095929381,0.025554162554349277
0.0010783312095929381,0.025660860519085598
0.0010799503255232577,0.025660860519085598
0.0010799503255232577,0.02571420950145376
0.0010831885573838972,0.02571420950145376
0.0010831885573838972,0.02576755848382192
0.001084807673314217,0.02576755848382192
0.001084807673314217,0.025927605430926405
0.0010864267892445366,0.025927605430926405
0.0010864267892445366,0.026007628904478646
0.0010880459051748565,0.026007628904478646
0.0010880459051748565,0.026060977886846807
0.001089665021105176,0.026060977886846807
0.001089665021105176,0.026301048307503534
0.0010912841370354959,0.026301048307503534
0.0010912841370354959,0.026354397289871694
0.0010929032529658155,0.026354397289871694
0.0010929032529658155,0.02640774627223986
0.0010945223688961353,0.02640774627223986
0.0010945223688961353,0.0264877697457921
0.0010961414848264552,0.0264877697457921
0.0010961414848264552,0.0266211422017125
0.0010993797166870946,0.0266211422017125
0.0010993797166870946,0.026674491184080662
0.0011009988326174142,0.026674491184080662
0.0011009988326174142,0.026701165675264746
0.001102617948547734,0.026701165675264746
0.001102617948547734,0.026754514657632907
0.0011042370644780536,0.026754514657632907
0.0011042370644780536,0.026834538131185148
0.0011058561804083735,0.026834538131185148
0.0011058561804083735,0.026861212622369228
0.001107475296338693,0.026861212622369228
0.001107475296338693,0.02691456160473739
0.0011107135281993325,0.02691456160473739
0.0011107135281993325,0.02694123609592147
0.0011123326441296523,0.02694123609592147
0.0011123326441296523,0.02696791058710555
0.001113951760059972,0.02696791058710555
0.001113951760059972,0.027181306516578196
0.0011155708759902918,0.027181306516578196
0.0011155708759902918,0.027234655498946356
0.0011188091078509312,0.027234655498946356
0.0011188091078509312,0.0273146789724986
0.0011236664556418905,0.0273146789724986
0.0011236664556418905,0.02736802795486676
0.00112690468750253,0.02736802795486676
0.00112690468750253,0.027448051428419003
0.0011285238034328495,0.027448051428419003
0.0011285238034328495,0.02760809837552349
0.0011333811512238088,0.02760809837552349
0.0011333811512238088,0.02766144735789165
0.0011366193830844482,0.02766144735789165
0.0011366193830844482,0.02776814532262797
0.001138238499014768,0.02776814532262797
0.001138238499014768,0.02782149430499613
0.0011398576149450877,0.02782149430499613
0.0011398576149450877,0.02784816879618021
0.0011414767308754075,0.02784816879618021
0.0011414767308754075,0.027928192269732456
0.001143095846805727,0.027928192269732456
0.001143095846805727,0.028008215743284697
0.001144714962736047,0.028008215743284697
0.001144714962736047,0.028034890234468778
0.0011463340786663665,0.028034890234468778
0.0011463340786663665,0.028061564725652858
0.0011479531945966864,0.028061564725652858
0.0011479531945966864,0.028088239216836938
0.001149572310527006,0.028088239216836938
0.001149572310527006,0.02811491370802102
0.0011560487742482849,0.02811491370802102
0.0011560487742482849,0.02816826269038918
0.0011576678901786047,0.02816826269038918
0.0011576678901786047,0.028194937181573263
0.0011609061220392441,0.028194937181573263
0.0011609061220392441,0.028274960655125504
0.0011641443538998836,0.028274960655125504
0.0011641443538998836,0.02854170556696631
0.0011706208176211624,0.02854170556696631
0.0011706208176211624,0.02856838005815039
0.0011722399335514823,0.02856838005815039
0.0011722399335514823,0.028621729040518552
0.0011754781654121217,0.028621729040518552
0.0011754781654121217,0.02880845047880712
0.0011770972813424413,0.02880845047880712
0.0011770972813424413,0.02894182293472752
0.0011787163972727611,0.02894182293472752
0.0011787163972727611,0.02902184640827976
0.0011803355132030807,0.02902184640827976
0.0011803355132030807,0.029075195390647922
0.0011835737450637204,0.029075195390647922
0.0011835737450637204,0.029101869881832006
0.00118519286099404,0.029101869881832006
0.00118519286099404,0.029235242337752407
0.0011868119769243598,0.029235242337752407
0.0011868119769243598,0.029261916828936488
0.0011884310928546795,0.029261916828936488
0.0011884310928546795,0.029448638267225054
0.0011900502087849993,0.029448638267225054
0.0011900502087849993,0.029501987249593215
0.0011916693247153189,0.029501987249593215
0.0011916693247153189,0.029528661740777295
0.0011965266725062782,0.029528661740777295
0.0011965266725062782,0.029555336231961375
0.0011997649043669176,0.029555336231961375
0.0011997649043669176,0.02974205767024994
0.0012013840202972372,0.02974205767024994
0.0012013840202972372,0.02976873216143402
0.0012062413680881965,0.02976873216143402
0.0012062413680881965,0.029848755634986263
0.0012078604840185163,0.029848755634986263
0.0012078604840185163,0.029982128090906664
0.0012127178318094753,0.029982128090906664
0.0012127178318094753,0.030008802582090748
0.0012143369477397952,0.030008802582090748
0.0012143369477397952,0.03006215156445891
0.0012159560636701148,0.03006215156445891
0.0012159560636701148,0.03019552402037931
0.0012224325273913937,0.03019552402037931
0.0012224325273913937,0.03024887300274747
0.0012240516433217135,0.03024887300274747
0.0012240516433217135,0.030275547493931552
0.001227289875182353,0.030275547493931552
0.001227289875182353,0.030302221985115636
0.0012353854548339516,0.030302221985115636
0.0012353854548339516,0.03051561791458828
0.001238623686694591,0.03051561791458828
0.001238623686694591,0.030675664861692764
0.0012418619185552305,0.030675664861692764
0.0012418619185552305,0.030729013844060925
0.00124348103448555,0.030729013844060925
0.00124348103448555,0.030755688335245005
0.00124510015041587,0.030755688335245005
0.00124510015041587,0.030862386299981327
0.0012467192663461898,0.030862386299981327
0.0012467192663461898,0.030889060791165407
0.0012499574982068292,0.030889060791165407
0.0012499574982068292,0.03091573528234949
0.0012515766141371488,0.03091573528234949
0.0012515766141371488,0.031102456720638053
0.0012531957300674686,0.031102456720638053
0.0012531957300674686,0.031209154685374378
0.0012548148459977882,0.031209154685374378
0.0012548148459977882,0.03123582917655846
0.001256433961928108,0.03123582917655846
0.001256433961928108,0.031289178158926616
0.0012596721937887475,0.031289178158926616
0.0012596721937887475,0.031395876123662944
0.001262910425649387,0.031395876123662944
0.001262910425649387,0.03147589959721518
0.0012645295415797066,0.03147589959721518
0.0012645295415797066,0.031502574088399266
0.0012661486575100264,0.031502574088399266
0.0012661486575100264,0.031555923070767426
0.0012693868893706658,0.031555923070767426
0.0012693868893706658,0.0315825975619515
0.0012710060053009857,0.0315825975619515
0.0012710060053009857,0.031635946544319664
0.0012726251212313053,0.031635946544319664
0.0012726251212313053,0.03171597001787191
0.0012758633530919447,0.03171597001787191
0.0012758633530919447,0.03182266798260823
0.0012774824690222645,0.03182266798260823
0.0012774824690222645,0.03187601696497639
0.0012791015849525841,0.03187601696497639
0.0012791015849525841,0.031902691456160474
0.001280720700882904,0.031902691456160474
0.001280720700882904,0.031956040438528635
0.0012823398168132236,0.031956040438528635
0.0012823398168132236,0.03198271492971272
0.001285578048673863,0.03198271492971272
0.001285578048673863,0.032009389420896796
0.0012888162805345024,0.032009389420896796
0.0012888162805345024,0.03216943636800128
0.0012904353964648223,0.03216943636800128
0.0012904353964648223,0.03224945984155352
0.001292054512395142,0.03224945984155352
0.001292054512395142,0.032276134332737606
0.0012936736283254617,0.032276134332737606
0.0012936736283254617,0.032409506788658005
0.0012952927442557815,0.032409506788658005
0.0012952927442557815,0.032462855771026165
0.0012969118601861012,0.032462855771026165
0.0012969118601861012,0.032516204753394326
0.0013050074398376999,0.032516204753394326
0.0013050074398376999,0.03259622822694657
0.0013082456716983393,0.03259622822694657
0.0013082456716983393,0.03270292619168289
0.0013147221354196182,0.03270292619168289
0.0013147221354196182,0.03280962415641921
0.001316341251349938,0.03280962415641921
0.001316341251349938,0.0328362986476033
0.0013179603672802576,0.0328362986476033
0.0013179603672802576,0.03294299661233962
0.0013195794832105774,0.03294299661233962
0.0013195794832105774,0.0329696711035237
0.0013228177150712169,0.0329696711035237
0.0013228177150712169,0.03302302008589186
0.0013260559469318563,0.03302302008589186
0.0013260559469318563,0.03304969457707594
0.001327675062862176,0.03304969457707594
0.001327675062862176,0.0331030435594441
0.0013292941787924957,0.0331030435594441
0.0013292941787924957,0.033129718050628185
0.0013309132947228154,0.033129718050628185
0.0013309132947228154,0.033183067032996345
0.0013325324106531352,0.033183067032996345
0.0013325324106531352,0.03326309050654859
0.001334151526583455,0.03326309050654859
0.001334151526583455,0.03336978847128491
0.0013357706425137746,0.03336978847128491
0.0013357706425137746,0.03352983541838939
0.0013373897584440944,0.03352983541838939
0.0013373897584440944,0.033583184400757554
0.001339008874374414,0.033583184400757554
0.001339008874374414,0.03371655685667796
0.0013406279903047339,0.03371655685667796
0.0013406279903047339,0.033743231347862036
0.0013422471062350535,0.033743231347862036
0.0013422471062350535,0.0339299527861506
0.0013438662221653733,0.0339299527861506
0.0013438662221653733,0.034250046680359574
0.001345485338095693,0.034250046680359574
0.001345485338095693,0.03427672117154365
0.0013471044540260128,0.03427672117154365
0.0013471044540260128,0.034303395662727734
0.0013519618018169718,0.034303395662727734
0.0013519618018169718,0.0344901171010163
0.0013535809177472916,0.0344901171010163
0.0013535809177472916,0.03478353650404119
0.0013552000336776112,0.03478353650404119
0.0013552000336776112,0.03494358345114567
0.001356819149607931,0.03494358345114567
0.001356819149607931,0.03497025794232975
0.0013600573814685705,0.03497025794232975
0.0013600573814685705,0.035023606924697914
0.0013616764973988903,0.035023606924697914
0.0013616764973988903,0.035076955907066075
0.00136329561332921,0.035076955907066075
0.00136329561332921,0.035130304889434236
0.0013665338451898494,0.035130304889434236
0.0013665338451898494,0.03515697938061831
0.0013681529611201692,0.03515697938061831
0.0013681529611201692,0.035263677345354634
0.0013697720770504888,0.035263677345354634
0.0013697720770504888,0.03534370081890688
0.0013713911929808086,0.03534370081890688
0.0013713911929808086,0.03537037531009096
0.0013730103089111283,0.03537037531009096
0.0013730103089111283,0.03542372429245912
0.001374629424841448,0.03542372429245912
0.001374629424841448,0.035583771239563605
0.0013762485407717677,0.035583771239563605
0.0013762485407717677,0.03574381818666809
0.0013778676567020875,0.03574381818666809
0.0013778676567020875,0.03587719064258849
0.0013794867726324074,0.03587719064258849
0.0013794867726324074,0.036037237589692975
0.0013827250044930468,0.036037237589692975
0.0013827250044930468,0.036090586572061135
0.0013843441204233664,0.036090586572061135
0.0013843441204233664,0.036143935554429296
0.0013859632363536862,0.036143935554429296
0.0013859632363536862,0.036357331483901946
0.0013875823522840058,0.036357331483901946
0.0013875823522840058,0.03638400597508602
0.001392439700074965,0.03638400597508602
0.001392439700074965,0.03654405292219051
0.001398916163796244,0.03654405292219051
0.001398916163796244,0.036810797834031316
0.0014021543956568834,0.036810797834031316
0.0014021543956568834,0.03691749579876764
0.0014053926275175229,0.03691749579876764
0.0014053926275175229,0.03694417028995172
0.0014086308593781623,0.03694417028995172
0.0014086308593781623,0.037157566219424364
0.0014151073230994412,0.037157566219424364
0.0014151073230994412,0.037317613166528846
0.0014183455549600806,0.037317613166528846
0.0014183455549600806,0.037370962148897006
0.0014199646708904004,0.037370962148897006
0.0014199646708904004,0.037477660113633335
0.0014215837868207203,0.037477660113633335
0.0014215837868207203,0.03771773053429006
0.0014232029027510399,0.03771773053429006
0.0014232029027510399,0.0377977540078423
0.0014248220186813597,0.0377977540078423
0.0014248220186813597,0.03785110299021046
0.0014264411346116793,0.03785110299021046
0.0014264411346116793,0.03790445197257862
0.0014280602505419991,0.03790445197257862
0.0014280602505419991,0.038091173410867186
0.0014312984824026386,0.038091173410867186
0.0014312984824026386,0.03814452239323535
0.001434536714263278,0.03814452239323535
0.001434536714263278,0.03817119688441943
0.0014361558301935976,0.03817119688441943
0.0014361558301935976,0.03841126730507616
0.0014377749461239174,0.03841126730507616
0.0014377749461239174,0.03846461628744432
0.001439394062054237,0.03846461628744432
0.001439394062054237,0.03851796526981248
0.0014410131779845569,0.03851796526981248
0.0014410131779845569,0.038544639760996556
0.0014426322939148765,0.038544639760996556
0.0014426322939148765,0.03857131425218064
0.0014442514098451963,0.03857131425218064
0.0014442514098451963,0.0386246632345488
0.0014458705257755161,0.0386246632345488
0.0014458705257755161,0.03886473365520553
0.0014474896417058358,0.03886473365520553
0.0014474896417058358,0.03889140814638961
0.0014491087576361556,0.03889140814638961
0.0014491087576361556,0.03894475712875777
0.0014507278735664752,0.03894475712875777
0.0014507278735664752,0.03899810611112593
0.001452346989496795,0.03899810611112593
0.001452346989496795,0.03902478060231001
0.0014539661054271146,0.03902478060231001
0.0014539661054271146,0.03905145509349409
0.001457204337287754,0.03905145509349409
0.001457204337287754,0.03907812958467817
0.001458823453218074,0.03907812958467817
0.001458823453218074,0.039104804075862254
0.0014604425691483935,0.039104804075862254
0.0014604425691483935,0.03913147856704633
0.0014620616850787133,0.03913147856704633
0.0014620616850787133,0.039211502040598575
0.0014652999169393528,0.039211502040598575
0.0014652999169393528,0.03923817653178266
0.0014669190328696726,0.03923817653178266
0.0014669190328696726,0.03929152551415082
0.0014685381487999922,0.03929152551415082
0.0014685381487999922,0.0393182000053349
0.001470157264730312,0.0393182000053349
0.001470157264730312,0.039611619408359784
0.0014733954965909515,0.039611619408359784
0.0014733954965909515,0.03963829389954387
0.001475014612521271,0.03963829389954387
0.001475014612521271,0.03969164288191203
0.001476633728451591,0.03969164288191203
0.001476633728451591,0.039771666355464266
0.0014782528443819105,0.039771666355464266
0.0014782528443819105,0.03979834084664835
0.0014798719603122304,0.03979834084664835
0.0014798719603122304,0.03985168982901651
0.00148149107624255,0.03985168982901651
0.00148149107624255,0.039985062284936916
0.0014847293081031894,0.039985062284936916
0.0014847293081031894,0.04009176024967324
0.0014863484240335092,0.04009176024967324
0.0014863484240335092,0.04011843474085732
0.001487967539963829,0.04011843474085732
0.001487967539963829,0.0401451092320414
0.0014895866558941487,0.0401451092320414
0.0014895866558941487,0.04017178372322548
0.0014912057718244685,0.04017178372322548
0.0014912057718244685,0.04019845821440956
0.001492824887754788,0.04019845821440956
0.001492824887754788,0.040278481687961804
0.001494444003685108,0.040278481687961804
0.001494444003685108,0.040331830670329964
0.0014960631196154275,0.040331830670329964
0.0014960631196154275,0.04041185414388221
0.0014976822355457474,0.04041185414388221
0.0014976822355457474,0.04046520312625037
0.001499301351476067,0.04046520312625037
0.001499301351476067,0.04051855210861853
0.0015009204674063868,0.04051855210861853
0.0015009204674063868,0.04062525007335485
0.0015041586992670262,0.04062525007335485
0.0015041586992670262,0.040705273546907096
0.0015057778151973459,0.040705273546907096
0.0015057778151973459,0.04073194803809117
0.0015073969311276657,0.04073194803809117
0.0015073969311276657,0.040838646002827494
0.0015090160470579855,0.040838646002827494
0.0015090160470579855,0.04086532049401158
0.0015187307426399038,0.04086532049401158
0.0015187307426399038,0.04091866947637974
0.0015203498585702234,0.04091866947637974
0.0015203498585702234,0.040945343967563816
0.0015219689745005433,0.040945343967563816
0.0015219689745005433,0.041212088879404626
0.0015235880904308629,0.041212088879404626
0.0015235880904308629,0.04134546133532503
0.0015252072063611827,0.04134546133532503
0.0015252072063611827,0.04137213582650911
0.0015268263222915023,0.04137213582650911
0.0015268263222915023,0.04147883379124543
0.0015284454382218221,0.04147883379124543
0.0015284454382218221,0.041505508282429514
0.0015300645541521417,0.041505508282429514
0.0015300645541521417,0.041665555229533996
0.0015316836700824616,0.041665555229533996
0.0015316836700824616,0.04171890421190216
0.0015333027860127814,0.04171890421190216
0.0015333027860127814,0.04174557870308624
0.001534921901943101,0.04174557870308624
0.001534921901943101,0.0417989276854544
0.0015365410178734208,0.0417989276854544
0.0015365410178734208,0.04182560217663848
0.0015478748293856588,0.04182560217663848
0.0015478748293856588,0.04187895115900664
0.0015494939453159786,0.04187895115900664
0.0015494939453159786,0.042012323614927044
0.0015511130612462982,0.042012323614927044
0.0015511130612462982,0.04203899810611113
0.0015543512931069378,0.04203899810611113
0.0015543512931069378,0.042065672597295205
0.001559208640897897,0.042065672597295205
0.001559208640897897,0.042119021579663365
0.0015624468727585363,0.042119021579663365
0.0015624468727585363,0.04225239403558377
0.0015656851046191758,0.04225239403558377
0.0015656851046191758,0.04243911547387234
0.0015673042205494956,0.04243911547387234
0.0015673042205494956,0.04251913894742458
0.0015689233364798152,0.04251913894742458
0.0015689233364798152,0.04254581343860866
0.001570542452410135,0.04254581343860866
0.001570542452410135,0.0427592093680813
0.0015721615683404546,0.0427592093680813
0.0015721615683404546,0.042785883859265385
0.0015753998002010943,0.042785883859265385
0.0015753998002010943,0.042839232841633546
0.001577018916131414,0.042839232841633546
0.001577018916131414,0.042892581824001706
0.0015786380320617337,0.042892581824001706
0.0015786380320617337,0.04291925631518579
0.0015802571479920534,0.04291925631518579
0.0015802571479920534,0.04313265224465843
0.0015818762639223732,0.04313265224465843
0.0015818762639223732,0.043186001227026594
0.0015834953798526928,0.043186001227026594
0.0015834953798526928,0.04321267571821068
0.0015851144957830126,0.04321267571821068
0.0015851144957830126,0.04326602470057884
0.001588352727643652,0.04326602470057884
0.001588352727643652,0.04337272266531516
0.0015899718435739717,0.04337272266531516
0.0015899718435739717,0.043399397156499236
0.001593210075434611,0.043399397156499236
0.001593210075434611,0.04347942063005148
0.001594829191364931,0.04347942063005148
0.001594829191364931,0.043559444103603726
0.0015964483072952508,0.043559444103603726
0.0015964483072952508,0.04363946757715596
0.0015980674232255704,0.04363946757715596
0.0015980674232255704,0.04366614206834005
0.0016045438869468492,0.04366614206834005
0.0016045438869468492,0.043692816559524124
0.001606163002877169,0.043692816559524124
0.001606163002877169,0.04371949105070821
0.0016110203506681281,0.04371949105070821
0.0016110203506681281,0.04379951452426045
0.001612639466598448,0.04379951452426045
0.001612639466598448,0.04393288698018085
0.0016142585825287676,0.04393288698018085
0.0016142585825287676,0.04403958494491718
0.0016158776984590874,0.04403958494491718
0.0016158776984590874,0.04409293392728534
0.0016207350462500466,0.04409293392728534
0.0016207350462500466,0.04422630638320574
0.0016223541621803663,0.04422630638320574
0.0016223541621803663,0.0442796553655739
0.0016255923940410057,0.0442796553655739
0.0016255923940410057,0.044413027821494304
0.0016272115099713255,0.044413027821494304
0.0016272115099713255,0.044519725786230625
0.0016288306259016451,0.044519725786230625
0.0016288306259016451,0.04454640027741471
0.001630449741831965,0.04454640027741471
0.001630449741831965,0.04465309824215103
0.0016320688577622846,0.04465309824215103
0.0016320688577622846,0.044733121715703275
0.0016336879736926044,0.044733121715703275
0.0016336879736926044,0.0448398196804396
0.0016369262055532438,0.0448398196804396
0.0016369262055532438,0.04489316866280776
0.001641783553344203,0.04489316866280776
0.001641783553344203,0.04499986662754408
0.0016434026692745227,0.04499986662754408
0.0016434026692745227,0.04502654111872816
0.0016466409011351621,0.04502654111872816
0.0016466409011351621,0.04515991357464856
0.0016498791329958016,0.04515991357464856
0.0016498791329958016,0.04521326255701672
0.0016514982489261214,0.04521326255701672
0.0016514982489261214,0.045239937048200805
0.001653117364856441,0.045239937048200805
0.001653117364856441,0.045293286030568966
0.0016547364807867608,0.045293286030568966
0.0016547364807867608,0.045640054415962014
0.0016563555967170805,0.045640054415962014
0.0016563555967170805,0.0456667289071461
0.0016579747126474003,0.0456667289071461
0.0016579747126474003,0.045853450345434664
0.0016612129445080397,0.045853450345434664
0.0016612129445080397,0.045960148310170985
0.0016628320604383596,0.045960148310170985
0.0016628320604383596,0.04606684627490731
0.0016644511763686792,0.04606684627490731
0.0016644511763686792,0.046093520766091384
0.001666070292298999,0.046093520766091384
0.001666070292298999,0.04620021873082771
0.0016676894082293186,0.04620021873082771
0.0016676894082293186,0.04622689322201179
0.0016693085241596384,0.04622689322201179
0.0016693085241596384,0.04628024220437995
0.001670927640089958,0.04628024220437995
0.001670927640089958,0.04644028915148444
0.0016725467560202779,0.04644028915148444
0.0016725467560202779,0.04654698711622076
0.0016741658719505975,0.04654698711622076
0.0016741658719505975,0.04665368508095708
0.0016757849878809173,0.04665368508095708
0.0016757849878809173,0.046813732028061564
0.001677404103811237,0.046813732028061564
0.001677404103811237,0.046920429992797885
0.0016790232197415567,0.046920429992797885
0.0016790232197415567,0.04694710448398197
0.0016806423356718763,0.04694710448398197
0.0016806423356718763,0.046973778975166046
0.001683880567532516,0.046973778975166046
0.001683880567532516,0.04705380244871829
0.0016854996834628356,0.04705380244871829
0.0016854996834628356,0.047080476939902374
0.0016903570312537949,0.047080476939902374
0.0016903570312537949,0.04710715143108645
0.0016919761471841145,0.04710715143108645
0.0016919761471841145,0.047240523887006856
0.0016968334949750738,0.047240523887006856
0.0016968334949750738,0.04729387286937502
0.0017033099586963526,0.04729387286937502
0.0017033099586963526,0.04740057083411134
0.0017049290746266722,0.04740057083411134
0.0017049290746266722,0.04742724532529542
0.001706548190556992,0.04742724532529542
0.001706548190556992,0.04748059430766358
0.001708167306487312,0.04748059430766358
0.001708167306487312,0.04756061778121582
0.0017097864224176315,0.04756061778121582
0.0017097864224176315,0.04761396676358398
0.0017114055383479513,0.04761396676358398
0.0017114055383479513,0.04777401371068847
0.001713024654278271,0.04777401371068847
0.001713024654278271,0.04788071167542479
0.0017162628861389104,0.04788071167542479
0.0017162628861389104,0.04790738616660887
0.0017211202339298696,0.04790738616660887
0.0017211202339298696,0.047960735148977036
0.0017227393498601893,0.047960735148977036
0.0017227393498601893,0.0480140841313452
0.0017259775817208287,0.0480140841313452
0.0017259775817208287,0.048094107604897435
0.0017324540454421078,0.048094107604897435
0.0017324540454421078,0.04812078209608152
0.0017356922773027472,0.04812078209608152
0.0017356922773027472,0.048147456587265595
0.0017405496250937063,0.048147456587265595
0.0017405496250937063,0.04822748006081784
0.001742168741024026,0.04822748006081784
0.001742168741024026,0.04854757395502681
0.0017437878569543457,0.04854757395502681
0.0017437878569543457,0.04857424844621089
0.001748645204745305,0.04857424844621089
0.001748645204745305,0.04868094641094721
0.0017502643206756248,0.04868094641094721
0.0017502643206756248,0.04870762090213129
0.0017535025525362642,0.04870762090213129
0.0017535025525362642,0.04878764437568353
0.0017567407843969037,0.04878764437568353
0.0017567407843969037,0.048814318866867615
0.0017583599003272233,0.048814318866867615
0.0017583599003272233,0.04889434234041986
0.0017599790162575431,0.04889434234041986
0.0017599790162575431,0.04929445970818107
0.0017632172481181825,0.04929445970818107
0.0017632172481181825,0.04934780869054923
0.001766455479978822,0.04934780869054923
0.001766455479978822,0.04940115767291739
0.0017713128277697813,0.04940115767291739
0.0017713128277697813,0.04945450665528555
0.0017745510596304207,0.04945450665528555
0.0017745510596304207,0.04950785563765371
0.0017761701755607403,0.04950785563765371
0.0017761701755607403,0.04961455360239003
0.0017794084074213797,0.04961455360239003
0.0017794084074213797,0.04982794953186268
0.0017826466392820192,0.04982794953186268
0.0017826466392820192,0.04988129851423084
0.0017858848711426586,0.04988129851423084
0.0017858848711426586,0.04990797300541492
0.0017875039870729784,0.04990797300541492
0.0017875039870729784,0.049934647496599004
0.001789123103003298,0.049934647496599004
0.001789123103003298,0.049987996478967164
0.0017923613348639375,0.049987996478967164
0.0017923613348639375,0.050041345461335325
0.0017939804507942573,0.050041345461335325
0.0017939804507942573,0.05006801995251941
0.0017972186826548968,0.05006801995251941
0.0017972186826548968,0.050148043426071647
0.0017988377985852166,0.050148043426071647
0.0017988377985852166,0.05017471791725573
0.001802076030445856,0.05017471791725573
0.001802076030445856,0.05033476486436021
0.0018053142623064955,0.05033476486436021
0.0018053142623064955,0.05038811384672837
0.001806933378236815,0.05038811384672837
0.001806933378236815,0.05046813732028062
0.001808552494167135,0.05046813732028062
0.001808552494167135,0.05057483528501694
0.0018117907260277743,0.05057483528501694
0.0018117907260277743,0.0506281842673851
0.001813409841958094,0.0506281842673851
0.001813409841958094,0.050654858758569184
0.0018150289578884138,0.050654858758569184
0.0018150289578884138,0.05068153324975326
0.0018166480738187336,0.05068153324975326
0.0018166480738187336,0.05073488223212142
0.0018182671897490532,0.05073488223212142
0.0018182671897490532,0.05084158019685774
0.001819886305679373,0.05084158019685774
0.001819886305679373,0.05097495265277815
0.0018231245375400125,0.05097495265277815
0.0018231245375400125,0.05105497612633039
0.001824743653470332,0.05105497612633039
0.001824743653470332,0.051268372055803035
0.001831220117191611,0.051268372055803035
0.001831220117191611,0.051321721038171196
0.00183769658091289,0.051321721038171196
0.00183769658091289,0.05140174451172344
0.0018393156968432097,0.05140174451172344
0.0018393156968432097,0.0514550934940916
0.0018409348127735295,0.0514550934940916
0.0018409348127735295,0.05156179145882792
0.001842553928703849,0.05156179145882792
0.001842553928703849,0.051668489423564244
0.001844173044634169,0.051668489423564244
0.001844173044634169,0.05174851289711649
0.0018457921605644885,0.05174851289711649
0.0018457921605644885,0.05180186187948465
0.0018474112764948084,0.05180186187948465
0.0018474112764948084,0.051828536370668726
0.001849030392425128,0.051828536370668726
0.001849030392425128,0.05185521086185281
0.0018506495083554478,0.05185521086185281
0.0018506495083554478,0.051881885353036894
0.0018522686242857674,0.051881885353036894
0.0018522686242857674,0.05190855984422097
0.0018538877402160872,0.05190855984422097
0.0018538877402160872,0.052121955773693614
0.0018555068561464068,0.052121955773693614
0.0018555068561464068,0.05217530475606178
0.0018571259720767267,0.05217530475606178
0.0018571259720767267,0.05220197924724586
0.0018587450880070465,0.05220197924724586
0.0018587450880070465,0.0522820027207981
0.001861983319867686,0.0522820027207981
0.001861983319867686,0.05236202619435034
0.0018636024357980055,0.05236202619435034
0.0018636024357980055,0.05246872415908667
0.0018652215517283254,0.05246872415908667
0.0018652215517283254,0.05252207314145483
0.001866840667658645,0.05252207314145483
0.001866840667658645,0.05260209661500707
0.0018684597835889648,0.05260209661500707
0.0018684597835889648,0.05265544559737523
0.0018700788995192844,0.05265544559737523
0.0018700788995192844,0.05270879457974339
0.0018733171313799239,0.05270879457974339
0.0018733171313799239,0.05273546907092747
0.0018749362473102437,0.05273546907092747
0.0018749362473102437,0.05278881805329563
0.0018781744791708831,0.05278881805329563
0.0018781744791708831,0.052895516018031954
0.0018797935951012027,0.052895516018031954
0.0018797935951012027,0.0529755394915842
0.0018814127110315226,0.0529755394915842
0.0018814127110315226,0.053002213982768276
0.0018830318269618424,0.053002213982768276
0.0018830318269618424,0.05313558643868868
0.0018862700588224818,0.05313558643868868
0.0018862700588224818,0.053162260929872765
0.0018895082906831213,0.053162260929872765
0.0018895082906831213,0.05318893542105684
0.0018911274066134409,0.05318893542105684
0.0018911274066134409,0.053215609912240926
0.0018943656384740803,0.053215609912240926
0.0018943656384740803,0.05337565685934541
0.0018959847544044001,0.05337565685934541
0.0018959847544044001,0.05364240177118621
0.0018976038703347198,0.05364240177118621
0.0018976038703347198,0.053669076262370295
0.0019008421021953592,0.053669076262370295
0.0019008421021953592,0.05369575075355438
0.0019040803340559988,0.05369575075355438
0.0019040803340559988,0.05377577422710662
0.0019056994499863185,0.05377577422710662
0.0019056994499863185,0.05382912320947478
0.0019073185659166383,0.05382912320947478
0.0019073185659166383,0.054069193630131504
0.001908937681846958,0.054069193630131504
0.001908937681846958,0.05409586812131559
0.0019105567977772777,0.05409586812131559
0.0019105567977772777,0.054175891594867825
0.0019121759137075973,0.054175891594867825
0.0019121759137075973,0.05420256608605191
0.0019137950296379172,0.05420256608605191
0.0019137950296379172,0.054282589559604154
0.0019154141455682368,0.054282589559604154
0.0019154141455682368,0.05430926405078823
0.0019170332614985566,0.05430926405078823
0.0019170332614985566,0.05441596201552455
0.0019186523774288762,0.05441596201552455
0.0019186523774288762,0.054442636506708636
0.001920271493359196,0.054442636506708636
0.001920271493359196,0.0544959854890768
0.0019235097252198355,0.0544959854890768
0.0019235097252198355,0.054522659980260874
0.0019251288411501553,0.054522659980260874
0.0019251288411501553,0.05454933447144496
0.001926747957080475,0.05454933447144496
0.001926747957080475,0.05457600896262904
0.0019299861889411143,0.05457600896262904
0.0019299861889411143,0.05465603243618128
0.0019332244208017538,0.05465603243618128
0.0019332244208017538,0.05473605590973352
0.0019348435367320736,0.05473605590973352
0.0019348435367320736,0.0547627304009176
0.001938081768592713,0.0547627304009176
0.001938081768592713,0.054842753874469845
0.0019413200004533525,0.054842753874469845
0.0019413200004533525,0.05497612633039025
0.0019461773482443117,0.05497612633039025
0.0019461773482443117,0.05500280082157433
0.0019494155801049512,0.05500280082157433
0.0019494155801049512,0.05505614980394249
0.0019526538119655906,0.05505614980394249
0.0019526538119655906,0.05508282429512657
0.0019542729278959102,0.05508282429512657
0.0019542729278959102,0.05513617327749473
0.0019591302756868695,0.05513617327749473
0.0019591302756868695,0.0553228947157833
0.001960749391617189,0.0553228947157833
0.001960749391617189,0.05537624369815146
0.0019623685075475087,0.05537624369815146
0.0019623685075475087,0.055456267171703696
0.0019656067394081484,0.055456267171703696
0.0019656067394081484,0.05564298860999226
0.0019704640871991076,0.05564298860999226
0.0019704640871991076,0.055669663101176346
0.001973702319059747,0.055669663101176346
0.001973702319059747,0.055749686574728584
0.001975321434990067,0.055749686574728584
0.001975321434990067,0.05588305903064899
0.0019769405509203865,0.05588305903064899
0.0019769405509203865,0.05590973352183307
0.001978559666850706,0.05590973352183307
0.001978559666850706,0.05593640801301715
0.0019801787827810257,0.05593640801301715
0.0019801787827810257,0.055963082504201234
0.0019817978987113458,0.055963082504201234
0.0019817978987113458,0.056016431486569394
0.0019834170146416654,0.056016431486569394
0.0019834170146416654,0.05604310597775347
0.001985036130571985,0.05604310597775347
0.001985036130571985,0.05630985088959428
0.0019866552465023046,0.05630985088959428
0.0019866552465023046,0.05644322334551469
0.0019882743624326247,0.05644322334551469
0.0019882743624326247,0.05649657232788285
0.001991512594293264,0.05649657232788285
0.001991512594293264,0.05654992131025101
0.001993131710223584,0.05654992131025101
0.001993131710223584,0.056629944783803246
0.0019947508261539035,0.056629944783803246
0.0019947508261539035,0.05665661927498733
0.0019979890580145428,0.05665661927498733
0.0019979890580145428,0.056683293766171414
0.0020012272898751824,0.056683293766171414
0.0020012272898751824,0.056736642748539574
0.002002846405805502,0.056736642748539574
0.002002846405805502,0.05681666622209181
0.0020044655217358216,0.05681666622209181
0.0020044655217358216,0.05687001520445997
0.0020060846376661417,0.05687001520445997
0.0020060846376661417,0.05689668969564406
0.0020077037535964613,0.05689668969564406
0.0020077037535964613,0.05700338766038038
0.002009322869526781,0.05700338766038038
0.002009322869526781,0.05703006215156446
0.0020125611013874205,0.05703006215156446
0.0020125611013874205,0.05708341113393262
0.00201418021731774,0.05708341113393262
0.00201418021731774,0.05713676011630078
0.0020157993332480598,0.05713676011630078
0.0020157993332480598,0.05716343460748486
0.0020190375651086994,0.05716343460748486
0.0020190375651086994,0.05721678358985302
0.002020656681039019,0.05721678358985302
0.002020656681039019,0.05732348155458935
0.0020238949128996587,0.05732348155458935
0.0020238949128996587,0.057350156045773426
0.0020255140288299783,0.057350156045773426
0.0020255140288299783,0.05751020299287791
0.002027133144760298,0.05751020299287791
0.002027133144760298,0.05753687748406199
0.0020287522606906175,0.05753687748406199
0.0020287522606906175,0.05756355197524607
0.0020303713766209376,0.05756355197524607
0.0020303713766209376,0.05764357544879831
0.002031990492551257,0.05764357544879831
0.002031990492551257,0.0576702499399824
0.0020336096084815768,0.0576702499399824
0.0020336096084815768,0.057696924431166474
0.002035228724411897,0.057696924431166474
0.002035228724411897,0.05772359892235056
0.0020400860722028557,0.05772359892235056
0.0020400860722028557,0.05777694790471872
0.0020417051881331757,0.05777694790471872
0.0020417051881331757,0.05799034383419136
0.0020433243040634953,0.05799034383419136
0.0020433243040634953,0.05804369281655952
0.002044943419993815,0.05804369281655952
0.002044943419993815,0.058070367307743606
0.0020481816518544546,0.058070367307743606
0.0020481816518544546,0.05809704179892768
0.002049800767784774,0.05809704179892768
0.002049800767784774,0.05812371629011177
0.0020530389996454134,0.05812371629011177
0.0020530389996454134,0.05823041425484809
0.002056277231506053,0.05823041425484809
0.002056277231506053,0.058417135693136654
0.0020578963474363727,0.058417135693136654
0.0020578963474363727,0.0584971591666889
0.0020595154633666927,0.0584971591666889
0.0020595154633666927,0.05871055509616154
0.0020611345792970123,0.05871055509616154
0.0020611345792970123,0.0587639040785297
0.002062753695227332,0.0587639040785297
0.002062753695227332,0.05895062551681827
0.0020643728111576515,0.05895062551681827
0.0020643728111576515,0.058977300008002345
0.002067611043018291,0.058977300008002345
0.002067611043018291,0.05900397449918643
0.0020724683908092505,0.05900397449918643
0.0020724683908092505,0.05905732348155459
0.0020757066226698897,0.05905732348155459
0.0020757066226698897,0.05911067246392275
0.0020821830863911686,0.05911067246392275
0.0020821830863911686,0.059137346955106834
0.002085421318251808,0.059137346955106834
0.002085421318251808,0.05921737042865907
0.002087040434182128,0.05921737042865907
0.002087040434182128,0.05935074288457948
0.0020902786660427675,0.05935074288457948
0.0020902786660427675,0.059377417375763554
0.0020951360138337263,0.059377417375763554
0.0020951360138337263,0.05940409186694764
0.0020967551297640464,0.05940409186694764
0.0020967551297640464,0.05948411534049988
0.0020999933616246856,0.05948411534049988
0.0020999933616246856,0.05953746432286804
0.0021016124775550056,0.05953746432286804
0.0021016124775550056,0.05956413881405212
0.002104850709415645,0.05956413881405212
0.002104850709415645,0.05961748779642028
0.0021064698253459645,0.05961748779642028
0.0021064698253459645,0.05967083677878844
0.002109708057206604,0.05967083677878844
0.002109708057206604,0.059750860252340686
0.0021129462890672433,0.059750860252340686
0.0021129462890672433,0.05977753474352477
0.0021145654049975634,0.05977753474352477
0.0021145654049975634,0.05988423270826109
0.002116184520927883,0.05988423270826109
0.002116184520927883,0.05991090719944517
0.0021178036368582026,0.05991090719944517
0.0021178036368582026,0.05996425618181333
0.002119422752788522,0.05996425618181333
0.002119422752788522,0.05999093067299741
0.0021210418687188422,0.05999093067299741
0.0021210418687188422,0.060204326602470055
0.002122660984649162,0.060204326602470055
0.002122660984649162,0.06033769905839046
0.0021242801005794815,0.06033769905839046
0.0021242801005794815,0.060364373549574545
0.0021258992165098015,0.060364373549574545
0.0021258992165098015,0.06039104804075862
0.002127518332440121,0.06039104804075862
0.002127518332440121,0.06044439702312678
0.0021307565643007603,0.06044439702312678
0.0021307565643007603,0.060551094987863104
0.0021323756802310804,0.060551094987863104
0.0021323756802310804,0.06068446744378351
0.0021339947961614,0.06068446744378351
0.0021339947961614,0.06073781642615167
0.0021356139120917196,0.06073781642615167
0.0021356139120917196,0.060871188882072075
0.0021372330280220392,0.060871188882072075
0.0021372330280220392,0.060924537864440236
0.0021437094917433185,0.060924537864440236
0.0021437094917433185,0.06100456133799248
0.002151805071394917,0.06100456133799248
0.002151805071394917,0.06103123582917656
0.0021550433032555562,0.06103123582917656
0.0021550433032555562,0.0611112593027288
0.0021599006510465155,0.0611112593027288
0.0021599006510465155,0.06113793379391288
0.002161519766976835,0.06113793379391288
0.002161519766976835,0.06116460828509696
0.0021647579988374748,0.06116460828509696
0.0021647579988374748,0.06124463175864921
0.0021712344625587536,0.06124463175864921
0.0021712344625587536,0.06135132972338553
0.0021728535784890732,0.06135132972338553
0.0021728535784890732,0.06161807463522633
0.0021744726944193933,0.06161807463522633
0.0021744726944193933,0.06167142361759449
0.002176091810349713,0.06167142361759449
0.002176091810349713,0.061698098108778576
0.002179330042210352,0.061698098108778576
0.002179330042210352,0.061778121582330814
0.002180949158140672,0.061778121582330814
0.002180949158140672,0.06212488996772387
0.0021825682740709918,0.06212488996772387
0.0021825682740709918,0.062151564458907946
0.0021841873900013114,0.062151564458907946
0.0021841873900013114,0.06225826242364427
0.002185806505931631,0.06225826242364427
0.002185806505931631,0.06228493691482835
0.002187425621861951,0.06228493691482835
0.002187425621861951,0.06231161140601243
0.0021906638537225903,0.06231161140601243
0.0021906638537225903,0.062418309370748756
0.0021922829696529103,0.062418309370748756
0.0021922829696529103,0.06244498386193283
0.0021955212015135495,0.06244498386193283
0.0021955212015135495,0.06247165835311692
0.002197140317443869,0.06247165835311692
0.002197140317443869,0.06260503080903732
0.002198759433374189,0.06260503080903732
0.002198759433374189,0.0626317053002214
0.002200378549304509,0.0626317053002214
0.002200378549304509,0.06284510122969404
0.0022019976652348284,0.06287177572087813
0.002203616781165148,0.06287177572087813
0.002203616781165148,0.06292512470324628
0.002205235897095468,0.06292512470324628
0.002205235897095468,0.06297847368561445
0.0022068550130257877,0.06297847368561445
0.0022068550130257877,0.06313852063271894
0.0022084741289561073,0.06313852063271894
0.0022084741289561073,0.0633252420710075
0.0022100932448864273,0.0633252420710075
0.0022100932448864273,0.06337859105337566
0.002211712360816747,0.06337859105337566
0.002211712360816747,0.06340526554455973
0.0022133314767470665,0.06340526554455973
0.0022133314767470665,0.06348528901811198
0.002214950592677386,0.06348528901811198
0.002214950592677386,0.06351196350929605
0.002216569708607706,0.06351196350929605
0.002216569708607706,0.06353863800048014
0.002218188824538026,0.06353863800048014
0.002218188824538026,0.06364533596521646
0.0022198079404683454,0.06364533596521646
0.0022198079404683454,0.06369868494758463
0.002223046172328985,0.06369868494758463
0.002223046172328985,0.06372535943876871
0.0022246652882593047,0.06372535943876871
0.0022246652882593047,0.06377870842113686
0.0022262844041896243,0.06377870842113686
0.0022262844041896243,0.06380538291232095
0.002227903520119944,0.06380538291232095
0.002227903520119944,0.06383205740350503
0.002229522636050264,0.06383205740350503
0.002229522636050264,0.06393875536824135
0.0022311417519805836,0.06393875536824135
0.0022311417519805836,0.06396542985942544
0.002235999099771543,0.06396542985942544
0.002235999099771543,0.06399210435060951
0.0022376182157018624,0.06399210435060951
0.0022376182157018624,0.06407212782416176
0.002239237331632182,0.06407212782416176
0.002239237331632182,0.06409880231534583
0.002240856447562502,0.06409880231534583
0.002240856447562502,0.06423217477126623
0.0022424755634928217,0.06423217477126623
0.0022424755634928217,0.06425884926245032
0.002247332911283781,0.06425884926245032
0.002247332911283781,0.06433887273600256
0.00225057114314442,0.06433887273600256
0.00225057114314442,0.06441889620955481
0.00225219025907474,0.06441889620955481
0.00225219025907474,0.06447224519192296
0.00225380937500506,0.06447224519192296
0.00225380937500506,0.06465896663021153
0.002257047606865699,0.06465896663021153
0.002257047606865699,0.06500573501560458
0.002258666722796019,0.06500573501560458
0.002258666722796019,0.06505908399797274
0.0022602858387263387,0.06505908399797274
0.0022602858387263387,0.06513910747152499
0.002263524070586978,0.06513910747152499
0.002263524070586978,0.06521913094507722
0.002265143186517298,0.06521913094507722
0.002265143186517298,0.06527247992744538
0.0022667623024476176,0.06527247992744538
0.0022667623024476176,0.0653791778921817
0.002270000534308257,0.0653791778921817
0.002270000534308257,0.06540585238336578
0.002271619650238577,0.06540585238336578
0.002271619650238577,0.06545920136573395
0.002276476998029536,0.06545920136573395
0.002276476998029536,0.06561924831283843
0.0022780961139598557,0.06561924831283843
0.0022780961139598557,0.0656725972952066
0.0022797152298901753,0.0656725972952066
0.0022797152298901753,0.06569927178639068
0.002282953461750815,0.06569927178639068
0.002282953461750815,0.06575262076875883
0.002289429925472094,0.06575262076875883
0.002289429925472094,0.06583264424231108
0.0022910490414024135,0.06583264424231108
0.0022910490414024135,0.06588599322467924
0.002292668157332733,0.06588599322467924
0.002292668157332733,0.06591266771586332
0.0022942872732630527,0.06591266771586332
0.0022942872732630527,0.06604604017178373
0.0022959063891933727,0.06604604017178373
0.0022959063891933727,0.06615273813652005
0.0022975255051236924,0.06615273813652005
0.0022975255051236924,0.0662060871188882
0.002300763736984332,0.0662060871188882
0.002300763736984332,0.06628611059244045
0.0023040019688449712,0.06628611059244045
0.0023040019688449712,0.06644615753954493
0.002307240200705611,0.06644615753954493
0.002307240200705611,0.06647283203072901
0.0023088593166359305,0.06647283203072901
0.0023088593166359305,0.0664995065219131
0.00231047843256625,0.0664995065219131
0.00231047843256625,0.06652618101309718
0.0023120975484965697,0.06652618101309718
0.0023120975484965697,0.0666328789778335
0.0023153357803572094,0.0666328789778335
0.0023153357803572094,0.06665955346901759
0.002316954896287529,0.06665955346901759
0.002316954896287529,0.0670329963455947
0.002318574012217849,0.0670329963455947
0.002318574012217849,0.06708634532796287
0.002323431360008808,0.06708634532796287
0.002323431360008808,0.06716636880151511
0.002325050475939128,0.06716636880151511
0.002325050475939128,0.06719304329269919
0.0023266695918694475,0.06719304329269919
0.0023266695918694475,0.06727306676625143
0.002328288707799767,0.06727306676625143
0.002328288707799767,0.0673264157486196
0.0023299078237300867,0.0673264157486196
0.0023299078237300867,0.06735309023980368
0.0023315269396604068,0.06735309023980368
0.0023315269396604068,0.06751313718690816
0.0023331460555907264,0.06751313718690816
0.0023331460555907264,0.06756648616927632
0.002334765171521046,0.06756648616927632
0.002334765171521046,0.06759316066046041
0.0023363842874513656,0.06759316066046041
0.0023363842874513656,0.06764650964282856
0.0023380034033816856,0.06764650964282856
0.0023380034033816856,0.06769985862519673
0.0023396225193120053,0.06769985862519673
0.0023396225193120053,0.0677265331163808
0.0023444798671029645,0.0677265331163808
0.0023444798671029645,0.06777988209874897
0.002346098983033284,0.06777988209874897
0.002346098983033284,0.06783323108111713
0.002349337214893924,0.06783323108111713
0.002349337214893924,0.06788658006348529
0.002352575446754563,0.06788658006348529
0.002352575446754563,0.06793992904585346
0.0023541945626848826,0.06793992904585346
0.0023541945626848826,0.06796660353703753
0.0023558136786152027,0.06796660353703753
0.0023558136786152027,0.06799327802822161
0.0023574327945455223,0.06799327802822161
0.0023574327945455223,0.06809997599295793
0.0023606710264061615,0.06809997599295793
0.0023606710264061615,0.06823334844887834
0.0023622901423364815,0.06823334844887834
0.0023622901423364815,0.06826002294006242
0.0023655283741971208,0.06826002294006242
0.0023655283741971208,0.0682866974312465
0.002367147490127441,0.0682866974312465
0.002367147490127441,0.06834004641361466
0.0023687666060577604,0.06834004641361466
0.0023687666060577604,0.0684200698871669
0.00237038572198808,0.0684200698871669
0.00237038572198808,0.06844674437835098
0.0023720048379183996,0.06844674437835098
0.0023720048379183996,0.06858011683427138
0.0023736239538487197,0.06858011683427138
0.0023736239538487197,0.06871348929019179
0.002376862185709359,0.06871348929019179
0.002376862185709359,0.0688468617461122
0.0023784813016396785,0.0688468617461122
0.0023784813016396785,0.06887353623729628
0.0023801004175699986,0.06887353623729628
0.0023801004175699986,0.06900690869321667
0.002384957765360958,0.06900690869321667
0.002384957765360958,0.069113606657953
0.0023865768812912774,0.069113606657953
0.0023865768812912774,0.06932700258742565
0.0023898151131519167,0.06932700258742565
0.0023898151131519167,0.06946037504334605
0.0023914342290822367,0.06946037504334605
0.0023914342290822367,0.06951372402571421
0.0023930533450125563,0.06951372402571421
0.0023930533450125563,0.06956707300808238
0.002394672460942876,0.06956707300808238
0.002394672460942876,0.06959374749926645
0.0023962915768731955,0.06959374749926645
0.0023962915768731955,0.06964709648163461
0.002406006272455114,0.06964709648163461
0.002406006272455114,0.0696737709728187
0.0024076253883854337,0.0696737709728187
0.0024076253883854337,0.06970044546400278
0.0024092445043157537,0.06970044546400278
0.0024092445043157537,0.06983381791992317
0.0024108636202460733,0.06983381791992317
0.0024108636202460733,0.06991384139347542
0.0024157209680370326,0.06991384139347542
0.0024157209680370326,0.06996719037584358
0.002417340083967352,0.06996719037584358
0.002417340083967352,0.07002053935821174
0.0024205783158279914,0.07002053935821174
0.0024205783158279914,0.07010056283176398
0.0024221974317583115,0.07010056283176398
0.0024221974317583115,0.07012723732294807
0.002423816547688631,0.07012723732294807
0.002423816547688631,0.07026060977886847
0.0024254356636189507,0.07026060977886847
0.0024254356636189507,0.07036730774360479
0.0024270547795492703,0.07036730774360479
0.0024270547795492703,0.07039398223478888
0.0024286738954795903,0.07039398223478888
0.0024286738954795903,0.07044733121715703
0.002436769475131189,0.07044733121715703
0.002436769475131189,0.07047400570834111
0.0024383885910615084,0.07047400570834111
0.0024383885910615084,0.0705006801995252
0.0024400077069918285,0.0705006801995252
0.0024400077069918285,0.0706340526554456
0.002441626822922148,0.0706340526554456
0.002441626822922148,0.07071407612899784
0.0024432459388524677,0.07071407612899784
0.0024432459388524677,0.07082077409373416
0.0024464841707131074,0.07082077409373416
0.0024464841707131074,0.07122089146149538
0.002448103286643427,0.07122089146149538
0.002448103286643427,0.07124756595267945
0.0024497224025737466,0.07124756595267945
0.0024497224025737466,0.07130091493504762
0.0024513415185040666,0.07130091493504762
0.0024513415185040666,0.07135426391741577
0.0024529606344343862,0.07135426391741577
0.0024529606344343862,0.0714609618821521
0.002454579750364706,0.0714609618821521
0.002454579750364706,0.07148763637333617
0.0024561988662950254,0.07148763637333617
0.0024561988662950254,0.07167435781162475
0.002459437098155665,0.07167435781162475
0.002459437098155665,0.0717277067939929
0.0024626753300163043,0.0717277067939929
0.0024626753300163043,0.07175438128517699
0.0024642944459466244,0.07175438128517699
0.0024642944459466244,0.07178105577636107
0.002465913561876944,0.07178105577636107
0.002465913561876944,0.07180773026754515
0.0024675326778072636,0.07180773026754515
0.0024675326778072636,0.0718610792499133
0.002472390025598223,0.0718610792499133
0.002472390025598223,0.07194110272346554
0.0024740091415285425,0.07194110272346554
0.0024740091415285425,0.07196777721464963
0.0024756282574588625,0.07196777721464963
0.0024756282574588625,0.0720211261970178
0.002477247373389182,0.0720211261970178
0.002477247373389182,0.07204780068820187
0.0024788664893195017,0.07204780068820187
0.0024788664893195017,0.07226119661767452
0.0024804856052498213,0.07226119661767452
0.0024804856052498213,0.07236789458241084
0.0024821047211801414,0.07236789458241084
0.0024821047211801414,0.07250126703833125
0.002483723837110461,0.07250126703833125
0.002483723837110461,0.0725546160206994
0.0024869620689711,0.0725546160206994
0.0024869620689711,0.07258129051188349
0.0024885811849014203,0.07258129051188349
0.0024885811849014203,0.07271466296780389
0.00249020030083174,0.07271466296780389
0.00249020030083174,0.07282136093254021
0.0024918194167620595,0.07282136093254021
0.0024918194167620595,0.07295473338846062
0.0024966767645530187,0.07295473338846062
0.0024966767645530187,0.07303475686201286
0.0025096296919955765,0.07303475686201286
0.0025096296919955765,0.07316812931793326
0.0025161061557168554,0.07316812931793326
0.0025161061557168554,0.07327482728266958
0.0025242017353684543,0.07327482728266958
0.0025242017353684543,0.07330150177385367
0.002525820851298774,0.07330150177385367
0.002525820851298774,0.07332817626503775
0.0025274399672290935,0.07332817626503775
0.0025274399672290935,0.0733815252474059
0.002529059083159413,0.0733815252474059
0.002529059083159413,0.0735415721945104
0.002530678199089733,0.0735415721945104
0.002530678199089733,0.07356824668569448
0.0025322973150200528,0.07356824668569448
0.0025322973150200528,0.07359492117687855
0.0025339164309503724,0.07359492117687855
0.0025339164309503724,0.0736749446504308
0.002535535546880692,0.0736749446504308
0.002535535546880692,0.07378164261516712
0.002537154662811012,0.07378164261516712
0.002537154662811012,0.07380831710635119
0.0025387737787413316,0.07380831710635119
0.0025387737787413316,0.07383499159753527
0.0025403928946716513,0.07383499159753527
0.0025403928946716513,0.07391501507108753
0.0025420120106019713,0.07391501507108753
0.0025420120106019713,0.07399503854463976
0.002543631126532291,0.07399503854463976
0.002543631126532291,0.07402171303582385
0.00254686935839293,0.07402171303582385
0.00254686935839293,0.07404838752700792
0.00254848847432325,0.07404838752700792
0.00254848847432325,0.074075062018192
0.00255010759025357,0.074075062018192
0.00255010759025357,0.07415508549174424
0.0025517267061838894,0.07415508549174424
0.0025517267061838894,0.07418175998292832
0.002553345822114209,0.07418175998292832
0.002553345822114209,0.07426178345648057
0.002554964938044529,0.07426178345648057
0.002554964938044529,0.07428845794766464
0.0025565840539748487,0.07428845794766464
0.0025565840539748487,0.0743684814212169
0.0025598222858354883,0.0743684814212169
0.0025598222858354883,0.07444850489476913
0.002561441401765808,0.07444850489476913
0.002561441401765808,0.0745018538771373
0.0025630605176961275,0.0745018538771373
0.0025630605176961275,0.07455520285950545
0.002564679633626447,0.07455520285950545
0.002564679633626447,0.07458187735068954
0.0025695369814174064,0.07458187735068954
0.0025695369814174064,0.07466190082424178
0.002572775213278046,0.07466190082424178
0.002572775213278046,0.07474192429779401
0.0025760134451386853,0.07474192429779401
0.0025760134451386853,0.07479527328016218
0.002577632561069005,0.07479527328016218
0.002577632561069005,0.07484862226253035
0.002579251676999325,0.07484862226253035
0.002579251676999325,0.07487529675371442
0.002582489908859964,0.07487529675371442
0.002582489908859964,0.0749019712448985
0.002584109024790284,0.0749019712448985
0.002584109024790284,0.07495532022726667
0.002588966372581243,0.07495532022726667
0.002588966372581243,0.07498199471845074
0.002590585488511563,0.07498199471845074
0.002590585488511563,0.07503534370081891
0.0025922046044418827,0.07503534370081891
0.0025922046044418827,0.07516871615673931
0.002595442836302522,0.07516871615673931
0.002595442836302522,0.07527541412147563
0.002597061952232842,0.07527541412147563
0.002597061952232842,0.07532876310384379
0.0025986810681631616,0.07532876310384379
0.0025986810681631616,0.07535543759502787
0.002601919300023801,0.07535543759502787
0.002601919300023801,0.07543546106858012
0.002603538415954121,0.07543546106858012
0.002603538415954121,0.07546213555976419
0.00260677664781476,0.07546213555976419
0.00260677664781476,0.07554215903331644
0.00260839576374508,0.07554215903331644
0.00260839576374508,0.07556883352450051
0.0026116339956057193,0.07556883352450051
0.0026116339956057193,0.07578222945397317
0.002613253111536039,0.07578222945397317
0.002613253111536039,0.07580890394515724
0.002614872227466359,0.07580890394515724
0.002614872227466359,0.07583557843634132
0.0026164913433966786,0.07583557843634132
0.0026164913433966786,0.07586225292752541
0.002618110459326998,0.07586225292752541
0.002618110459326998,0.07588892741870949
0.002619729575257318,0.07588892741870949
0.002619729575257318,0.07594227640107765
0.002621348691187638,0.07594227640107765
0.002621348691187638,0.07596895089226173
0.002624586923048277,0.07596895089226173
0.002624586923048277,0.0760222998746299
0.0026294442708392363,0.0760222998746299
0.0026294442708392363,0.07604897436581397
0.002631063386769556,0.07604897436581397
0.002631063386769556,0.07607564885699805
0.0026343016186301956,0.07607564885699805
0.0026343016186301956,0.07610232334818214
0.002637539850490835,0.07610232334818214
0.002637539850490835,0.07615567233055029
0.002639158966421155,0.07615567233055029
0.002639158966421155,0.07618234682173437
0.0026407780823514745,0.07618234682173437
0.0026407780823514745,0.07623569580410254
0.0026456354301424337,0.07623569580410254
0.0026456354301424337,0.07631571927765478
0.002655350125724352,0.07631571927765478
0.002655350125724352,0.07636906826002295
0.002656969241654672,0.07636906826002295
0.002656969241654672,0.07652911520712742
0.0026585883575849915,0.07652911520712742
0.0026585883575849915,0.07658246418949559
0.0026618265894456307,0.07658246418949559
0.0026618265894456307,0.07679586011896823
0.0026634457053759508,0.07679586011896823
0.0026634457053759508,0.07684920910133639
0.0026650648213062704,0.07684920910133639
0.0026650648213062704,0.07695590706607272
0.00266668393723659,0.07695590706607272
0.00266668393723659,0.07727600096028168
0.0026699221690972296,0.07727600096028168
0.0026699221690972296,0.077382698925018
0.0026715412850275492,0.077382698925018
0.0026715412850275492,0.07740937341620209
0.002673160400957869,0.07740937341620209
0.002673160400957869,0.07746272239857024
0.0026763986328185085,0.07746272239857024
0.0026763986328185085,0.07772946731041105
0.002678017748748828,0.07772946731041105
0.002678017748748828,0.07775614180159514
0.0026796368646791477,0.07775614180159514
0.0026796368646791477,0.07778281629277922
0.0026828750965397874,0.07778281629277922
0.0026828750965397874,0.07780949078396329
0.002684494212470107,0.07780949078396329
0.002684494212470107,0.07786283976633146
0.0026861133284004266,0.07786283976633146
0.0026861133284004266,0.07799621222225187
0.002690970676191386,0.07799621222225187
0.002690970676191386,0.07820960815172451
0.0026942089080520255,0.07820960815172451
0.0026942089080520255,0.07836965509882898
0.002695828023982345,0.07836965509882898
0.002695828023982345,0.07839632959001307
0.0026974471399126647,0.07839632959001307
0.0026974471399126647,0.07852970204593347
0.002699066255842985,0.07852970204593347
0.002699066255842985,0.07855637653711756
0.0027039236036339436,0.07855637653711756
0.0027039236036339436,0.0786364000106698
0.0027055427195642637,0.0786364000106698
0.0027055427195642637,0.07874309797540611
0.0027071618354945833,0.07874309797540611
0.0027071618354945833,0.0787697724665902
0.002716876531076502,0.0787697724665902
0.002716876531076502,0.07884979594014244
0.0027184956470068214,0.07884979594014244
0.0027184956470068214,0.0789031449225106
0.002720114762937141,0.0789031449225106
0.002720114762937141,0.07898316839606284
0.0027217338788674606,0.07898316839606284
0.0027217338788674606,0.0790631918696151
0.0027233529947977807,0.0790631918696151
0.0027233529947977807,0.07922323881671957
0.00272659122665842,0.07922323881671957
0.00272659122665842,0.07924991330790365
0.0027298294585190595,0.07924991330790365
0.0027298294585190595,0.07927658779908774
0.002731448574449379,0.07927658779908774
0.002731448574449379,0.07932993678145589
0.0027330676903796988,0.07932993678145589
0.0027330676903796988,0.07943663474619221
0.002734686806310019,0.07943663474619221
0.002734686806310019,0.0794633092373763
0.0027363059222403384,0.0794633092373763
0.0027363059222403384,0.07948998372856038
0.002737925038170658,0.07948998372856038
0.002737925038170658,0.07951665821974446
0.0027395441541009776,0.07951665821974446
0.0027395441541009776,0.07954333271092853
0.0027411632700312977,0.07954333271092853
0.0027411632700312977,0.07957000720211262
0.002744401501891937,0.07957000720211262
0.002744401501891937,0.07975672864040119
0.0027460206178222565,0.07975672864040119
0.0027460206178222565,0.07978340313158526
0.002749258849682896,0.07978340313158526
0.002749258849682896,0.07989010109632158
0.0027524970815435354,0.07989010109632158
0.0027524970815435354,0.07994345007868975
0.002755735313404175,0.07994345007868975
0.002755735313404175,0.07997012456987383
0.0027573544293344947,0.07997012456987383
0.0027573544293344947,0.08005014804342607
0.0027605926611951343,0.08005014804342607
0.0027605926611951343,0.08007682253461015
0.002762211777125454,0.08007682253461015
0.002762211777125454,0.08013017151697831
0.0027638308930557735,0.08013017151697831
0.0027638308930557735,0.08015684600816239
0.002767069124916413,0.08015684600816239
0.002767069124916413,0.08021019499053056
0.0027703073567770524,0.08021019499053056
0.0027703073567770524,0.0802902184640828
0.0027751647045680117,0.0802902184640828
0.0027751647045680117,0.08039691642881912
0.0027767838204983313,0.08039691642881912
0.0027767838204983313,0.0804235909200032
0.002780022052358971,0.0804235909200032
0.002780022052358971,0.08047693990237136
0.0027816411682892906,0.08047693990237136
0.0027816411682892906,0.08055696337592361
0.0027832602842196106,0.08055696337592361
0.0027832602842196106,0.08061031235829176
0.00278487940014993,0.08061031235829176
0.00278487940014993,0.08063698684947584
0.00278649851608025,0.08063698684947584
0.00278649851608025,0.08069033583184401
0.0027897367479408895,0.08069033583184401
0.0027897367479408895,0.08074368481421217
0.002791355863871209,0.08074368481421217
0.002791355863871209,0.08077035930539625
0.0027994514435228076,0.08077035930539625
0.0027994514435228076,0.08079703379658033
0.0028010705594531276,0.08079703379658033
0.0028010705594531276,0.08087705727013257
0.002804308791313767,0.08087705727013257
0.002804308791313767,0.08090373176131666
0.0028059279072440864,0.08090373176131666
0.0028059279072440864,0.08106377870842113
0.0028075470231744065,0.08106377870842113
0.0028075470231744065,0.0812505001467097
0.002809166139104726,0.0812505001467097
0.002809166139104726,0.08133052362026194
0.0028107852550350457,0.08133052362026194
0.0028107852550350457,0.08141054709381419
0.0028140234868956854,0.08141054709381419
0.0028140234868956854,0.08143722158499826
0.0028172617187563246,0.08143722158499826
0.0028172617187563246,0.08149057056736643
0.0028204999506169642,0.08149057056736643
0.0028204999506169642,0.08162394302328684
0.0028237381824776035,0.08162394302328684
0.0028237381824776035,0.0816506175144709
0.0028253572984079235,0.0816506175144709
0.0028253572984079235,0.08170396649683907
0.002826976414338243,0.08170396649683907
0.002826976414338243,0.08173064098802316
0.0028285955302685627,0.08173064098802316
0.0028285955302685627,0.08178398997039131
0.0028302146461988823,0.08178398997039131
0.0028302146461988823,0.0818106644615754
0.0028318337621292024,0.0818106644615754
0.0028318337621292024,0.08197071140867988
0.002833452878059522,0.08197071140867988
0.002833452878059522,0.08199738589986395
0.0028350719939898416,0.08199738589986395
0.0028350719939898416,0.08215743284696844
0.0028383102258504813,0.08215743284696844
0.0028383102258504813,0.08221078182933661
0.00284478668957176,0.08221078182933661
0.00284478668957176,0.08226413081170476
0.0028464058055020797,0.08226413081170476
0.0028464058055020797,0.08231747979407293
0.0028480249214323993,0.08231747979407293
0.0028480249214323993,0.08237082877644109
0.0028496440373627194,0.08237082877644109
0.0028496440373627194,0.0824775267411774
0.0028561205010839983,0.0824775267411774
0.0028561205010839983,0.08261089919709781
0.002857739617014318,0.08261089919709781
0.002857739617014318,0.0827709461442023
0.0028593587329446375,0.0827709461442023
0.0028593587329446375,0.08279762063538638
0.0028642160807355968,0.08279762063538638
0.0028642160807355968,0.08282429512657045
0.0028658351966659164,0.08282429512657045
0.0028658351966659164,0.08285096961775454
0.0028674543125962364,0.08285096961775454
0.0028674543125962364,0.08295766758249086
0.002869073428526556,0.08295766758249086
0.002869073428526556,0.08298434207367494
0.0028706925444568756,0.08298434207367494
0.0028706925444568756,0.08301101656485903
0.0028739307763175153,0.08301101656485903
0.0028739307763175153,0.08327776147669984
0.002875549892247835,0.08327776147669984
0.002875549892247835,0.08333111045906799
0.0028771690081781545,0.08333111045906799
0.0028771690081781545,0.0834644829149884
0.002878788124108474,0.0834644829149884
0.002878788124108474,0.08351783189735656
0.002880407240038794,0.08351783189735656
0.002880407240038794,0.08354450638854063
0.002886883703760073,0.08354450638854063
0.002886883703760073,0.0835978553709088
0.0028885028196903926,0.0835978553709088
0.0028885028196903926,0.08362452986209289
0.002893360167481352,0.08362452986209289
0.002893360167481352,0.08370455333564512
0.0028949792834116715,0.08370455333564512
0.0028949792834116715,0.08378457680919736
0.002896598399341991,0.08378457680919736
0.002896598399341991,0.08386460028274961
0.002898217515272311,0.08386460028274961
0.002898217515272311,0.08391794926511777
0.0029014557471329504,0.08391794926511777
0.0029014557471329504,0.08402464722985409
0.00290307486306327,0.08405132172103817
0.00290307486306327,0.08407799621222226
0.00290469397899359,0.08407799621222226
0.00290469397899359,0.08410467070340633
0.0029079322108542293,0.08410467070340633
0.0029079322108542293,0.0841580196857745
0.002911170442714869,0.0841580196857745
0.002911170442714869,0.08421136866814266
0.0029127895586451885,0.08421136866814266
0.0029127895586451885,0.08426471765051081
0.002914408674575508,0.08426471765051081
0.002914408674575508,0.08445143908879939
0.002917646906436148,0.08445143908879939
0.002917646906436148,0.08447811357998346
0.0029192660223664674,0.08447811357998346
0.0029192660223664674,0.08453146256235163
0.002922504254227107,0.08453146256235163
0.002922504254227107,0.08461148603590386
0.0029241233701574267,0.08461148603590386
0.0029241233701574267,0.08463816052708795
0.0029257424860877463,0.08463816052708795
0.0029257424860877463,0.08466483501827203
0.002927361602018066,0.08466483501827203
0.002927361602018066,0.08474485849182427
0.002928980717948386,0.08474485849182427
0.002928980717948386,0.08477153298300835
0.002932218949809025,0.08477153298300835
0.002932218949809025,0.08487823094774467
0.002933838065739345,0.08487823094774467
0.002933838065739345,0.08490490543892876
0.0029370762975999844,0.08490490543892876
0.0029370762975999844,0.08493157993011283
0.002938695413530304,0.08493157993011283
0.002938695413530304,0.08495825442129691
0.0029419336453909437,0.08495825442129691
0.0029419336453909437,0.0851183013684014
0.002945171877251583,0.0851183013684014
0.002945171877251583,0.08514497585958548
0.002946790993181903,0.08514497585958548
0.002946790993181903,0.08519832484195364
0.002950029225042542,0.08519832484195364
0.002950029225042542,0.0852516738243218
0.002953267456903182,0.0852516738243218
0.002953267456903182,0.08546506975379445
0.0029548865728335014,0.08546506975379445
0.0029548865728335014,0.0855184187361626
0.002956505688763821,0.0855184187361626
0.002956505688763821,0.08554509322734669
0.002958124804694141,0.08554509322734669
0.002958124804694141,0.08573181466563526
0.0029597439206244607,0.08573181466563526
0.0029597439206244607,0.0858118381391875
0.0029629821524851,0.0858118381391875
0.0029629821524851,0.08583851263037158
0.002971077732136699,0.08583851263037158
0.002971077732136699,0.08589186161273973
0.0029726968480670185,0.08589186161273973
0.0029726968480670185,0.08591853610392382
0.002974315963997338,0.08591853610392382
0.002974315963997338,0.08597188508629199
0.002975935079927658,0.08597188508629199
0.002975935079927658,0.08599855957747606
0.0029775541958579777,0.08599855957747606
0.0029775541958579777,0.08602523406866014
0.002985649775509576,0.08602523406866014
0.002985649775509576,0.08618528101576463
0.002987268891439896,0.08618528101576463
0.002987268891439896,0.0862119555069487
0.002992126239230855,0.0862119555069487
0.002992126239230855,0.08623862999813278
0.0029937453551611747,0.08623862999813278
0.0029937453551611747,0.08626530448931687
0.0029953644710914947,0.08626530448931687
0.0029953644710914947,0.0863453279628691
0.003000221818882454,0.0863453279628691
0.003000221818882454,0.08637200245405319
0.0030018409348127736,0.08637200245405319
0.0030018409348127736,0.08645202592760542
0.003005079166673413,0.08645202592760542
0.003005079166673413,0.08647870041878951
0.003006698282603733,0.08647870041878951
0.003006698282603733,0.08650537490997359
0.0030083173985340525,0.08650537490997359
0.0030083173985340525,0.086638747365894
0.003009936514464372,0.086638747365894
0.003009936514464372,0.08666542185707808
0.0030131747463250117,0.08666542185707808
0.0030131747463250117,0.08669209634826215
0.0030147938622553314,0.08669209634826215
0.0030147938622553314,0.08674544533063032
0.003016412978185651,0.08674544533063032
0.003016412978185651,0.08682546880418256
0.0030196512100462906,0.08682546880418256
0.0030196512100462906,0.08687881778655072
0.00302288944190693,0.08687881778655072
0.00302288944190693,0.08701219024247113
0.0030261276737675695,0.08701219024247113
0.0030261276737675695,0.08709221371602337
0.003027746789697889,0.08709221371602337
0.003027746789697889,0.08725226066312786
0.0030309850215585288,0.08725226066312786
0.0030309850215585288,0.08735895862786418
0.0030326041374888484,0.08735895862786418
0.0030326041374888484,0.08741230761023233
0.003034223253419168,0.08741230761023233
0.003034223253419168,0.08751900557496865
0.0030358423693494876,0.08751900557496865
0.0030358423693494876,0.08754568006615274
0.003040699717140447,0.08754568006615274
0.003040699717140447,0.08765237803088906
0.003045557064931406,0.08765237803088906
0.003045557064931406,0.08775907599562538
0.0030487952967920458,0.08775907599562538
0.0030487952967920458,0.08783909946917763
0.003063367340164923,0.08783909946917763
0.003063367340164923,0.0878657739603617
0.003066605572025563,0.0878657739603617
0.003066605572025563,0.08789244845154578
0.003069843803886202,0.08789244845154578
0.003069843803886202,0.08794579743391395
0.0030714629198165216,0.08794579743391395
0.0030714629198165216,0.0879991464162821
0.0030730820357468417,0.0879991464162821
0.0030730820357468417,0.08802582090746619
0.0030747011516771613,0.08802582090746619
0.0030747011516771613,0.08818586785457068
0.003076320267607481,0.08818586785457068
0.003076320267607481,0.08826589132812292
0.00308117761539844,0.08826589132812292
0.00308117761539844,0.08831924031049107
0.0030827967313287598,0.08831924031049107
0.0030827967313287598,0.08834591480167515
0.0030860349631893994,0.08834591480167515
0.0030860349631893994,0.08837258929285924
0.003087654079119719,0.08837258929285924
0.003087654079119719,0.08839926378404332
0.0030892731950500386,0.08839926378404332
0.0030892731950500386,0.0884259382752274
0.0030908923109803587,0.0884259382752274
0.0030908923109803587,0.08847928725759556
0.0030908923109803587,0.08850596174877964
0.0030973687747016376,0.08850596174877964
0.0030973687747016376,0.08861265971351596
0.003098987890631957,0.08861265971351596
0.003098987890631957,0.08863933420470005
0.0031006070065622768,0.08863933420470005
0.0031006070065622768,0.08874603216943637
0.0031022261224925964,0.08874603216943637
0.0031022261224925964,0.08882605564298861
0.0031038452384229164,0.08882605564298861
0.0031038452384229164,0.08890607911654085
0.003105464354353236,0.08890607911654085
0.003105464354353236,0.08895942809890901
0.0031070834702835557,0.08895942809890901
0.0031070834702835557,0.0889861025900931
0.0031087025862138757,0.0889861025900931
0.0031087025862138757,0.08906612606364533
0.0031103217021441953,0.08906612606364533
0.0031103217021441953,0.08909280055482942
0.0031135599340048345,0.08909280055482942
0.0031135599340048345,0.08925284750193391
0.0031151790499351546,0.08925284750193391
0.0031151790499351546,0.08933287097548614
0.003116798165865474,0.08933287097548614
0.003116798165865474,0.0893862199578543
0.003118417281795794,0.0893862199578543
0.003118417281795794,0.08965296486969511
0.0031265128614473923,0.08965296486969511
0.0031265128614473923,0.08970631385206328
0.0031281319773777123,0.08970631385206328
0.0031281319773777123,0.08986636079916775
0.003129751093308032,0.08986636079916775
0.003129751093308032,0.08994638427272
0.0031329893251686716,0.08994638427272
0.0031329893251686716,0.09002640774627224
0.003134608441098991,0.09002640774627224
0.003134608441098991,0.09013310571100856
0.003136227557029311,0.09013310571100856
0.003136227557029311,0.09015978020219265
0.0031394657888899505,0.09015978020219265
0.0031394657888899505,0.0902131291845608
0.00314108490482027,0.0902131291845608
0.00314108490482027,0.09023980367574488
0.0031427040207505897,0.09023980367574488
0.0031427040207505897,0.09037317613166529
0.0031443231366809093,0.09037317613166529
0.0031443231366809093,0.09042652511403344
0.003152418716332508,0.09042652511403344
0.003152418716332508,0.09058657206113793
0.003154037832262828,0.09058657206113793
0.003154037832262828,0.0906399210435061
0.0031556569481931474,0.0906399210435061
0.0031556569481931474,0.09069327002587425
0.0031572760641234675,0.09069327002587425
0.0031572760641234675,0.09082664248179466
0.003158895180053787,0.09082664248179466
0.003158895180053787,0.09085331697297874
0.0031605142959841067,0.09085331697297874
0.0031605142959841067,0.09087999146416283
0.003165371643775066,0.09087999146416283
0.003165371643775066,0.09098668942889915
0.0031669907597053856,0.09098668942889915
0.0031669907597053856,0.0910400384112673
0.003168609875635705,0.0910400384112673
0.003168609875635705,0.09125343434073994
0.0031702289915660252,0.09125343434073994
0.0031702289915660252,0.0913334578142922
0.003171848107496345,0.0913334578142922
0.003171848107496345,0.09165355170850116
0.0031734672234266645,0.09165355170850116
0.0031734672234266645,0.0917335751820534
0.0031750863393569845,0.0917335751820534
0.0031750863393569845,0.09184027314678972
0.003176705455287304,0.09184027314678972
0.003176705455287304,0.0918669476379738
0.0031799436871479433,0.0918669476379738
0.0031799436871479433,0.09194697111152604
0.0031799436871479433,0.09200032009389421
0.0031815628030782634,0.09200032009389421
0.0031815628030782634,0.09202699458507829
0.003183181919008583,0.09202699458507829
0.003183181919008583,0.09210701805863053
0.0031848010349389026,0.09210701805863053
0.0031848010349389026,0.09221371602336685
0.003186420150869222,0.09221371602336685
0.003186420150869222,0.0924271119528395
0.0031880392667995422,0.0924271119528395
0.0031880392667995422,0.09245378644402358
0.003189658382729862,0.09245378644402358
0.003189658382729862,0.09248046093520766
0.0031928966145905015,0.09248046093520766
0.0031928966145905015,0.09250713542639175
0.0031961348464511407,0.09250713542639175
0.0031961348464511407,0.0925604844087599
0.0031977539623814603,0.0925604844087599
0.0031977539623814603,0.09258715889994398
0.0032026113101724196,0.09258715889994398
0.0032026113101724196,0.09264050788231215
0.0032058495420330593,0.09264050788231215
0.0032058495420330593,0.0926938568646803
0.0032090877738936985,0.0926938568646803
0.0032090877738936985,0.09277388033823254
0.003210706889824018,0.09277388033823254
0.003210706889824018,0.09288057830296888
0.003212326005754338,0.09288057830296888
0.003212326005754338,0.09290725279415295
0.0032155642376149774,0.09290725279415295
0.0032155642376149774,0.09293392728533703
0.003218802469475617,0.09293392728533703
0.003218802469475617,0.0929872762677052
0.0032220407013362562,0.0929872762677052
0.0032220407013362562,0.09301395075888927
0.0032236598172665763,0.09301395075888927
0.0032236598172665763,0.09304062525007335
0.0032268980491272155,0.09304062525007335
0.0032268980491272155,0.09309397423244152
0.003230136280987855,0.09309397423244152
0.003230136280987855,0.09312064872362559
0.003236612744709134,0.09312064872362559
0.003236612744709134,0.09320067219717784
0.0032398509765697732,0.09320067219717784
0.0032398509765697732,0.09322734668836193
0.0032414700925000933,0.09322734668836193
0.0032414700925000933,0.093254021179546
0.003246327440291052,0.093254021179546
0.003246327440291052,0.09333404465309825
0.003247946556221372,0.09336071914428232
0.003247946556221372,0.09341406812665048
0.0032495656721516918,0.09341406812665048
0.0032495656721516918,0.09344074261783457
0.003252803904012331,0.09344074261783457
0.003252803904012331,0.09354744058257089
0.0032560421358729707,0.09354744058257089
0.0032560421358729707,0.09360078956493904
0.00326089948366393,0.09360078956493904
0.00326089948366393,0.09378751100322762
0.0032625185995942495,0.09378751100322762
0.0032625185995942495,0.09386753447677985
0.003267375947385209,0.09386753447677985
0.003267375947385209,0.09392088345914802
0.0032689950633155284,0.09392088345914802
0.0032689950633155284,0.09397423244151618
0.003270614179245848,0.09397423244151618
0.003270614179245848,0.0940809304062525
0.003272233295176168,0.0940809304062525
0.003272233295176168,0.09410760489743658
0.0032754715270368073,0.09410760489743658
0.0032754715270368073,0.09424097735335699
0.0032803288748277665,0.09424097735335699
0.0032803288748277665,0.09426765184454107
0.003281947990758086,0.09426765184454107
0.003281947990758086,0.09429432633572514
0.003283567106688406,0.09429432633572514
0.003283567106688406,0.09432100082690922
0.003285186222618726,0.09432100082690922
0.003285186222618726,0.09434767531809331
0.0032868053385490454,0.09434767531809331
0.0032868053385490454,0.09453439675638187
0.003290043570409685,0.09453439675638187
0.003290043570409685,0.09461442022993412
0.0032916626863400047,0.09461442022993412
0.0032916626863400047,0.09469444370348636
0.003294900918200644,0.09469444370348636
0.003294900918200644,0.0947744671770386
0.0033013773819219228,0.0947744671770386
0.0033013773819219228,0.09485449065059084
0.003302996497852243,0.09485449065059084
0.003302996497852243,0.09488116514177491
0.003306234729712882,0.09488116514177491
0.003306234729712882,0.094907839632959
0.003307853845643202,0.094907839632959
0.003307853845643202,0.09496118861532717
0.0033094729615735217,0.09496118861532717
0.0033094729615735217,0.09512123556243164
0.0033110920775038413,0.09512123556243164
0.0033110920775038413,0.09514791005361573
0.003314330309364481,0.09514791005361573
0.003314330309364481,0.09517458454479981
0.0033159494252948006,0.09517458454479981
0.0033159494252948006,0.09522793352716796
0.00331918765715544,0.09522793352716796
0.00331918765715544,0.09525460801835205
0.003325664120876719,0.09525460801835205
0.003325664120876719,0.09528128250953613
0.0033272832368070387,0.09528128250953613
0.0033272832368070387,0.09530795700072021
0.0033289023527373583,0.09530795700072021
0.0033289023527373583,0.09538798047427245
0.003332140584597998,0.09538798047427245
0.003332140584597998,0.09544132945664062
0.0033337597005283176,0.09544132945664062
0.0033337597005283176,0.09546800394782469
0.003335378816458637,0.09546800394782469
0.003335378816458637,0.09554802742137694
0.003336997932388957,0.09554802742137694
0.003336997932388957,0.09557470191256102
0.003338617048319277,0.09557470191256102
0.003338617048319277,0.09568139987729735
0.0033402361642495965,0.09568139987729735
0.0033402361642495965,0.09570807436848142
0.003341855280179916,0.09570807436848142
0.003341855280179916,0.09578809784203367
0.0033434743961102357,0.09578809784203367
0.0033434743961102357,0.09584144682440182
0.003348331743901195,0.09584144682440182
0.003348331743901195,0.09597481928032223
0.003349950859831515,0.09597481928032223
0.003349950859831515,0.09600149377150631
0.003353189091692154,0.09600149377150631
0.003353189091692154,0.09608151724505855
0.0033580464394831135,0.09608151724505855
0.0033580464394831135,0.09616154071861079
0.003359665555413433,0.09616154071861079
0.003359665555413433,0.09624156419216304
0.0033629037872740727,0.09624156419216304
0.0033629037872740727,0.09634826215689936
0.0033645229032043924,0.09634826215689936
0.0033645229032043924,0.09637493664808344
0.003366142019134712,0.09637493664808344
0.003366142019134712,0.09640161113926751
0.003367761135065032,0.09640161113926751
0.003367761135065032,0.09648163461281976
0.0033693802509953516,0.09648163461281976
0.0033693802509953516,0.09650830910400385
0.0033709993669256712,0.09650830910400385
0.0033709993669256712,0.096561658086372
0.003374237598786311,0.096561658086372
0.003374237598786311,0.09658833257755609
0.00337747583064695,0.09658833257755609
0.00337747583064695,0.09666835605110832
0.0033790949465772697,0.09666835605110832
0.0033790949465772697,0.09674837952466056
0.0033807140625075898,0.09674837952466056
0.0033807140625075898,0.09677505401584464
0.0033823331784379094,0.09677505401584464
0.0033823331784379094,0.09682840299821281
0.003383952294368229,0.09682840299821281
0.003383952294368229,0.0968550774893969
0.0033855714102985486,0.0968550774893969
0.0033855714102985486,0.09688175198058097
0.0033888096421591882,0.09688175198058097
0.0033888096421591882,0.09696177545413322
0.003390428758089508,0.09696177545413322
0.003390428758089508,0.09709514791005362
0.003392047874019828,0.09709514791005362
0.003392047874019828,0.09728186934834218
0.0033936669899501475,0.09728186934834218
0.0033936669899501475,0.09730854383952627
0.003395286105880467,0.09730854383952627
0.003395286105880467,0.09733521833071034
0.0033969052218107867,0.09733521833071034
0.0033969052218107867,0.09757528875136706
0.0033985243377411068,0.09757528875136706
0.0033985243377411068,0.09760196324255115
0.0034001434536714264,0.09760196324255115
0.0034001434536714264,0.09770866120728747
0.003401762569601746,0.09770866120728747
0.003401762569601746,0.09784203366320787
0.0034050008014623856,0.09784203366320787
0.0034050008014623856,0.09786870815439196
0.0034066199173927053,0.09786870815439196
0.0034066199173927053,0.09792205713676011
0.0034179537289049434,0.09792205713676011
0.0034179537289049434,0.09797540611912828
0.003419572844835263,0.09797540611912828
0.003419572844835263,0.09802875510149645
0.0034228110766959027,0.09802875510149645
0.0034228110766959027,0.09805542959268052
0.003426049308556542,0.09805542959268052
0.003426049308556542,0.09810877857504868
0.0034276684244868615,0.09810877857504868
0.0034276684244868615,0.09816212755741684
0.0034292875404171815,0.09816212755741684
0.0034292875404171815,0.09826882552215316
0.003430906656347501,0.09826882552215316
0.003430906656347501,0.09834884899570541
0.003434144888208141,0.09834884899570541
0.003434144888208141,0.09840219797807356
0.00343738312006878,0.09840219797807356
0.00343738312006878,0.09842887246925765
0.003443859583790059,0.09842887246925765
0.003443859583790059,0.09845554696044173
0.0034503360475113378,0.09845554696044173
0.0034503360475113378,0.09848222145162581
0.0034535742793719774,0.09848222145162581
0.0034535742793719774,0.09858891941636214
0.003455193395302297,0.09858891941636214
0.003455193395302297,0.09864226839873029
0.0034568125112326166,0.09864226839873029
0.0034568125112326166,0.09866894288991437
0.0034600507430932563,0.09866894288991437
0.0034600507430932563,0.09869561738109846
0.0034649080908842156,0.09869561738109846
0.0034649080908842156,0.09880231534583478
0.003468146322744855,0.09880231534583478
0.003468146322744855,0.09882898983701886
0.0034697654386751744,0.09882898983701886
0.0034697654386751744,0.0989090133105711
0.003479480134257093,0.0989090133105711
0.003479480134257093,0.09893568780175518
0.003484337482048052,0.09893568780175518
0.003484337482048052,0.09896236229293927
0.003485956597978372,0.09896236229293927
0.003485956597978372,0.09917575822241191
0.0034875757139086914,0.09917575822241191
0.0034875757139086914,0.099202432713596
0.0034891948298390115,0.099202432713596
0.0034891948298390115,0.09930913067833232
0.003490813945769331,0.09930913067833232
0.003490813945769331,0.09954920109898904
0.0034924330616996507,0.09954920109898904
0.0034924330616996507,0.0996025500813572
0.0034940521776299703,0.0996025500813572
0.0034940521776299703,0.09962922457254128
0.00349729040949061,0.09962922457254128
0.00349729040949061,0.09965589906372536
0.0035005286413512496,0.09965589906372536
0.0035005286413512496,0.09968257355490943
0.003503766873211889,0.09968257355490943
0.003503766873211889,0.09976259702846169
0.0035053859891422084,0.09976259702846169
0.0035053859891422084,0.09981594601082984
0.0035070051050725285,0.09981594601082984
0.0035070051050725285,0.09986929499319801
0.003508624221002848,0.09986929499319801
0.003508624221002848,0.09989596948438209
0.0035102433369331677,0.09989596948438209
0.0035102433369331677,0.09992264397556616
0.003515100684724127,0.09992264397556616
0.003515100684724127,0.09997599295793433
0.003518338916584766,0.09997599295793433
0.003518338916584766,0.10000266744911841
0.0035199580325150862,0.10000266744911841
0.0035199580325150862,0.10005601643148657
0.003521577148445406,0.10005601643148657
0.003521577148445406,0.10010936541385473
0.0035231962643757254,0.10010936541385473
0.0035231962643757254,0.10016271439622289
0.0035248153803060455,0.10016271439622289
0.0035248153803060455,0.10021606337859106
0.003526434496236365,0.10021606337859106
0.003526434496236365,0.10024273786977514
0.0035280536121666847,0.10024273786977514
0.0035280536121666847,0.10032276134332738
0.0035296727280970043,0.10032276134332738
0.0035296727280970043,0.10034943583451146
0.0035312918440273244,0.10034943583451146
0.0035312918440273244,0.10037611032569553
0.003532910959957644,0.10037611032569553
0.003532910959957644,0.10069620421990451
0.003536149191818283,0.10069620421990451
0.003536149191818283,0.10088292565819307
0.0035410065396092425,0.10088292565819307
0.0035410065396092425,0.1009629491317453
0.0035458638874002017,0.1009629491317453
0.0035458638874002017,0.10101629811411347
0.0035474830033305213,0.10101629811411347
0.0035474830033305213,0.10106964709648164
0.003550721235191161,0.10106964709648164
0.003550721235191161,0.10109632158766571
0.0035555785829821203,0.10109632158766571
0.0035555785829821203,0.1011229960788498
0.0035588168148427595,0.1011229960788498
0.0035588168148427595,0.10122969404358612
0.0035636741626337187,0.10122969404358612
0.0035636741626337187,0.10130971751713837
0.0035701506263549976,0.10130971751713837
0.0035701506263549976,0.10133639200832244
0.0035733888582156373,0.10133639200832244
0.0035733888582156373,0.1013897409906906
0.0035766270900762765,0.1013897409906906
0.0035766270900762765,0.10144308997305876
0.003578246206006596,0.10144308997305876
0.003578246206006596,0.10146976446424284
0.0035831035537975554,0.10146976446424284
0.0035831035537975554,0.10157646242897916
0.003584722669727875,0.10157646242897916
0.003584722669727875,0.10160313692016325
0.0035879609015885146,0.10160313692016325
0.0035879609015885146,0.10165648590253142
0.0035895800175188342,0.10165648590253142
0.0035895800175188342,0.10170983488489957
0.0035911991334491543,0.10170983488489957
0.0035911991334491543,0.1017898583584518
0.0035944373653097935,0.1017898583584518
0.0035944373653097935,0.10181653284963589
0.003597675597170433,0.10181653284963589
0.003597675597170433,0.10184320734081997
0.0035992947131007528,0.10184320734081997
0.0035992947131007528,0.10186988183200406
0.0036009138290310724,0.10186988183200406
0.0036009138290310724,0.10189655632318813
0.003602532944961392,0.10189655632318813
0.003602532944961392,0.10200325428792446
0.003604152060891712,0.10200325428792446
0.003604152060891712,0.10202992877910853
0.0036057711768220316,0.10202992877910853
0.0036057711768220316,0.10205660327029262
0.0036073902927523513,0.10205660327029262
0.0036073902927523513,0.1020832777614767
0.0036090094086826713,0.1020832777614767
0.0036090094086826713,0.10210995225266079
0.003610628524612991,0.10210995225266079
0.003610628524612991,0.10218997572621302
0.00361386675647363,0.10218997572621302
0.00361386675647363,0.1022166502173971
0.00361548587240395,0.1022166502173971
0.00361548587240395,0.10224332470858119
0.00361710498833427,0.10224332470858119
0.00361710498833427,0.10226999919976526
0.0036187241042645894,0.10226999919976526
0.0036187241042645894,0.10229667369094934
0.003620343220194909,0.10229667369094934
0.003620343220194909,0.1024833951292379
0.0036235814520555487,0.1024833951292379
0.0036235814520555487,0.10251006962042199
0.0036252005679858683,0.10251006962042199
0.0036252005679858683,0.10253674411160607
0.003626819683916188,0.10253674411160607
0.003626819683916188,0.10256341860279015
