tpr,fpr
0.0,0.0
0.0014937715063085,0.0003999216347889
0.0029075195390647,0.001387582352284
0.0041078716423484,0.0022279035201199
0.0052015257808957,0.0032625185995942
0.0062685054282589,0.0040947441877785
0.0071220891461495,0.0051779327451624
0.0078956493904878,0.0063728403017384
0.0088826055642988,0.007373453946676
0.0098428872469257,0.0085942673581371
0.0106431219824481,0.0096612647562178
0.0113366587532342,0.0109468428048916
0.0121635679799407,0.0120008872755298
0.0127237322948064,0.0132637977011792
0.0134972925391448,0.0144635626055461
0.0141641548187468,0.0157086627559619
0.0147243191336125,0.0172630140490689
0.0156045773426871,0.0188027932988029
0.0164581610605777,0.0202761887953939
0.0170983488489957,0.0217463460601242
0.0177918856197818,0.0230400196884497
0.0186187948464883,0.0243191212734022
0.0194723785643788,0.025969000406398
0.0206193816852943,0.0273954415410097
0.0215796633679212,0.0291295147023822
0.022513270559364,0.0310497861957414
0.0235535757155432,0.0324794655622137
0.0247272533276427,0.0335367482647125
0.0257675584838219,0.0347640381398948
0.0264344207634239,0.036127333753224
0.0268345381311851,0.037165187064559
0.0273680279548667,0.0379812214934401
0.0276347728667075,0.0388895455303495
0.0281682626903891,0.0395647168732928
0.0285417055669663,0.0402868425782154
0.0289951719170956,0.0410931623115146
0.0295019872495932,0.0416744249304994
0.0297420576702499,0.0424645535044954
0.0300888260556429,0.0430458161234802
0.0303822454586678,0.0437323212779358
0.0306223158793246,0.0443232985925025
0.0311558057030062,0.0448284627627622
0.0313692016324788,0.0455586840473364
0.0318226679826082,0.0461302319707393
0.0321160873856331,0.0467827356906581
0.0324895302622102,0.0474044762079009
0.0328096241564192,0.0480521225800288
0.0331030435594441,0.0486625292857593
0.0333164394889167,0.0493490344402149
0.0335565099095734,0.0499497264503635
0.0339833017685187,0.0505520375764425
0.0343300701539118,0.0511559678184517
0.0347568620128571,0.0518619023640711
0.0350236069246979,0.0524625943742197
0.0352903518365387,0.0530179511383194
0.0355837712395636,0.0535587358590462
0.0357971671690362,0.0541529514054735
0.0360105630985089,0.0548022168935317
0.0362506335191656,0.0553948133240288
0.0364640294486382,0.0560262685368535
0.0366507508869268,0.0566852487204936
0.0370241937635039,0.0573588009475066
0.0372375896929766,0.0580841648842898
0.03771773053429,0.058616854025365
0.0380644989196831,0.059209450455862
0.0383312438315239,0.0599510055519485
0.0386780122169169,0.0608026605312967
0.0389447571287577,0.0615474538592437
0.0393182000053349,0.0622550075207935
0.0394248979700712,0.0629884670372283
0.0396649683907279,0.0639486027839079
0.0400650857584891,0.0647970195313954
0.0404652031262503,0.0656017201487643
0.0409186694763797,0.0665100441856737
0.0413721358265091,0.0673163639189729
0.0416122062471658,0.0683121202161196
0.0420656725972952,0.0691993957459348
0.042679185894529,0.0699571420013244
0.0432660247005788,0.0707229838363656
0.0437194910507082,0.0717025489742091
0.0442796553655739,0.0724926775482051
0.0446264237509669,0.0735742469896587
0.0451599135746485,0.0745262871566867
0.045640054415962,0.0755949036706977
0.0460668462749073,0.0765793261563321
0.0464936381338526,0.0775977500765032
0.0471338259222705,0.0785918872577195
0.0476939902371362,0.0796103111778906
0.0481207820960815,0.0808084569663272
0.0484942249726586,0.0817507824377733
0.0490810637787084,0.0829715958492344
0.0495878791112059,0.0839527801030081
0.0500146709701512,0.0850084436895766
0.0503614393555442,0.0859944852911413
0.0508682546880418,0.0870938650078284
0.0513217210381711,0.0878791362340335
0.0518285363706687,0.0889412762843232
0.0523086772119821,0.0901458985364811
0.0530022139827682,0.0910558416893208
0.0532956333857931,0.092054836218328
0.0536690762623702,0.0930829748340811
0.0541225426124996,0.0940706355515761
0.0544426365067086,0.0954112635418808
0.054896102856838,0.0964847374036828
0.0552161967510469,0.0975873553522305
0.0556429886099922,0.0985410146351889
0.0559630825042012,0.0995092459615201
0.0563631998719624,0.1005195743020396
0.0566566192749873,0.1015072350195346
0.0570033876603803,0.1025434692149392
0.0574835285016938,0.103327121325214
0.0578036223959027,0.1043827849117824
0.0582837632372162,0.105261964861946
0.0588439275520819,0.1062026712174618
0.0591906959374749,0.1072437627606574
0.0596708367787884,0.108158563261288
0.0602576755848382,0.1091332710513405
0.0607911654085198,0.10999140249441
0.0612713062498332,0.1110567807765603
0.061858145055883,0.1119812959727729
0.0625516818266691,0.1128005686335147
0.0630851716503507,0.1136166030623958
0.0635653124916642,0.1145184506355839
0.0641254768065299,0.1154024879335385
0.0646322921390274,0.1161489003774159
0.0652724799274453,0.1168451202274534
0.0660727146629678,0.1175332444978392
0.0666595534690175,0.1183703274338145
0.0672463922750673,0.1190228311537334
0.0678599055723012,0.1197919112206353
0.068473418869535,0.120458986983927
0.0690069086932166,0.1211163480516368
0.0695137240257142,0.1219032383937722
0.0700205393582117,0.1226383170261374
0.0705807036730774,0.1233070119053594
0.0711675424791272,0.1240178037987698
0.0718077302675451,0.1247059280691556
0.0723945690735949,0.1254750081360575
0.0729814078796447,0.126054651639112
0.0734615487209581,0.1267411567935675
0.0739416895622716,0.1273240385284826
0.0745018538771373,0.1280445451174749
0.0753554375950278,0.1285966636497139
0.0760489743658139,0.1292572629492844
0.0766891621542319,0.1299874842338586
0.0773293499426498,0.1305962718236588
0.0778628397663314,0.1311160080372914
0.0783429806076449,0.1317086044677885
0.0789031449225106,0.1322558656522365
0.0795700072021126,0.1328274135756394
0.0802635439728987,0.1334248673539274
0.0809304062525007,0.1340482269871005
0.0815172450585505,0.1346327278379459
0.082024060391048,0.1352026566454184
0.0826642481794659,0.1357078208156782
0.0831710635119635,0.1363457524922242
0.0835978553709088,0.1370144473714462
0.0841846941769585,0.1375568512081033
0.0846915095094561,0.1381089697403423
0.0853583717890581,0.1387242337938638
0.085998559577476,0.1392229215004023
0.0866120728747099,0.139661701917519
0.0871989116807596,0.1402300116090612
0.0878390994691776,0.1407578434023454
0.0885059617487796,0.1413391060213302
0.0889861025900931,0.1419122730606634
0.0895996158873269,0.1424919165637178
0.0902398036757448,0.143024605704793
0.0908533169729787,0.1435832007007533
0.0911734108671877,0.1442761823189302
0.0916535517085011,0.1448590640538453
0.0922937394969191,0.1453431797170109
0.0930672997412574,0.1458111042208733
0.0935207660913868,0.1463470315938091
0.0941342793886206,0.1469477236039577
0.0946677692123022,0.1474982230202664
0.0953079570007202,0.1480794856392512
0.0958414468244018,0.1486316041714903
0.0964549601216356,0.1491351492258197
0.0968284029982128,0.1496856486421284
0.0972818693483421,0.1502491009858796
0.0977353356984715,0.1508012195181187
0.0982688255221531,0.1512950498768662
0.0986689428899143,0.1520366049729526
0.0990423857664915,0.1526858704610108
0.0995758755901731,0.1533480888765116
0.0999759929579343,0.1540475469584097
0.1003494358345114,0.1547923402863568
0.1009096001493771,0.155441605774415
0.1015764624289791,0.1561491594359647
0.1020299287791085,0.1569570982851943
0.1025634186027901,0.1578395164672185
0.1030168849529195,0.1587543169678492
0.1036570727413374,0.1594796809046324
0.1041105390914668,0.160439816651312
0.1049641228093574,0.1615343390202082
0.1055776361065912,0.1625058085784
0.1060844514390888,0.1639662511475484
0.1068846861746112,0.1652987835582015
0.1077382698925018,0.1666037909980392
0.1085118301368401,0.167665931048329
0.1096321587665715,0.1686098756357054
0.1107258129051188,0.1697610670621627
0.1118994905172183,0.1707195836929119
0.1128597721998452,0.1716457180050548
0.1140334498119448,0.1725443273463823
0.1153671743711488,0.1732146413415347
0.1165942009656165,0.1740582007412312
0.1178212275600842,0.1747997558373177
0.1191816266104724,0.1754004478474663
0.1206487236255968,0.1759379943363324
0.1217957267465123,0.1765095422597353
0.1230494278321641,0.1770665181397653
0.1244365013737363,0.1776429234109591
0.1258769238976766,0.1782225669140136
0.1270506015097762,0.1788864044454447
0.1281709301395076,0.1794029024272166
0.1293979567339753,0.1798416828443333
0.1305449598548907,0.1805168541872766
0.1318253354317266,0.1811159270814949
0.1330256875350102,0.181708523511992
0.1341993651471098,0.182372361043423
0.1354263917415775,0.1829730530535717
0.136573394862493,0.1834830745716224
0.1378270959481448,0.1840481460313039
0.1390007735602443,0.1847055070990138
0.139881031769319,0.1852883888339289
0.1410813838726026,0.1859182249308232
0.1421483635199658,0.1864509140718984
0.1430286217290405,0.1871244662989114
0.1440689268852196,0.187653917208126
0.1452959534796873,0.1883582326378151
0.1463362586358665,0.188803489518653
0.1473232148096775,0.1892568419791425
0.1483101709834884,0.1898413428299879
0.1493238016484835,0.1903643172754812
0.1503907812958468,0.1908937681846958
0.1512710395049214,0.1914831263833321
0.1521512977139961,0.1920465787270834
0.1530582304142548,0.1924740253326878
0.1538317906585931,0.1929953806622508
0.1547387233588519,0.1934843536732073
0.1554856091120061,0.1939247532062543
0.1561791458827922,0.1944687761588417
0.1568993571447624,0.1950306093866627
0.1576995918802848,0.1956102528897171
0.1586065245805436,0.1961397037989317
0.1595401317719864,0.1966464870851217
0.1605270879457974,0.1971613659509634
0.1613539971725039,0.1976989124398296
0.1620208594521059,0.1982267442331138
0.1626610472405238,0.1987448613308161
0.1634612819760463,0.1993050754427067
0.164368214676305,0.1998264307722697
0.1650884259382752,0.200299212623923
0.1658086372002454,0.2008173297216254
0.1665021739710315,0.201296588037
0.1672757342153698,0.2018066095550507
0.1681293179332604,0.202248628204028
0.1688495291952306,0.2027570306061484
0.1695697404572007,0.203205525718847
0.1702366027368028,0.2037074516572461
0.170983488489957,0.204107373292035
0.1717570487342954,0.2045591066365943
0.1722371895756088,0.2050480796475508
0.1731974712582357,0.205540290890368
0.1737843100642855,0.2061053623500496
0.1745578703086238,0.2065587148105391
0.1753047560617781,0.207044449589635
0.1760783163061164,0.207489706470473
0.1768252020592707,0.2079543927424747
0.1776254367947931,0.2084579377968042
0.1783456480567633,0.2088562403156628
0.1790658593187335,0.2093338795151071
0.179919443036624,0.2097969466711786
0.1807997012456987,0.2102276315086436
0.1815199125076689,0.2107036515921576
0.1821067513137187,0.2111408128933439
0.1828536370668729,0.2116540726432553
0.1835204993464749,0.2120766619010687
0.1842940595908133,0.2125251570137673
0.1849609218704153,0.2129687947786749
0.1856277841500173,0.2133573826019517
0.1863213209208034,0.2138317835695353
0.1869081597268532,0.2142899933778158
0.1876817199711915,0.2147239164471415
0.1884286057243458,0.2151335527775124
0.1892021659686841,0.2155480464556742
0.1898690282482861,0.2160143518436063
0.1906425884926245,0.216493610158981
0.1915228467016991,0.2169048656052822
0.192136359998933,0.2173970768480994
0.1928298967697191,0.2178131896421915
0.1934434100669529,0.2182794950301236
0.1942169703112913,0.2187134180994493
0.1948838325908933,0.2191392455891234
0.1955240203793112,0.2195213569486789
0.1964042785883859,0.2199326123949801
0.1973112112886446,0.2203406296094206
0.1980047480594307,0.2207956011858405
0.1987249593214009,0.2212959080083093
0.1993918216010029,0.2217476413528685
0.2001120328629731,0.2222236614363825
0.200752220651391,0.2226171066074502
0.2016058043692816,0.2230380767493333
0.2022193176665155,0.2235513364992447
0.2027794819813812,0.2240079271915948
0.2034196697697991,0.2244483267246418
0.2042199045053215,0.2248045322293121
0.2048600922937395,0.2252530273420107
0.2055269545733415,0.2256885695272667
0.2062738403264957,0.2260803955824041
0.2069407026060978,0.2265531774340574
0.2075542159033316,0.2270081490104773
0.2081410547093814,0.2274177853408482
0.2088612659713516,0.2277998967004036
0.2095281282509536,0.228191722755541
0.2102483395129238,0.2285738341150964
0.2107818293366054,0.2290304248074466
0.2114753661073915,0.229457871413051
0.2121955773693616,0.2298691268593522
0.2128090906665955,0.2302399044073954
0.2136093254021179,0.2306608745492786
0.2141161407346155,0.2310899402708133
0.2145962815759289,0.2314688133985081
0.2152097948731628,0.2318881644244609
0.2157699591880285,0.2322897051751802
0.2165168449411827,0.2327009606214814
0.2171303582384166,0.2331138351837129
0.2177171970444663,0.2335186141662929
0.2183040358505161,0.233903963757709
0.2190509216036704,0.2342763604216825
0.2196110859185361,0.2346957114476353
0.2202245992157699,0.2350907757346333
0.2210781829336605,0.2354583150508159
0.2218784176691829,0.2357967102802527
0.2224919309664168,0.2361933936831811
0.2230254207900984,0.2365949344339004
0.223879004507989,0.2369398061270585
0.2247059137346955,0.2372927733998682
0.2253194270319293,0.2376894568027965
0.2259329403291632,0.2381152842924706
0.2264664301528448,0.2385200632750505
0.2271599669236309,0.2389361760691427
0.2276134332737603,0.2393053345012556
0.2281202486062578,0.2397198281794174
0.2287871108858598,0.2401084160026942
0.2292939262183574,0.2405164332171347
0.2298007415508549,0.2408758769536657
0.230494278321641,0.2412790368203153
0.2311077916188748,0.2417210554692926
0.2316146069513724,0.2421501211908273
0.2321214222838699,0.242548423709686
0.2325215396516311,0.2429175821417989
0.233135052948865,0.2433272184721698
0.2337218917549147,0.2437319974547497
0.2343354050521486,0.2441416337851206
0.234815545893462,0.2445674612747947
0.2354824081730641,0.2449560490980714
0.2359358745231934,0.2453867339355365
0.2365227133292432,0.2457801791066042
0.2369761796793726,0.2461736242776719
0.2374296460295019,0.2465492591735061
0.2380431593267358,0.2469119411418977
0.2386033236416015,0.2472924333855228
0.2392968604123876,0.247663210933566
0.239777001253701,0.2480663708002156
0.2402571420950145,0.248498674753611
0.2407372829363279,0.2488856434609574
0.2412174237776414,0.2493406150373772
0.2418042625836912,0.2497437749040269
0.2424444503721091,0.2501210289157914
0.2429245912134226,0.2505112358549984
0.2435647790018405,0.2509095383738571
0.2441782922990744,0.2513564143706253
0.2445250606844674,0.2517158581071563
0.2450852249993331,0.2520866356551995
0.2456453893141988,0.2524752234784763
0.2460721811731441,0.2528540966061711
0.2464989730320894,0.253294496139218
0.2470057883645869,0.2537251809766831
0.2472992077676118,0.2541445320026359
0.2477526741177412,0.2545072139710275
0.2483395129237909,0.2548860870987223
0.2488196537651044,0.2553005807768842
0.2494064925711542,0.2556616436293455
0.2497532609565472,0.2560421358729706
0.2504201232361492,0.2564226281165958
0.2509269385686468,0.256788548316848
0.2512470324628558,0.2571722787923338
0.2517538477953533,0.2575252460651435
0.2521539651631145,0.2579122147724899
0.2525007335485075,0.2582943261320454
0.2531142468457414,0.2586456742889247
0.2536210621782389,0.2590585488511563
0.2540478540371842,0.2594681851815272
0.2543946224225772,0.259842200961431
0.2547680652991544,0.260237265248429
0.2552748806316519,0.2606290913035664
0.2556749979994132,0.2610063453153309
0.2561551388407266,0.2613657890518619
0.2565819306996719,0.2617754253822328
0.2570353970498013,0.2621397264665547
0.2573554909440102,0.262536409869483
0.2580223532236123,0.2628812815626412
0.2585825175384779,0.263255297342545
0.2590093093974232,0.2636309322383792
0.2595694737122889,0.2639984715545618
0.2600762890447864,0.2643724873344656
0.260583104377284,0.2647222163754147
0.2611165942009656,0.2650816601119456
0.2616500840246472,0.265478343514874
0.2619968524100403,0.2658960754248965
0.2624236442689855,0.2662344706543333
0.2630371575662194,0.266587437927143
0.2634906239163488,0.2670019316053049
0.2640774627223985,0.2673727091533481
0.2645309290725279,0.2677580587447641
0.2648510229667369,0.2681515039158318
0.2654111872816026,0.2684850417974777
0.2658379791405479,0.2688687722729635
0.2663981434554135,0.2691942145749578
0.2667449118408066,0.2695795641663738
0.2672250526821201,0.2699341505551139
0.267865240470538,0.2702806413642023
0.268212008855931,0.2706530380281758
0.2687188241884286,0.2710319111558706
0.2690122435914535,0.2714156416313564
0.2694657099415828,0.2717799427156784
0.2701325722211848,0.2721620540752338
0.2707994345007869,0.2725263551595557
0.2712262263597322,0.2728777033164352
0.2717863906745978,0.2732500999804087
0.2722665315159113,0.2736613554267099
0.2726399743924884,0.2741130887712691
0.27317346421617,0.2744271972617511
0.2737336285310358,0.2748093086213066
0.2743204673370855,0.2751736097056285
0.2746672357224786,0.275555721065184
0.2751207020726079,0.2759394515406698
0.2754941449491851,0.276310229088713
0.2760809837552349,0.2766842448686168
0.2765344501053642,0.2770679753441026
0.2770946144202299,0.2774840881381948
0.2774413828056229,0.2778742950774018
0.2779481981381205,0.2782628829006786
0.2785083624529862,0.2786223266372095
0.279095201259036,0.2790190100401379
0.2796286910827176,0.2793752155448082
0.2805089492917922,0.2797298019335482
0.2809357411507375,0.280108675061243
0.2814959054656032,0.2804616423340527
0.2818960228333644,0.2808356581139566
0.2824295126570461,0.2812161503575817
0.2828829790071754,0.2816063572967888
0.283416468830857,0.2819625628014591
0.2838966096721705,0.2823252447698507
0.2844300994958521,0.2826846885063817
0.2849369148283496,0.2830716572137282
0.2853103577049268,0.2834489112254926
0.2857638240550561,0.2838180696576055
0.2860839179492651,0.2842503736110009
0.2866707567553149,0.2846065791156713
0.2872042465789965,0.2849514508088294
0.2877644108938622,0.2853950885737369
0.288351249699912,0.285744817614686
0.2888047160500413,0.2861236907423808
0.2892315079089866,0.2865252314931001
0.2897383232414842,0.2869186766641678
0.2901117661180613,0.2873218365308174
0.2905919069593747,0.2876780420354878
0.29101869881832,0.2881135842207438
0.2914188161860812,0.2884940764643689
0.292005654992131,0.2888599966646212
0.2924057723598922,0.2892663947631314
0.2927525407452853,0.2897035560643177
0.2933927285337032,0.2900840483079429
0.2937928459014644,0.2905212096091292
0.2942196377604097,0.2909276077076395
0.2948064765664595,0.2912740985167279
0.2951265704606685,0.291654590760353
0.2957134092667182,0.2919946051057202
0.2963802715463202,0.2923427150307389
0.2967003654405292,0.292768542520413
0.2970471338259223,0.2931797979667142
0.2975806236496038,0.2935829578333638
0.2979807410173651,0.293958592729198
0.2983275094027581,0.2943633717117779
0.2988609992264397,0.2947600551147062
0.2992611165942009,0.2951259753149585
0.2996879084531462,0.2954805617036985
0.3001147003120915,0.2958561965995327
0.3005148176798528,0.296257737350252
0.3010483075035344,0.2966333722460862
0.3015017738536637,0.2970235791852932
0.3020886126597135,0.2974720742979918
0.3026754514657633,0.2978671385849898
0.303262290271813,0.2982298205533814
0.3037957800954947,0.2986038363332853
0.3044893168662808,0.2989665183016769
0.3051828536370669,0.2993632017046052
0.3056629944783803,0.2997420748323001
0.3060364373549574,0.3001177097281342
0.3064899037050868,0.3004901063921077
0.3069433700552162,0.3008365972011962
0.3075035343700819,0.3012073747492394
0.3079036517378431,0.3015668184857704
0.308223745632052,0.3019570254249774
0.3087038864733655,0.3023634235234877
0.3091573528234949,0.302724486375949
0.3096908426471765,0.3031405991700411
0.3101443089973059,0.3034838517472689
0.3105977753474352,0.3038627248749638
0.3111045906799328,0.3042545509301011
0.311824801941903,0.3046107564347715
0.3122515938008482,0.3050317265766546
0.312838432606898,0.305387932081325
0.3132918989570274,0.3057846154842533
0.3136386673424204,0.3061845371190422
0.3141188081837339,0.3065747440582493
0.3145989490250473,0.3068937098965223
0.3151857878310971,0.3072758212560778
0.315799301128331,0.3076255502970268
0.3162527674784604,0.3079898513813487
0.3167595828109579,0.3083622480453223
0.3171597001787191,0.3087233108977836
0.3176398410200325,0.3091620913149002
0.3182000053348982,0.309540964442595
0.3186801461762117,0.3099246949180808
0.3192669849822614,0.3103149018572879
0.3198004748059431,0.3107099661442859
0.3204940115767292,0.3110710289967472
0.3210541758915948,0.3114385683129297
0.3215876657152764,0.3117931547016698
0.3220144575742217,0.31219955280018
0.3224679239243511,0.3126480479128786
0.3232414841686895,0.3129734902148728
0.3240150444130278,0.3132989325168671
0.3245218597455253,0.3137101879631683
0.3250020005868388,0.314103633134236
0.3255888393928886,0.3144954591893734
0.3263623996372269,0.3148322353028799
0.3268692149697244,0.3152548245606933
0.3274827282669583,0.3157162726008345
0.3280162180906399,0.3160740972214351
0.3284163354584011,0.3164853526677363
0.329029848755635,0.3168561302157796
0.3295633385793166,0.3172528136187079
0.3300701539118141,0.317633305862333
0.3306303182266798,0.3179943687147943
0.3313772039798341,0.3183408595238827
0.3321240897329883,0.3186938267966924
0.3328176265037744,0.3190937484314814
0.3334311398010083,0.3194742406751066
0.3342047000453466,0.3198660667302439
0.3351916562191576,0.3202028428437504
0.3358318440075755,0.320615717405982
0.3365787297607298,0.3209460170557672
0.337325615513884,0.3213329857631136
0.3382058737229587,0.3216535707173169
0.3390327829496652,0.3220453967724543
0.339939715649924,0.3223967449293337
0.3407932993678145,0.3227302828109795
0.3414601616474165,0.3231221088661169
0.3423937688388594,0.3233763100671771
0.3430606311184614,0.3237195626444049
0.343914214836352,0.3240854828446571
0.3445277281335858,0.3244756897838642
0.3452212649043719,0.3248707540708622
0.3459681506575262,0.3252722948215815
0.3466883619194963,0.3256592635289279
0.3474885966550188,0.3259782293672009
0.3482621568993571,0.3263619598426867
0.3493291365467204,0.326718165347357
0.3500226733175064,0.3270873237794699
0.3507428845794766,0.3274451484000706
0.3514097468590786,0.3278256406436957
0.3523166795593374,0.3281737505687144
0.3532236122595961,0.3285769104353641
0.3540505214863026,0.3289331159400344
0.3547974072394569,0.3292941787924957
0.3557843634132679,0.3296487651812357
0.3567713195870788,0.330050305931955
0.3577849502520739,0.3303563188427854
0.3589319533729894,0.3306639508695462
0.3601589799674571,0.3310314901857288
0.3610925871588999,0.33144274563203
0.362106217823895,0.3318183805278641
0.3632532209448105,0.3321664904528829
0.3641601536450692,0.3325599356239506
0.3651737843100643,0.3328902352737358
0.3661874149750593,0.3332529172421274
0.3672010456400544,0.3336334094857526
0.3682413507962335,0.3340074252656564
0.3693083304435968,0.3343053425968352
0.3701885886526714,0.3346356422466205
0.3711221958441142,0.3349643227804754
0.3721091520179252,0.335296241546191
0.3733095041212089,0.3355747294862059
0.3744298327509403,0.3359260776430853
0.3754701379071194,0.3362094229308913
0.3765371175544826,0.3365607710877706
0.3777641441489504,0.3369072618968591
0.3787244258315773,0.3372990879519964
0.3796847075142042,0.3376569125725971
0.3804849422497265,0.3380552150914557
0.3814452239323534,0.3384017059005442
0.3826455760356371,0.3387919128397512
0.3838192536477366,0.3391092595620939
0.3846461628744431,0.3394379400959488
0.3856331190482541,0.3397795735572462
0.3867534476779855,0.3401114923229618
0.3879804742724532,0.3404256008134438
0.3890474539198165,0.3407996165933477
0.3903011550054682,0.3411655367935999
0.3910747152498066,0.3415363143416431
0.3921150204059858,0.3418536610639858
0.3929419296326922,0.3422373915394716
0.394195630718344,0.3425320706387898
0.395502680786364,0.3428656085204357
0.3967563818720158,0.3431878125905693
0.3976099655899063,0.3435245887040758
0.3983835258342447,0.3438581265857217
0.3994505054816079,0.344245095293068
0.4003841126730507,0.3445721567109926
0.4013977433380458,0.3448895034333353
0.402438048494225,0.3451841825326535
0.4035583771239563,0.3455921997470941
0.404438635333031,0.3459467861358341
0.4053455680332897,0.346275466669689
0.4064658966630211,0.3466640544929658
0.4073728293632799,0.3470267364613573
0.4084931579930113,0.3473635125748638
0.4095067886580063,0.3477375283547677
0.4104137213582651,0.3481196397143232
0.411374003040892,0.3485130848853909
0.4121475632852303,0.348848241882967
0.413027821494305,0.349293498763805
0.4141481501240364,0.3496513233844056
0.4148950358771906,0.3500674361784978
0.415695270612713,0.3504657386973565
0.4167355757688922,0.3507733707241172
0.417669182960335,0.3511425291562301
0.4185227666782256,0.3514598758785728
0.4195097228520366,0.3517998902239399
0.4205233535170317,0.352139904569307
0.4216170076555789,0.352504205653629
0.4226573128117581,0.3528749832016722
0.4234308730560964,0.3532360460541335
0.4244445037210915,0.3535825368632219
0.4253247619301661,0.3539452188316135
0.4263383925951612,0.3542803758291897
0.42724532529542,0.3546835356958394
0.4281789324868628,0.355076980866907
0.4291658886606738,0.3554072805166923
0.4299394489050121,0.3557408183983381
0.4308197071140868,0.356069498932193
0.4317266398143455,0.3564532294076788
0.4326068980234202,0.3568272451875827
0.4333537837765744,0.3572660256046993
0.4343407399503854,0.3575655620518084
0.4352209981594601,0.3579476734113639
0.4360479073861666,0.3583038789160342
0.4371148870335298,0.3586357976817498
0.4380751687161567,0.3590324810846781
0.4389821014164154,0.3594097350964426
0.4400224065725946,0.3597934655719284
0.440822641308117,0.3601350990332259
0.4417028995171917,0.3605285442042936
0.4424231107791619,0.3608669394337304
0.4432766944970525,0.3612360978658433
0.4440769292325749,0.3615971607183046
0.4448238149857291,0.3619873676575116
0.4455973752300675,0.3623192864232272
0.446424284456774,0.3627062551305736
0.4472245191922964,0.3630446503600104
0.4479180559630825,0.363326376531886
0.4486382672250527,0.3636922967321383
0.4492517805222865,0.3640873610191363
0.4501587132225453,0.3644160415529912
0.4509055989756995,0.3647447220868461
0.4516791592200379,0.3650750217366313
0.4525594174291125,0.3653907493430437
0.4534130011470031,0.365716191645038
0.4540798634266051,0.3660966838886631
0.4546933767238389,0.3664836525960095
0.4555469604417296,0.3668447154484708
0.456347195177252,0.3672219694602353
0.4573074768598789,0.3675733176171147
0.4579476646482968,0.3679440951651579
0.4586412014190829,0.3682792521627341
0.4594947851369735,0.3686257429718225
0.4601616474165755,0.369007854331378
0.460988556643282,0.3693915848068637
0.4617621168876203,0.3697445520796734
0.4625090026407746,0.3701509501781837
0.4633625863586652,0.3704650586686657
0.4640027741470831,0.3708245024051967
0.4648030088826055,0.3711888034895186
0.4655232201445757,0.3715871060083773
0.4663501293712822,0.3718801659917651
0.4672037130891728,0.3722525626557387
0.4680839712982474,0.372618482855991
0.4686708101042973,0.373008689795198
0.4693376723838993,0.3733535614883561
0.4700845581370535,0.37372757726826
0.4708047693990237,0.3740578769180452
0.4716316786257302,0.3744577985528342
0.47221851743178,0.3748739113469263
0.4730187521673024,0.3752220212719451
0.4738456613940089,0.3755636547332425
0.4747259196030836,0.3758907161511671
0.4755795033209741,0.3761983481779279
0.4762730400917602,0.3765221713639918
0.4771532983008349,0.376902663607617
0.4777934860892529,0.3772669646919389
0.4785937208247752,0.3776361231240518
0.4790738616660887,0.3780101389039557
0.4798740964016111,0.3783744399882776
0.4806476566459495,0.3787468366522511
0.4817413107844968,0.379080374533897
0.482488196537651,0.3794284844589157
0.4832617567819894,0.3797879281954467
0.4840619915175118,0.3801327998886048
0.4847021793059297,0.3805068156685087
0.485475739550268,0.3808193050430604
0.4861959508122382,0.3811706531999397
0.4867561151271039,0.3815090484293766
0.4876630478273627,0.3818296333835799
0.4882498866334124,0.3822344123661598
0.4889167489130145,0.3825517590885025
0.4898236816132732,0.382852914651542
0.4908373122782682,0.3831945481128394
0.4914241510843181,0.3835410389219278
0.4921443623462882,0.3839555326000897
0.4930246205553629,0.3843408821915058
0.4938248552908853,0.3847327082466432
0.4945984155352236,0.3850791990557315
0.4955320227266664,0.3854532148356354
0.4965456533916615,0.3857495130508839
0.4973192136359999,0.3860765744688085
0.4981194483715223,0.3864165888141757
0.4989730320894129,0.3867889854781492
0.4998799647896716,0.3871111895482828
0.5008935954546667,0.3874625377051622
0.5016938301901891,0.3877912182390171
0.5023606924697911,0.3881344708162449
0.5031342527141295,0.3884210543359115
0.5040945343967563,0.3887319245945329
0.5050814905705674,0.3890427948531543
0.5058550508149057,0.3893682371551485
0.5066819600416123,0.3896936794571428
0.5074555202859505,0.3901146495990259
0.5082557550214729,0.3905129521178846
0.5091360132305476,0.3908740149703459
0.5102029928779108,0.3912010763882704
0.5110565765958014,0.3915216613424738
0.5117234388754035,0.3919393932524962
0.51255034810211,0.3923247428439124
0.5136973512230254,0.3926728527689311
0.5145242604497319,0.3930209626939498
0.515217797220518,0.3933658343871079
0.5160980554295926,0.3936896575731718
0.5167649177091947,0.3940264336866784
0.5178318973565579,0.3943599715683242
0.5187921790391848,0.3946546506676424
0.5197524607218117,0.3949849503174277
0.5207127424044387,0.3953136308512825
0.5215930006135133,0.3956730745878136
0.5226866547520606,0.3960519477155084
0.5236202619435034,0.3964761560892521
0.5245538691349463,0.3967578822611278
0.5254608018352049,0.3970671334038188
0.5262877110619115,0.3974087668651163
0.5271946437621703,0.3977730679494382
0.5281815999359812,0.3981308925700389
0.5293552775480808,0.3984498584083119
0.5303155592307077,0.3988546373908918
0.5313558643868869,0.3991217915193946
0.5325028675078023,0.3994731396762739
0.5334898236816132,0.3997937246304772
0.5346101523113447,0.4001029757731683
0.5356504574675238,0.4004235607273716
0.5367707860972551,0.40077005153646
0.5379177892181707,0.401048539476475
0.5389580943743498,0.4014338890678911
0.5399450505481608,0.4018143813115163
0.5411454026514444,0.4021948735551414
0.542345754754728,0.4024636467995744
0.5432793619461709,0.402840900811339
0.5443463415935341,0.4031712004611242
0.5451999253114247,0.4034885471834669
0.5461602069940515,0.4038415144562766
0.5472005121502307,0.4041637185264102
0.5483475152711462,0.4044843034806135
0.5493077969537731,0.4047903163914439
0.5506681960041612,0.4050866146066924
0.5518418736162608,0.4053748172422893
0.5531755981754648,0.4057148315876565
0.5544559737523007,0.4059852239480199
0.5554162554349276,0.406330095641178
0.5566699565205794,0.4066247747404962
0.557870308623863,0.4069000244486505
0.5591240097095148,0.4072092755913416
0.5605911067246392,0.4075703384438029
0.561844807810291,0.4078941616298668
0.5630718344047587,0.4081807451495334
0.5642988609992264,0.4084414228143149
0.5658459814879031,0.4087085769428177
0.5670996825735549,0.4089773501872507
0.5683000346768385,0.4092704101706386
0.5696070847448584,0.4095521363425142
0.5709674837952466,0.4098581492533447
0.5723278828456347,0.4101447327730113
0.5737683053695751,0.4104216015970959
0.5750220064552268,0.4107162806964141
0.5761956840673265,0.4110158171435233
0.5776094321000826,0.4112845903879564
0.5789164821681027,0.4115857459509958
0.5803035557096748,0.4118642338910108
0.5817973272159833,0.4121038630486981
0.5832110752487396,0.4123985421480163
0.5844647763343914,0.4126268374941914
0.5857184774200432,0.412908563666067
0.5868921550321428,0.4131546692874756
0.5883325775560831,0.4134185851841178
0.5897196510976553,0.413663071689596
0.5912134226039638,0.4139318449340291
0.5926805196190883,0.414179569671368
0.5940142441782923,0.4144499620317314
0.5954279922110486,0.4147397837832586
0.596868414734989,0.4150393202303678
0.5980687668382726,0.4153178081703828
0.5994291658886607,0.41560762992191
0.6008162394302329,0.4158796413982037
0.6022033129718051,0.4161807969612432
0.6035903865133773,0.4164236643507912
0.6048974365813972,0.4167232007979003
0.6059644162287604,0.4170340710565217
0.6074848622262531,0.4173060825328154
0.6090053082237457,0.4175667601975969
0.6102590093093975,0.4178695348765667
0.6115660593774174,0.4181625948599545
0.6129531329189896,0.4184880371619488
0.6142601829870096,0.4187568104063819
0.615727280002134,0.4190417748101182
0.617034330070154,0.4193251200979241
0.6184480781029101,0.4196570388636397
0.6195950812238257,0.4199452414992365
0.6209554802742138,0.4202642073375096
0.6222358558510497,0.4205734584802006
0.6235962549014378,0.4208244214494002
0.6248766304782736,0.4211077667372061
0.625996959108005,0.4215012119082738
0.6273573581583931,0.4217829380801495
0.6288778041558857,0.4220258054696974
0.6303449011710102,0.4222881022504092
0.6317053002213983,0.4225487799151907
0.6329056523246819,0.4228402207826482
0.6342127023927019,0.4230830881721962
0.6354930779695377,0.4233534805325596
0.6365067086345328,0.4236400640522262
0.6377604097201846,0.4239201711081715
0.6389874363146523,0.42421646932342
0.6401344394355678,0.4245046719590169
0.6414681639947718,0.4247507775804255
0.6428018885539758,0.4250179317089282
0.6436554722718664,0.4253935666047624
0.6449091733575182,0.4256882457040806
0.6459228040225132,0.4260266409335175
0.6472031795993491,0.4263261773806266
0.6484302061938169,0.4266143800162235
0.6495238603323642,0.4269042017677508
0.650457467523807,0.4272069764467205
0.651764517591827,0.4275291805168542
0.6530448931686628,0.4278319551958239
0.654111872816026,0.428136348990724
0.6552588759369415,0.4284974118431854
0.656405879057857,0.4288082821018067
0.6575795566699565,0.4290786744621702
0.6586998852996879,0.4293539241703245
0.6597935394382353,0.4296680326608065
0.6608871935767825,0.4300355719769891
0.6617674517858572,0.430404730409102
0.6627277334684841,0.4307852226527272
0.6637146896422951,0.4311317134618155
0.6645949478513697,0.4314798233868343
0.6654752060604444,0.4318554582826685
0.6665155112166236,0.4321857579324537
0.667662514337539,0.4324933899592145
0.6688628664408226,0.4327913072903933
0.6699298460881858,0.4331297025198301
0.6708367787884446,0.4334470492421728
0.6717703859798875,0.4337951591671915
0.6727573421536984,0.4341513646718619
0.6735309023980368,0.4345156657561838
0.6743578116247433,0.4348734903767844
0.6753714422897383,0.4352377914611064
0.6764384219371016,0.4355875205020554
0.6773987036197284,0.435924296615562
0.6783589853023554,0.4362983123954658
0.6794259649497186,0.4365946106107143
0.6803328976499773,0.4369297676082905
0.6811598068766839,0.4372875922288912
0.682226786524047,0.4375741757485578
0.6831070447331217,0.4378704739638063
0.683853930486276,0.4382412515118495
0.6846008162394303,0.4385796467412863
0.6852943530102164,0.4389585198689811
0.6861212622369228,0.4393390121126063
0.6868681479900771,0.4396952176172766
0.6877484061991518,0.4400919010202049
0.6883619194963856,0.4404788697275513
0.6893755501613806,0.4408205031888488
0.6902024593880872,0.441155660186425
0.69113606657953,0.4414940554158618
0.6920696737709728,0.4418016874426226
0.6928165595241271,0.4421562738313626
0.6934300728213609,0.4425270513794058
0.6941502840833311,0.4428783995362852
0.6948704953453013,0.4432329859250252
0.6955907066072715,0.4435584282270194
0.6963909413427939,0.4439243484272717
0.6971645015871323,0.4442805539319421
0.6978847128491024,0.4446335212047518
0.6986849475846248,0.4449945840572131
0.6993251353730427,0.4453362175185105
0.6999653231614607,0.4456584215886441
0.7007655578969831,0.4460534858756422
0.7015124436501373,0.4463951193369396
0.7020459334738189,0.4467998983195195
0.7027661447357891,0.4471609611719809
0.7035663794713116,0.4475155475607208
0.7042332417509136,0.4478490854423667
0.7049267785216997,0.4482457688452951
0.7055669663101176,0.4486311184367111
0.7061804796073515,0.4489921812891725
0.706660620448665,0.4493888646921008
0.707354157219451,0.4497628804720047
0.7079409960255009,0.4501482300634207
0.7087145562698391,0.4504769105972757
0.7093814185494411,0.4508525454931099
0.7100216063378592,0.4512152274615014
0.7108485155645656,0.4515633373865202
0.7117287737736403,0.4519195428911906
0.7123689615620582,0.4522822248595822
0.7130091493504761,0.4526238583208796
0.7135159646829736,0.4530399711149718
0.714289524927312,0.4533540796054538
0.7147429912774413,0.4537167615738454
0.7154898770305956,0.4540600141510732
0.7161834138013817,0.4543935520327191
0.7167169036250634,0.454757853117041
0.7173570914134813,0.4551496791721784
0.7180773026754514,0.4554994082131274
0.7186107924991331,0.4558734239930313
0.7193576782522874,0.4562393441932836
0.7198644935847849,0.4566133599731874
0.7205847048467551,0.4569987095646035
0.7211715436528048,0.457330628330319
0.7219184294059591,0.4576350221252191
0.7222918722825362,0.4580252290644262
0.7229320600709541,0.4584121977717726
0.7237056203152925,0.4587862135516765
0.7242391101389741,0.4591537528678591
0.7246392275067353,0.4595326259955539
0.7250393448744965,0.4599147373551093
0.7256528581717304,0.4602401796571036
0.7260796500306756,0.4605899086980526
0.7265331163808051,0.4609768774053991
0.7269332337485662,0.4613492740693726
0.7276267705193523,0.461660144327994
0.7281069113606657,0.4620163498326644
0.7288271226226359,0.4623466494824496
0.729467310411054,0.4627239034942141
0.729814078796447,0.4631108722015605
0.7306143135319694,0.4634265998079728
0.7311744778468351,0.4638232832109011
0.7316812931793326,0.4641811078315018
0.7323214809677505,0.4645713147707089
0.7330150177385366,0.4649615217099159
0.7335485075622182,0.4653549668809836
0.7341620208594521,0.4656901238785598
0.7345621382272133,0.4660673778903243
0.7350156045773427,0.4664381554383675
0.7355224199098402,0.4668024565226895
0.7361626076982581,0.4671764723025933
0.7366427485395716,0.4675262013435424
0.7372029128544373,0.4678710730367005
0.7375763557310144,0.4682321358891618
0.7379497986075916,0.4686466295673236
0.7384832884312732,0.4689882630286211
0.7390434527461389,0.4693493258810824
0.7396569660433727,0.4696958166901708
0.7402171303582384,0.4700941192090295
0.7405638987436315,0.470542614321728
0.7410973885673131,0.4708551036962797
0.7418442743204673,0.4711934989257166
0.7423244151617808,0.4715739911693417
0.742724532529542,0.4719561025288972
0.7432313478620395,0.4723204036132191
0.7439248846328256,0.4726523223789347
0.744378350982955,0.473008527883605
0.7449385152978207,0.473403592170603
0.7454986796126863,0.4737500829796914
0.7459521459628158,0.4741030502525011
0.7466190082424178,0.4744543984093805
0.7472058470484676,0.4747976509866083
0.7478193603457014,0.4751732858824424
0.7482461522046467,0.4755796839809527
0.7487796420283284,0.4759439850652746
0.7492864573608259,0.476335811120412
0.7499266451492438,0.4766531578427547
0.7504334604817413,0.477014220695216
0.7510202992877911,0.477404427634423
0.7516071380938408,0.4778075875010726
0.7520606044439703,0.4782010326721403
0.7525407452852837,0.4785928587272777
0.7531542585825175,0.4789328730726448
0.7535277014590946,0.479308507968479
0.7542479127210648,0.4796048061837276
0.7547547280535624,0.4799691072680495
0.7553949158419803,0.4803026451496953
0.7558483821921097,0.4806831373933205
0.7562218250686868,0.4811122031148552
0.7570220598042092,0.4814603130398739
0.7574488516631546,0.4818343288197778
0.757928992504468,0.4822358695704971
0.7583557843634132,0.4826147426981919
0.7591026701165675,0.4829320894205346
0.7597428579049854,0.4833449639827661
0.7604363946757715,0.4836930739077849
0.7609965589906372,0.4840768043832706
0.7613700018672144,0.4844589157428261
0.7617967937261597,0.4848539800298241
0.7624103070233935,0.485227995809728
0.7631571927765478,0.4855501998798616
0.7636106591266771,0.48589669068895
0.7644375683533836,0.4862755638166448
0.7649177091946971,0.486691676610737
0.765557896983115,0.4870818835499441
0.7662514337539011,0.4873976111563564
0.7666782256128465,0.4878088666026576
0.7672917389100803,0.4881456427161641
0.7679052522073141,0.4885293731916499
0.7684387420309957,0.488909865435275
0.7688922083811252,0.4892855003311092
0.7693990237136227,0.4896740881543859
0.7700392115020406,0.4900205789634743
0.7705727013257222,0.4903686888884931
0.7711328656405879,0.4907848016825852
0.7716930299554536,0.4911539601146982
0.7722798687615033,0.4915020700397169
0.7728400330763691,0.4918809431674117
0.7735068953559711,0.4922760074544097
0.774120408653205,0.4926937393644322
0.7747339219504388,0.4930904227673606
0.7754808077035931,0.4934158650693548
0.776120995492011,0.4937866426173981
0.7768145322627971,0.4941558010495109
0.7778281629277921,0.4945087683223206
0.7788684680839713,0.4948584973632697
0.779428632398837,0.4952373704909645
0.7800688201872549,0.4955984333434258
0.7808157059404092,0.4960194034853089
0.7815892661847476,0.4964128486563766
0.7823361519379017,0.4967706732769773
0.7831097121822401,0.4971382125931599
0.7838299234442103,0.497473369590736
0.7846301581797327,0.4978036692405213
0.7858038357918322,0.4981177777310033
0.7867641174744592,0.4984885552790465
0.7875110032276135,0.4989321930439541
0.7886313318573448,0.4992657309256
0.7897516604870762,0.4996446040532948
0.7908186401344395,0.5000380492243626
0.791992317746539,0.5004088267724057
0.7928192269732455,0.5008249395664979
0.793646136199952,0.5012944831862907
0.7944997199178425,0.5017073577485222
0.7953799781269172,0.5021072793833111
0.7964469577742804,0.5024586275401905
0.797647309877564,0.5028536918271885
0.7986609405425592,0.5031937061725557
0.7996745712075543,0.5036454395171148
0.8007415508549175,0.5040275508766703
0.8015151110992558,0.5043837563813407
0.8024487182906986,0.50478529713206
0.8033556509909573,0.5052418878244102
0.8045293286030569,0.5056272374158262
0.8054362613033157,0.5060498266736396
0.806556589933047,0.5065209894093627
0.8077302675451465,0.5068836713777544
0.8086905492277735,0.5073742635046412
0.8097041798927685,0.5078227586173397
0.8106377870842114,0.5083376374831814
0.8113579983461815,0.5088136575666954
0.812158233081704,0.5092767247227669
0.8130651657819628,0.5097705550815144
0.8138654005174851,0.5102400987013072
0.8146923097441916,0.51060925713342
0.8155458934620822,0.5110205125797213
0.8162927792152365,0.5114981517791656
0.8170396649683908,0.5119725527467492
0.8180266211422017,0.5125473389020128
0.8188001813865401,0.5130800280430879
0.8197071140867987,0.5135932877929993
0.8203473018752168,0.5140903563836074
0.821067513137187,0.5146262837565433
0.821761049907973,0.5151881169843642
0.8223478887140228,0.5157386164006729
0.823068099975993,0.5162729246576784
0.8239483581850676,0.5167538020889834
0.8246152204646696,0.5172751574185463
0.8252820827442716,0.5178742303127646
0.8257355490944011,0.5186028324814085
0.8262690389180827,0.5192456215057454
0.8267758542505802,0.5198074547335664
0.8273093440742618,0.520448624641973
0.8281362533009683,0.5211059857096828
0.8286697431246499,0.5217665850092532
0.8293366054042519,0.5224239460769631
0.8298967697191176,0.5229355867109441
0.8304035850516152,0.5235816139671416
0.8312304942783216,0.5241207795719381
0.8319507055402918,0.5247927126830209
0.8326175678198938,0.5253108297807231
0.8330710341700233,0.5259374276457569
0.8336311984848889,0.5265089755691598
0.8340846648350183,0.5270789043766323
0.8346181546586999,0.5275792111991011
0.8351516444823815,0.528252763426114
0.8357384832884313,0.5289068862619632
0.8362186241297447,0.5294217651278049
0.8368854864093468,0.5300337909494658
0.8373389527594761,0.5305648609746106
0.8378724425831577,0.5311315515502225
0.8383792579156553,0.531670717155019
0.8390461201952573,0.5323070297156347
0.839606284510123,0.5329401040443896
0.8400597508602523,0.5334857461129074
0.8407532876310384,0.5339828147035156
0.8413401264370882,0.5345495052791275
0.8417669182960335,0.5351858178397432
0.8423537571020833,0.5356602188073268
0.8431006428552376,0.5361054756881648
0.8436074581877351,0.5367175015098256
0.8441942969937849,0.5373133361721832
0.8447811357998346,0.537818500342443
0.84520792765878,0.5383900482658459
0.8457947664648297,0.5389551197255275
0.8465950012003521,0.5393663751718287
0.8472085144975859,0.5398472526031336
0.8478487022860038,0.5403346064981599
0.8483555176185015,0.5408786294507473
0.848862332950999,0.5414485582582198
0.8493691482834965,0.5419731518196435
0.8500626850542826,0.5423730734544324
0.8506495238603323,0.5428733802769012
0.8513430606311184,0.5433898782586732
0.8519565739283523,0.5438529454147446
0.852490063752034,0.5444309698018688
0.85318360052282,0.5448665119871248
0.8537437648376858,0.5453651996936633
0.8543039291525514,0.5458574109364804
0.8548107444850489,0.5462379031801056
0.8555309557470191,0.5466734453653616
0.8561978180266211,0.5470976537391053
0.8566779588679346,0.5474975753738943
0.8572914721651684,0.547976833689269
0.8579049854624023,0.5484593302365043
0.8585985222331884,0.5489256356244363
0.8593187334951585,0.5494113704035323
0.8600922937394969,0.5498938669507676
0.8605190855984423,0.5503990311210273
0.8609458774573875,0.5508685747408201
0.8615060417722532,0.5512782110711909
0.8621729040518552,0.5517671840821474
0.8627063938755368,0.5522707291364769
0.8633999306463229,0.55269169927836
0.8638267225052683,0.5531839105211772
0.8643602123289498,0.5536226909382939
0.8650270746085519,0.5541569991952994
0.8655872389234175,0.5546589251336985
0.8661740777294673,0.5550993246667455
0.8666808930619648,0.5555737256343292
0.8671610339032783,0.5559963148921426
0.8679879431299848,0.556423761497747
0.8686014564272186,0.5568269213643966
0.8691082717597162,0.5572802738248861
0.8696150870922137,0.5577174351260724
0.8699351809864226,0.5581805022821439
0.8704419963189202,0.5586484267860063
0.8710021606337859,0.5590791116234713
0.8715623249486516,0.5595373214317518
0.8720958147723332,0.5599323857187498
0.872682653578383,0.5603193544260963
0.8732428178932486,0.5607192760608852
0.8738563311904826,0.5612260593470753
0.8742831230494278,0.5616875073872164
0.8747099149083731,0.5621392407317757
0.8751900557496866,0.5625731638011013
0.875643522099816,0.5630605176961275
0.876310384379418,0.5635090128088261
0.8769238976766518,0.5639720799648976
0.877644108938622,0.5645258176130669
0.8782842967270399,0.5650471729426298
0.8788711355330897,0.5655280503739348
0.879324601883219,0.5660234998486127
0.8799114406892689,0.566541616946315
0.880604977460055,0.5669642062041285
0.8811117927925525,0.5675519452868345
0.8817786550721545,0.5681299696739587
0.8823121448958361,0.5686059897574727
0.8830857051401745,0.5691257259711052
0.8837258929285924,0.569666510691832
0.8844461041905626,0.5702898703250051
0.885246338926085,0.570952088740506
0.8861532716263437,0.5714783014178598
0.8870068553442343,0.572172902151967
0.8877537410973886,0.5727493074231608
0.8885806503240951,0.5734811478236653
0.8894609085331697,0.5742453705427762
0.8900744218304036,0.5751585519274766
0.890527888180533,0.5763486021362616
0.8910347035130305,0.5776082743300504
0.8915948678278962,0.5789731890593098
0.89220838112513,0.580108189326464
0.8928218944223639,0.5811946161157086
0.8932753607724933,0.5828898304947533
0.8938088505961749,0.5842369349487793
0.8942623169463042,0.5855095600700105
0.8947424577876177,0.587122199536609
0.8951159006641949,0.5884579701791228
0.8956493904878764,0.5900204170518814
0.8962095548027421,0.5913723788536983
0.896476299714583,0.5926579569023722
0.8969030915735282,0.5936229499968427
0.8972231854677372,0.5952177791882076
0.897489930379578,0.5963576368031528
0.8976499773266825,0.5976318810403144
0.8979433967297074,0.5989142208571276
0.8981034436768118,0.5999974094145115
0.8981834671503641,0.6009559260452607
0.898476886553389,0.6019565396901984
0.8985302355357572,0.6029377239439722
0.8985835845181254,0.6038622391401847
0.8987169569740457,0.6048045646116308
0.8988503294299661,0.6058278458795928
0.8989036784123343,0.6066244509173101
0.8989837018858865,0.6076137307507354
0.8990637253594388,0.6084297651796167
0.8991970978153592,0.6091826540872153
0.8992771212889115,0.609925828299232
0.8993571447624636,0.6106576686997366
0.8994638427271999,0.6112972194922128
0.8995438662007522,0.6119885819944594
0.8996238896743045,0.6128386178578772
0.8996772386566726,0.6135866494176849
0.8997572621302249,0.6143136324703985
0.899783936621409,0.6150276625956695
0.8998906345861453,0.6157837897351288
0.8999439835685135,0.6165755374250552
0.8999973325508815,0.6171616573918309
0.9000773560244338,0.6178368287347742
0.9001840539891701,0.6184423780927139
0.9002374029715383,0.6190997391604236
0.9002907519539065,0.6196680488519658
0.9003974499186428,0.6202930276010693
0.900450798901011,0.6208969578430785
0.9005574968657473,0.6214911733895059
0.9006908693216676,0.6221469153412853
0.9007442183040358,0.6228836130895808
0.900824241777588,0.6234956389112417
0.9008509162687722,0.624175667601976
0.9009842887246926,0.6248476007130587
0.9010109632158768,0.625482294157744
0.9010909866894288,0.6261347978776628
0.9011976846541652,0.6267824442497907
0.9013043826189016,0.6274786640998282
0.9014110805836378,0.6281748839498656
0.90149110405719,0.6288678655680425
0.9016778254954788,0.6294232223321422
0.9017578489690308,0.6301194421821796
0.9019445704073196,0.6307913752932623
0.902157966336792,0.63138720995562
0.9023446877750808,0.6320494283711208
0.9024780602310012,0.6326889791635971
0.9025847581957376,0.633377103433983
0.902744805142842,0.6341348496893726
0.90279815412521,0.6347225887720787
0.9030648990370508,0.6353443292893215
0.9031449225106032,0.6360114050526132
0.9033316439488916,0.6366299073379953
0.9035450398783644,0.6373180316083812
0.9037851102990212,0.6379235809663207
0.9039451572461256,0.6385938949614731
0.90410520419323,0.6393662132602357
0.9043986235962548,0.6400057640527119
0.9046920429992796,0.6406177898743728
0.9049321134199364,0.6412330539278943
0.9051721838405932,0.6418742238363009
0.905465603243618,0.6425348231358714
0.9056523246819068,0.6433298090576584
0.906025767558484,0.6439887892412984
0.9062658379791404,0.6446866282072663
0.9065859318733496,0.6453553230864884
0.9069060257675584,0.6458766784160512
0.9072794686441356,0.6464611792668967
0.9074928645736082,0.647060252161115
0.9078129584678172,0.647805045489062
0.9079996799061056,0.6485093609187511
0.9083197738003148,0.6491845322616945
0.908719891168076,0.649713983170909
0.9091200085358372,0.650342200151873
0.9095201259035984,0.6509250818867882
0.9098135453066232,0.6516067296934528
0.910026941236096,0.6522689481089535
0.9102403371655684,0.6527660166995617
0.9105871055509616,0.6532906102609853
0.9108805249539864,0.6539900683428834
0.9112006188481956,0.6546781926132693
0.9114673637600362,0.6553468874924914
0.9118941556189816,0.6560754896611353
0.91208087705727,0.6566195126137226
0.912374296460295,0.6572266810875925
0.9127744138280562,0.6580524302120556
0.9132545546693696,0.6585673090778973
0.9134946250900264,0.6590838070596693
0.9139214169489716,0.659750882822961
0.9142148363519966,0.6604778658756746
0.9144282322814692,0.661138465175245
0.9148283496492304,0.6617100130986479
0.915015071087519,0.6624467108469434
0.915361839472912,0.663194742406751
0.9156552588759368,0.6639120107638827
0.9157886313318574,0.6644803204554249
0.9161087252260663,0.6652396858267449
0.916348795646723,0.6659974320821345
0.9167489130144842,0.6666904137003113
0.9170690069086932,0.6672749145511567
0.917335751820534,0.668045613733989
0.9177091946971112,0.6687515482796084
0.9180292885913202,0.6694315769703426
0.9184560804502654,0.6701650364867775
0.9186961508709222,0.6710474546688018
0.9190162447651312,0.6719055861118712
0.9194163621328924,0.672841435119596
0.9197097815359172,0.673752997388366
0.9200298754301262,0.6745771273968988
0.9204566672890716,0.6754741176222959
0.9208301101656486,0.6765297812088643
0.9210968550774894,0.6774931551874046
0.9214436234628824,0.6786135834111858
0.9217103683747232,0.6796838190411272
0.9220571367601162,0.6808803457136334
0.9223772306543252,0.6819813445462508
0.9228040225132704,0.6836619868819227
0.923230814372216,0.6852891983918941
0.92397770012537,0.6878360677502869
0.9249113073168128,0.6898016744896951
0.9257382165435194,0.6911714465667457
0.9263517298407532,0.6922287292692444
0.9268852196644348,0.6932325811460427
0.9273653605057484,0.6942833873848201
0.927872175838246,0.6952419040155694
0.9281389207500866,0.6960012693868893
0.928539038117848,0.6966181525563412
0.9287791085385046,0.6975669544915085
0.9289925044679772,0.6983700359929471
0.92920590039745,0.6990921616978697
0.9295526687828428,0.6997786668523253
0.929872762677052,0.700414979412941
0.9300061351329724,0.7010577684372779
0.930219531062445,0.7017766559103399
0.9302995545359972,0.7024437316736316
0.9303795780095496,0.7031010927413414
0.930539624956654,0.7038005508232394
0.9306996719037584,0.7044643883546706
0.9309130678332312,0.7051411788135442
0.9311264637627036,0.7056884399979922
0.9313665341833604,0.7063134187470957
0.9314465576569126,0.7069383974961991
0.931553255621649,0.7075018498399503
0.9316866280775694,0.7082255946608033
0.931873349515858,0.7088473351780461
0.9321400944276989,0.7095079344776165
0.932220117901251,0.7101782484727689
0.9323001413748032,0.7108728492068761
0.9323801648483556,0.7114622074055125
0.9324868628130918,0.7120661376475217
0.932566886286644,0.7129194117428002
0.9326735842513804,0.7136836344619111
0.9327536077249328,0.714452714528813
0.932886980180853,0.7152217945957149
0.9329670036544052,0.7161479289078577
0.933180399583878,0.7170287279739517
0.9333671210221663,0.7182624943128553
0.9337672383899276,0.7195513105933898
0.934194030248873,0.7214262468407
0.934514124143082,0.723568337216513
0.9346208221078184,0.725446511695684
0.9347275200725548,0.7273700214209038
0.9348342180372908,0.7291591445239071
0.934860892528475,0.7303734814716468
0.934860892528475,0.7317740167513734
0.9349675904932112,0.7330790241912111
0.9350209394755796,0.7343306008053483
0.9350476139667636,0.7356291317814647
0.9351543119315,0.7368774701637412
0.9351543119315,0.7379719925326373
0.935180986422684,0.7394405306814373
0.9352343354050522,0.7409965010904745
0.9352343354050522,0.7423193188055458
0.9352876843874204,0.7437506172879484
0.9353143588786044,0.7449908600905734
0.9353143588786044,0.7467476008749703
0.9354210568433408,0.7489512176561354
0.9355811037904452,0.75089901412031
0.9356878017551816,0.7539138079825654
0.935821174211102,0.7558389368237155
0.936514710981888,0.7586999146725905
0.9371015497879378,0.7601360705027841
0.937474992664515,0.7615106999276255
0.9377684120675398,0.7626813207452466
0.9380084824881966,0.7640219487355514
0.9383285763824056,0.7651164711044476
0.9385953212942464,0.7661057509378729
0.938808717223719,0.7672375129731664
0.9390487876443756,0.7683514647332264
0.9393155325562164,0.7692274064515293
0.939475579503321,0.770177827502627
0.9396623009416096,0.7709711943084837
0.9398756968710822,0.7717143685205005
0.9401424417829228,0.7726178352096188
0.940435861185948,0.7734840622323399
0.9405959081330524,0.77434543190727
0.9409426765184454,0.7753136632336012
0.9412627704126544,0.7762349401979531
0.9416895622715996,0.7770736422498588
0.9419563071834404,0.7780888279381692
0.9421697031129131,0.7792529722920691
0.9423830990423858,0.7801612963289785
0.9427298674277788,0.7808947558454132
0.9429966123396196,0.781835462200929
0.9432366827602764,0.7826239716589948
0.9435034276721171,0.7834011473055482
0.9439302195310624,0.7841313685901224
0.94443703486356,0.7849700706420281
0.9449171757048734,0.7860564974312726
0.9453172930726348,0.7869324391495756
0.94574408493158,0.7878099999838089
0.9462242257728932,0.7888316621358406
0.9468644135613112,0.7896816979992585
0.9473178799114408,0.7904232530953449
0.9478780442263064,0.7912943374658569
0.9483048360852516,0.7920472263734556
0.9488916748913014,0.7927369697597718
0.949398490223799,0.7935206218700466
0.9500920269945852,0.7942249372997356
0.9507855637653712,0.7949664923958221
0.9513190535890528,0.7958391958822644
0.9519325668862868,0.796637420035912
0.9526261036570728,0.7974243103780474
0.9531062444983862,0.7981431978511093
0.9537997812691724,0.7989624705118511
0.9542532476193016,0.799660309477819
0.9546266904958788,0.8001897603870335
0.9548667609165356,0.8008746464255587
0.9551868548107444,0.8016404882606
0.9556403211608738,0.8024354741823869
0.9560404385286352,0.8030086412217201
0.9563071834404758,0.8036222861593113
0.9567073008082372,0.8044059382695861
0.957027394702446,0.8050827287284597
0.9574275120702072,0.805651038420002
0.957694256982048,0.8063375435744575
0.9579343274027048,0.8068799474111146
0.9582544212969136,0.80746444826196
0.9585478406999388,0.808102379938506
0.9587345621382272,0.8088552688461047
0.958974632558884,0.8094430079288107
0.9592680519619088,0.8099692206061646
0.9595081223825656,0.8106136287464318
0.9597215183120382,0.8112742280460024
0.9598282162767744,0.8119542567367366
0.9600149377150632,0.8125419958194426
0.960361706100456,0.8131232584384275
0.9604684040651924,0.8137887150857889
0.9606817999946652,0.8144525526172199
0.9609218704153218,0.8150937225256265
0.9611886153271626,0.8157381306658938
0.9615353837125556,0.8163226315167392
0.9619355010803168,0.8169459911499123
0.9622555949745258,0.8176195433769253
0.9624423164128144,0.8183028102995202
0.9626823868334712,0.819041127163746
0.9627890847982076,0.8196499147535463
0.96300248072768,0.8202846081982316
0.9632425511483368,0.8210196868305968
0.9634025980954414,0.8217563845788922
0.963562645042546,0.8228428113681368
0.963669343007282,0.8237851368395829
0.9638827389367548,0.8248667062810364
0.9640694603750434,0.8263805796758854
0.9646562991810932,0.8282360865320317
0.9651897890047748,0.8315989903193058
0.9654031849342474,0.8353990554077663
0.9654565339166156,0.8386923372100366
0.9655098828989837,0.840978528903648
0.9655632318813518,0.8429829944253838
0.9656699298460882,0.8445826809645397
0.9657499533196404,0.846179129271835
0.9657766278108244,0.8478937730420436
0.9658566512843768,0.8496796579131862
0.9659100002667448,0.8511174328593102
0.9660433727226652,0.8526555929931139
0.9661233961962176,0.8537695447531739
0.966283443143322,0.8554339959295425
0.9664701645816106,0.8566693813843765
0.9666302115287152,0.8577120920435024
0.9667635839846356,0.8588049952964683
0.9670303288964764,0.8597473207679143
0.9671103523700284,0.8609211798173961
0.967270399317133,0.8619153169986125
0.9673504227906852,0.8626811588336536
0.9674304462642376,0.8635425285085837
0.967590493211342,0.8642549395179244
0.9677238656672624,0.8651163091928545
0.9677505401584464,0.8660181567660427
0.967937261596735,0.8666334208195641
0.9680973085438396,0.867433264089142
0.968204006508576,0.8680566237223152
0.968310704473312,0.8688127508617745
0.9683640534556804,0.8696190705950737
0.9684440769292326,0.8703314816044143
0.9685507748939688,0.871079513164222
0.9686307983675212,0.8717482080434441
0.9687908453146256,0.8723408044739411
0.9688441942969938,0.8730175949328148
0.9690042412440982,0.8736749560005246
0.9690842647176504,0.8743258406045131
0.9691109392088346,0.8749540575854772
0.969244311664755,0.8755903701460929
0.9692709861559392,0.8761683945332169
0.9693510096294912,0.8768581379195332
0.9694577075942276,0.8775074034075914
0.9694577075942276,0.8781906703301863
0.969564405558964,0.8788771754846418
0.969591080050148,0.8794406278283932
0.9696444290325162,0.8801967549678524
0.9697778014884366,0.8807683028912553
0.9698578249619888,0.8813803287129162
0.969911173944357,0.8820474044762079
0.9699378484355412,0.8826140950518198
0.9700445464002774,0.8832423120327838
0.9700712208914616,0.8838316702314203
0.9701245698738296,0.8844793166035482
0.970177918856198,0.8852305863952165
0.9702045933473818,0.8860288105488641
0.970231267838566,0.8868545596733272
0.970231267838566,0.8877936469129126
0.970231267838566,0.8884461506328315
0.970284616820934,0.889335045278577
0.970284616820934,0.8904279485315428
0.970284616820934,0.8914479915676442
0.9703112913121182,0.8929505311509809
0.9703112913121182,0.8945453603423459
0.9704179892768544,0.8986320089504729
0.9704446637680386,0.90170671010215
0.9704713382592228,0.9037030800442344
0.9704713382592228,0.9052558122214108
0.9704713382592228,0.9065090079514784
0.9704980127504068,0.9078010624638736
0.9704980127504068,0.9088745363256756
0.9705246872415908,0.909732667768745
0.9705246872415908,0.9105843227480932
0.9705246872415908,0.911393880713253
0.9705246872415908,0.9123135385616744
0.9705246872415908,0.913233196410096
0.9705246872415908,0.9140945660850264
0.9705246872415908,0.9149284107891408
0.9705513617327748,0.915754159913604
0.9705513617327748,0.9165426693716696
0.9705513617327748,0.9174574698723004
0.9705513617327748,0.9182265499392022
0.970578036223959,0.9188806727750514
0.970578036223959,0.9197177557110268
0.970578036223959,0.9205629342266536
0.970578036223959,0.9214518288723992
0.970578036223959,0.922144810490576
0.970578036223959,0.923036943368182
0.970578036223959,0.9239387909413702
0.9706047107151432,0.9250511235854998
0.9706580596975112,0.9261521224181172
0.9706847341886954,0.9275040842199342
0.9707380831710636,0.9290357678900169
0.970898130118168,0.9315891137121308
0.9719117607831632,0.9339789288252828
0.9729520659393422,0.935525184538738
0.9740457200778896,0.936558180502282
0.9750326762517004,0.9375312691764044
0.9759929579343274,0.9383861623876132
0.9767398436874816,0.939362489293596
0.97751340393182,0.9402060486932924
0.9784736856144468,0.941064180136362
0.9791938968764172,0.9417296367837232
0.9800208061031236,0.9423643302284088
0.9806609938915416,0.9430475971510036
0.9813545306623276,0.943677433247898
0.9819947184507456,0.9443526045908414
0.9825548827656112,0.9449953936151784
0.9833817919923178,0.9456155150164908
0.9839953052895516,0.946391071547114
0.9845287951132332,0.9470775767015694
0.985142308410467,0.9477527480445128
0.9858091706900692,0.9482724842581454
0.9863426605137507,0.9490415643250472
0.9869828483021686,0.9497280694795028
0.9875963615994025,0.950251043924996
0.9882098748966364,0.9507853521820016
0.988716690229134,0.9514589044090146
0.9892501800528156,0.9520806449262572
0.9898103443676812,0.9526667648930331
0.9903171597001788,0.9532609804394604
0.990770626050308,0.953885959188564
0.991357464856358,0.954540082024413
0.9918909546800396,0.955142393150492
0.9923710955213528,0.9558726144350662
0.9930112833097708,0.9565817872125462
0.9935180986422684,0.957193813034207
0.99405158846595,0.9578009815080768
0.9945050548160794,0.9583822441270616
0.995038544639761,0.959012080223956
0.9956253834458108,0.959664583943875
0.9963189202165968,0.9604352831267072
0.996692363093174,0.9610748339191836
0.9974392488463284,0.9618196272471304
0.9978393662140894,0.9626340425600812
0.9985862519672436,0.963448457873032
0.999653231614607,0.9645559331693708
0.999973325508816,0.9694521397426578
0.999973325508816,0.9716136595096344
0.999973325508816,0.9731275329044836
0.999973325508816,0.9743888242142026
0.999973325508816,0.975611256741594
0.999973325508816,0.976482341112106
0.999973325508816,0.9775493385101868
0.999973325508816,0.9787750092694388
0.999973325508816,0.9798031478851916
0.999973325508816,0.9806321352415154
0.999973325508816,0.9819241897539106
0.999973325508816,0.9829118504714056
0.999973325508816,0.9839804669854166
0.999973325508816,0.9852012803968776
0.999973325508816,0.986392949721593
0.999973325508816,0.987552236727702
0.999973325508816,0.9886985708063684
0.999973325508816,0.9900732002312096
0.999973325508816,0.9913765885551172
0.999973325508816,0.9939056476382766
0.999973325508816,0.9965091860542308
