st_petersburg,ptb_diag,chapman,ningbo,georgia,china,ptbxl
0.46888100612705574,0.5288956024372443,0.4777807210845806,0.501594328738577,0.5071685489554472,0.47690924618250563,0.5882509528684798
0.3982586262495969,0.5382134795227346,0.47541722608998715,0.5109240553436306,0.5019598788908702,0.507628874848585,0.6071681135432896
0.36343115124153497,0.5865001103209491,0.48761825248642937,0.5212715021289104,0.5115433522320829,0.5449671589949713,0.6637686239232599
0.3334408255401483,0.6347782548923098,0.49132121329743816,0.526237598723148,0.5164853203040382,0.5703574542084205,0.671576947471437
0.34150274105127376,0.6680782090666848,0.5153372794012636,0.5423761667053139,0.5290837731070493,0.5756059756175899,0.6862646451473383
0.3315059658174782,0.6924506525908449,0.5480846444380894,0.561318727765104,0.5413169724001947,0.5724796277942958,0.6922326601461939
0.3037729764592067,0.7111712690303638,0.5743849664115849,0.5764090345435481,0.5478497583041667,0.5480517185607312,0.7009600058857128
0.29280877136407607,0.7266331743580169,0.5789470209192684,0.5814730608244034,0.5462055073256374,0.5172061114322946,0.6855068421630741
0.28635923895517573,0.7255299648670208,0.5782972757875388,0.5873972903220082,0.5491626576032392,0.48257723314245865,0.6583201640677621
0.2802321831667204,0.7074373292146845,0.5860298862534524,0.5980541416169776,0.5537833406779615,0.4646578478875308,0.6347230879516226
0.27700741696227027,0.6686552724927443,0.6008776772722813,0.6139840406105861,0.5644278835468843,0.45822795075799294,0.6272397911615755
0.26152853918090935,0.6295846840577742,0.6117247802791799,0.6240042712652025,0.572298909018975,0.45729355361927837,0.6226851600466333
0.2434698484359884,0.6021741713199478,0.6202934220698391,0.6301143805573732,0.5793719166988989,0.4591026708695811,0.6258628227665859
0.23766526926797804,0.5666338532561652,0.6225175489655189,0.6296458605906261,0.5816221510313012,0.46289447633337005,0.6204360825119133
0.23121573685907773,0.547616218876763,0.6254295221469562,0.6279071437416174,0.5834835462031642,0.4668654849410858,0.6226536475563722
0.22444372782973232,0.5287173916733143,0.6243283810686848,0.6246713123793552,0.5823206599951176,0.4673276850934185,0.6190278760933525
0.2208964850048371,0.5189157996571564,0.6243219354612077,0.6227827547935059,0.5811941055062929,0.46699009837389427,0.619051960383431
0.22379877458884231,0.5109981500025458,0.6205860695043629,0.6210268963769969,0.5773846500322264,0.4613760472873766,0.6089888299217535
0.22831344727507252,0.5232268028988951,0.6171636727933919,0.6193050179925239,0.573401015463552,0.45881158118599275,0.6017776445043737
0.23411802644308286,0.541200631375278,0.6093119958578863,0.614338006326979,0.5671405777893757,0.45512964339463347,0.588612828863601
0.23573040954530797,0.5710212325395883,0.602299654420121,0.6104930866763804,0.5617526790175023,0.4517564546397239,0.5765497143317027
0.23540793292486292,0.5832583716627913,0.5942510871339421,0.6068676977033087,0.5565957661270201,0.4477351922971039,0.5651703569618005
0.2350854563044179,0.6000780732870551,0.5863634682357325,0.6031438673412763,0.5511693525326948,0.44518979072605813,0.5558585228098949
0.2460496613995485,0.6270133573210679,0.5825507955135039,0.6022956695373827,0.5477442045850093,0.4420630356880667,0.5495184033860677
0.2457271847791035,0.6335816969059216,0.5819089286693623,0.6024684308512487,0.5449288258447487,0.4418470168942481,0.5459733872357914
0.2505643340857787,0.6197491471342012,0.5855703185087926,0.6050664904733821,0.5431479505710282,0.44151613487868446,0.5492355442778885
0.2454047081586585,0.622159235560685,0.5935208881505417,0.6096950988581635,0.5431182685028874,0.4440916588664978,0.5586773550352567
0.24572718477910352,0.6325633496834638,0.6017122962592298,0.6142635799126674,0.5430704653219719,0.44833103343060604,0.5688132946858846
0.24733956788132866,0.6450381031585736,0.6096771607355957,0.6179326223970246,0.5430300657085325,0.45509973318834196,0.5769415201527496
0.2470170912608836,0.6597871654305063,0.6179681648133811,0.6224899686241456,0.5442488773262821,0.4608728159527218,0.5819259859494436
0.25056433408577883,0.6790169554812538,0.6255514568828149,0.6268496907964372,0.5434317946698827,0.46760362180193077,0.5876061237641172
0.2566913898742341,0.7003683022454557,0.6303625768704078,0.6296910086415479,0.5410768988431214,0.47730194453621116,0.594094273352805
0.26281844566268947,0.7171031416011813,0.6359185771799829,0.6336023172917273,0.541685271406865,0.4871433888980656,0.6105641618718886
0.27926475330538536,0.7310544985488552,0.6385499630130236,0.6342061716948819,0.5425510467570487,0.4952246735399919,0.6173469532877067
0.2944211544663012,0.7392861385970569,0.6416444823077548,0.6352166773330636,0.5438918572343127,0.502370597492934,0.6211521865126757
0.3137697516930022,0.7398971469305317,0.6435646630665344,0.6360898305375343,0.5448310173961814,0.5080546149469588,0.6229617367828779
0.326346339890358,0.7405590726251293,0.6451679628827862,0.6373640235384995,0.5452946190285808,0.511012806041919,0.62064380151576
0.3363431151241535,0.7374700860503404,0.6457918151549029,0.6386467384579461,0.5449158438383357,0.5152709296883603,0.6199706695402223
0.3463398903579491,0.7339058707717374,0.6458869096605276,0.6406992394816088,0.544661006537182,0.5178164000844254,0.6189715835367149
0.3537568526281844,0.726998082112731,0.6429409241301667,0.6405802673038629,0.5424005997573061,0.5218909100502882,0.6166837280264612
0.3511770396646243,0.7201581832685551,0.6396899956895218,0.6404072722664943,0.5388560102996044,0.5248302660316412,0.6158499365529044
0.34666236697839403,0.7111458103498023,0.6367707515838699,0.6385846071906545,0.5360615107043979,0.5302358461347869,0.6130244919693382
0.34247017091260884,0.7042380216907959,0.6332224591979099,0.6359430448019797,0.5336458757931093,0.5322549886668135,0.6065663395383734
0.3369880683650435,0.6991802304859214,0.6292166710772678,0.6326203385981793,0.5302372651913828,0.5351040232812099,0.5989668139871684
0.33956788132860366,0.6957687672906872,0.6263820858701845,0.6303078927842306,0.5277127381757489,0.5363732025199134,0.5919948272401854
0.34247017091260884,0.6906770311783974,0.6238846803289058,0.6281156357088237,0.5254170654649363,0.5388424262654627,0.5861807651857314
0.34537246049661396,0.6886912540946044,0.6225114608015583,0.6270136517519884,0.5240392751173051,0.5390931386044121,0.582565054665257
0.35117703966462427,0.6836164904360224,0.6217235390493034,0.6265586119150297,0.522907695423157,0.5425473057299123,0.5803215992492029
0.35536923573040957,0.67051375617373,0.621867248779223,0.626861574507114,0.5229644967860815,0.5436973890081855,0.5804214820829404
0.36310867462109,0.6451908552419423,0.6227020159744587,0.6275832423818529,0.5238069495427513,0.5460227455217853,0.5816160131817819
0.36214124475975495,0.6400651742222373,0.6232063513400319,0.6282733419099686,0.5239106266067098,0.5472629264857027,0.5810771322363015
0.3650435343437601,0.6410665489909876,0.6242676970401282,0.6294143848903395,0.5245323093203332,0.5475993833278272,0.5805627609502824
0.36826830054821025,0.6548312089478776,0.6247845574590046,0.6301604632718092,0.5239904088600342,0.546749618021143,0.5788169876043167
0.36407610448242506,0.6500280045486175,0.6252728049602885,0.6304774873059833,0.5228235117082891,0.5471496634456559,0.5742507425102121
0.364076104482425,0.6513688283915205,0.6265601072716472,0.6313085930991353,0.521806928671742,0.5437693857137613,0.5718258852997185
0.36052886165752984,0.6408119621853732,0.62669532844456,0.6313720206790294,0.5200043471144766,0.5425957241309695,0.5650914213783272
0.3585940019348597,0.6415248052410937,0.6274916137938928,0.6317985748302368,0.5194471269645542,0.5415879881988034,0.5613274201115961
0.3611738148984199,0.6302041786181029,0.6280632182856525,0.632639916514223,0.5185467311226494,0.5404243578625703,0.555841122291187
0.3611738148984198,0.6251294149595207,0.6293418431470894,0.633859219988534,0.518946523766352,0.5381852046856074,0.553735532033327
0.3582715253144147,0.6251973047743513,0.6297256677387802,0.6344158901342358,0.519010424960651,0.5355397659490512,0.5487712896808773
0.3573040954530797,0.6263684040801778,0.6306973096464485,0.6352833254107673,0.5196684610889322,0.5324123972213046,0.5466226727851835
0.3556917123508546,0.6287784925066617,0.6305850404157607,0.6352478579844882,0.519008485931074,0.5305815427357486,0.5414079813057757
0.3502096098032893,0.6343115124153499,0.6317652317260403,0.6362078134240837,0.5195951630589906,0.5287399113992585,0.5404710669094897
0.35149951628506937,0.6380793971384442,0.631899406722807,0.6364723077552921,0.5190742393732066,0.5274581199757736,0.5380745964649853
0.345049983876169,0.6411853561669411,0.6327204951649341,0.6372072764335031,0.5192658154954184,0.5255990128198069,0.536709484318379
0.34827475008061914,0.6390298545460718,0.6329412819224086,0.6377857658437096,0.5189238140689001,0.5235045699812796,0.5330730237274471
0.34666236697839403,0.6407949897316655,0.6351348314141775,0.6400036200220913,0.520202288135174,0.5224154943471717,0.5356992758275941
0.3418252176717188,0.643816086491624,0.6362450829430535,0.6415588480172569,0.5200783502460826,0.5205807168355174,0.5349579851783279
0.3411802644308288,0.6506729577895076,0.6381234864010701,0.6436378923322361,0.5205240504319951,0.5190048991942884,0.5366781936473026
0.3424701709126088,0.6559853357999966,0.6387404716892064,0.64496716501951,0.5205151173362934,0.5165065108468231,0.5364409393283055
0.34150274105127376,0.6630119316349565,0.6398907191133523,0.6464421108354872,0.5213119906942202,0.5145832702437323,0.5384572092931066
0.35020960980328925,0.6658123864967159,0.6399862059350316,0.6474874949812603,0.5213666008181261,0.5120467298939178,0.5391755552829075
0.35214446952595935,0.6704288939051919,0.6404422573654229,0.6486978272993122,0.5222687567022626,0.5103891538652131,0.5423155965232808
0.3563366655917446,0.6725504506186459,0.6400167455603597,0.6494928751340218,0.5224035368854084,0.5080035984014242,0.5446194170331489
0.35440180586907444,0.6760976934435411,0.6393707608506658,0.6501037200365731,0.5222257021098637,0.5062856112120545,0.5473601342894104
0.35859400193485974,0.6757242994619732,0.6375779665678836,0.6497340540476131,0.5207590662405914,0.5037449987152662,0.5463726433482423
0.35536923573040957,0.6795261290924829,0.6376375782658905,0.6507587847804359,0.5207744754238877,0.5028305837738135,0.5509943881336042
0.3611738148984198,0.6813421816391996,0.636847715275676,0.6513334004656075,0.5204789483328403,0.5009968730499578,0.5535151248079923
0.3592389551757497,0.6849573142789253,0.6362103615191863,0.6522891431197414,0.5203088289966616,0.4993626057611129,0.5572480853389319
0.3624637213801999,0.6884536397426976,0.6355804762979611,0.6533986274343442,0.5203096154562104,0.49726831204346067,0.5611722059160937
0.3595614317961948,0.6934265686790339,0.6339903321467448,0.6541468319159995,0.5197319310864441,0.49427377560290714,0.5659768359116933
0.36278619800064493,0.6969568390502214,0.6332902426940348,0.655159445214643,0.5197085786617057,0.4916300919043425,0.5688120615292891
0.3618187681393099,0.7028802253941853,0.6325534731432285,0.6566806553763382,0.5198110380693284,0.4892209237235253,0.5745440864618904
0.36568848758465017,0.7087866392844413,0.6319330209435863,0.6582208515389344,0.52006287055262,0.4865678740869214,0.5790698827671862
0.36310867462109003,0.712910945535396,0.6313841330044186,0.658914772469368,0.5204665846463483,0.4845894128767022,0.5841332064717686
0.3669783940664302,0.7165769955362447,0.630474741483481,0.65949069530048,0.5211103994164449,0.4820380980894175,0.5880664372051746
0.36762334730732027,0.7202260730833856,0.6283775971235642,0.6585902563753022,0.5215768106077837,0.47924439879051495,0.5899145557462665
0.3708481135117704,0.7230095554914373,0.6277154780528634,0.6586763438406225,0.5224051125164353,0.47737873605146275,0.5923112965113077
0.3727829732344405,0.7217196490096573,0.625513108714975,0.6571072984992146,0.5233795494569589,0.4747548854292846,0.592153468231131
0.38052241212512095,0.7208879987779833,0.6243165156875625,0.6564619450360358,0.5239639133090305,0.47255793345997144,0.59235995895875
0.3927765237020316,0.7194792851202498,0.6248004477122441,0.6561719379635903,0.5273936335698165,0.47299337788606244,0.5968912702521653
0.4163173169945179,0.7150155297951424,0.6246727096048199,0.6559129435105839,0.5284668661012373,0.4721156466798811,0.5979370907203819
0.4282489519509835,0.7110779205349718,0.6237145488392106,0.6544834656747412,0.5298068385922925,0.47176206387879455,0.5971062613276212
0.44308287649145434,0.7112646175257556,0.6241480232071628,0.6544883628044625,0.5306365452804139,0.4721355485812869,0.5986831175288423
0.4508223153821348,0.712775165905735,0.6236204511069695,0.6540563507254253,0.5316505221527322,0.4721742053004441,0.600299371490685
0.46178652047726537,0.7158471800268165,0.6262741466463232,0.6561676576426394,0.5342424433278333,0.4742975030283008,0.6082363642888668
0.4653337633021606,0.7162205740083845,0.6259409511680081,0.6561394644570114,0.5346717254926838,0.4743836662170099,0.6094973433198445
0.47081586584972585,0.7171540589623042,0.6269104484145771,0.6570681392096791,0.5354730545507435,0.4750799632015564,0.6117178729068778
0.47049338922928086,0.7172728661382576,0.62650737999389,0.656999478666589,0.5361818091841293,0.47520001697683806,0.6130274351765005
0.47210577233150597,0.7169843344252278,0.6266386286034926,0.6570701438381825,0.5367309071052639,0.4755265113974232,0.6130544627817138
