,fpr,tpr
0,0.0,0.0
1,0.0,0.0003403675970047651
2,0.0,0.08066712049012933
3,1.7075919538267136e-05,0.08066712049012933
4,1.7075919538267136e-05,0.2345132743362832
5,3.415183907653427e-05,0.2345132743362832
6,3.415183907653427e-05,0.2705922396187883
7,5.1227758614801405e-05,0.2705922396187883
8,5.1227758614801405e-05,0.31654186521443156
9,6.830367815306854e-05,0.31654186521443156
10,6.830367815306854e-05,0.3859768550034037
11,8.537959769133568e-05,0.3859768550034037
12,8.537959769133568e-05,0.4132062627637849
13,0.00010245551722960281,0.4132062627637849
14,0.00010245551722960281,0.44315861130020423
15,0.00011953143676786995,0.44315861130020423
16,0.00011953143676786995,0.46732471068754255
17,0.0001366073563061371,0.46732471068754255
18,0.0001366073563061371,0.4778761061946903
19,0.00015368327584440423,0.4778761061946903
20,0.00015368327584440423,0.48196051735874745
21,0.00017075919538267137,0.48196051735874745
22,0.00017075919538267137,0.48774676650782844
23,0.00018783511492093848,0.48774676650782844
24,0.00018783511492093848,0.5142954390742002
25,0.00020491103445920562,0.5142954390742002
26,0.00020491103445920562,0.5309734513274337
27,0.0002390628735357399,0.5309734513274337
28,0.0002390628735357399,0.5330156569094622
29,0.000256138793074007,0.5330156569094622
30,0.000256138793074007,0.5350578624914908
31,0.0002732147126122742,0.5350578624914908
32,0.0002732147126122742,0.5353982300884956
33,0.0002902906321505413,0.5353982300884956
34,0.0002902906321505413,0.5394826412525527
35,0.00030736655168880846,0.5394826412525527
36,0.00030736655168880846,0.546289993192648
37,0.00032444247122707557,0.546289993192648
38,0.00032444247122707557,0.5541184479237576
39,0.00034151839076534274,0.5541184479237576
40,0.00034151839076534274,0.5582028590878149
41,0.00035859431030360985,0.5582028590878149
42,0.00035859431030360985,0.5643294758339006
43,0.00037567022984187696,0.5643294758339006
44,0.00037567022984187696,0.5673927842069435
45,0.00039274614938014413,0.5673927842069435
46,0.00039274614938014413,0.5707964601769911
47,0.0004439739079949455,0.5707964601769911
48,0.0004439739079949455,0.5728386657590198
49,0.0004610498275332127,0.5728386657590198
50,0.0004610498275332127,0.5748808713410484
51,0.0004781257470714798,0.5748808713410484
52,0.0004781257470714798,0.5752212389380531
53,0.0004952016666097469,0.5752212389380531
54,0.0004952016666097469,0.5755616065350578
55,0.000512277586148014,0.5755616065350578
56,0.000512277586148014,0.5769230769230769
57,0.0005293535056862812,0.5769230769230769
58,0.0005293535056862812,0.5772634445200817
59,0.0005464294252245484,0.5772634445200817
60,0.0005464294252245484,0.5786249149081008
61,0.0005635053447628155,0.5786249149081008
62,0.0005635053447628155,0.5789652825051055
63,0.0005805812643010826,0.5789652825051055
64,0.0005805812643010826,0.5806671204901294
65,0.0005976571838393497,0.5806671204901294
66,0.0005976571838393497,0.5820285908781484
67,0.0006147331033776169,0.5820285908781484
68,0.0006147331033776169,0.5830496936691627
69,0.000631809022915884,0.5830496936691627
70,0.000631809022915884,0.589857045609258
71,0.0006488849424541511,0.589857045609258
72,0.0006488849424541511,0.5963240299523486
73,0.0006659608619924183,0.5963240299523486
74,0.0006659608619924183,0.5997277059223962
75,0.0006830367815306855,0.5997277059223962
76,0.0006830367815306855,0.600068073519401
77,0.0007001127010689526,0.600068073519401
78,0.0007001127010689526,0.602791014295439
79,0.0007171886206072197,0.602791014295439
80,0.0007171886206072197,0.6044928522804629
81,0.0007342645401454868,0.6044928522804629
82,0.0007342645401454868,0.6061946902654868
83,0.0007513404596837539,0.6061946902654868
84,0.0007513404596837539,0.6082368958475153
85,0.0007684163792220211,0.6082368958475153
86,0.0007684163792220211,0.6106194690265486
87,0.0008025682182985554,0.6106194690265486
88,0.0008025682182985554,0.6113002042205582
89,0.0008196441378368225,0.6113002042205582
90,0.0008196441378368225,0.6130020422055821
91,0.0008367200573750896,0.6130020422055821
92,0.0008367200573750896,0.6153846153846154
93,0.000887947815989891,0.6153846153846154
94,0.000887947815989891,0.6164057181756297
95,0.0009050237355281582,0.6164057181756297
96,0.0009050237355281582,0.6167460857726345
97,0.0009220996550664254,0.6167460857726345
98,0.0009220996550664254,0.6170864533696392
99,0.0009391755746046925,0.6170864533696392
100,0.0009391755746046925,0.6204901293396868
101,0.0009904033332194938,0.6204901293396868
102,0.0009904033332194938,0.6211708645336964
103,0.001024555172296028,0.6211708645336964
104,0.001024555172296028,0.6215112321307011
105,0.0010416310918342953,0.6215112321307011
106,0.0010416310918342953,0.6259360108917631
107,0.0010587070113725625,0.6259360108917631
108,0.0010587070113725625,0.6296800544588155
109,0.0010928588504490967,0.6296800544588155
110,0.0010928588504490967,0.633424098025868
111,0.0011099347699873637,0.633424098025868
112,0.0011099347699873637,0.6337644656228727
113,0.001127010689525631,0.6337644656228727
114,0.001127010689525631,0.6344452008168823
115,0.0011782384481404324,0.6344452008168823
116,0.0011782384481404324,0.6375085091899251
117,0.0011953143676786994,0.6375085091899251
118,0.0011953143676786994,0.6378488767869299
119,0.0012123902872169666,0.6378488767869299
120,0.0012123902872169666,0.6381892443839347
121,0.0012465421262935008,0.6381892443839347
122,0.0012465421262935008,0.640571817562968
123,0.0012806939653700353,0.640571817562968
124,0.0012806939653700353,0.6422736555479919
125,0.0013148458044465695,0.6422736555479919
126,0.0013148458044465695,0.6432947583390062
127,0.0013319217239848365,0.6432947583390062
128,0.0013319217239848365,0.6456773315180395
129,0.0013489976435231037,0.6456773315180395
130,0.0013489976435231037,0.6460176991150443
131,0.001366073563061371,0.6460176991150443
132,0.001366073563061371,0.6473791695030633
133,0.001383149482599638,0.6473791695030633
134,0.001383149482599638,0.6497617426820966
135,0.0014173013216761722,0.6497617426820966
136,0.0014173013216761722,0.6511232130701157
137,0.0014343772412144394,0.6511232130701157
138,0.0014343772412144394,0.6531654186521443
139,0.0014514531607527066,0.6531654186521443
140,0.0014514531607527066,0.6552076242341729
141,0.0014856049998292408,0.6552076242341729
142,0.0014856049998292408,0.6572498298162015
143,0.001519756838905775,0.6572498298162015
144,0.001519756838905775,0.6575901974132062
145,0.0015539086779823093,0.6575901974132062
146,0.0015539086779823093,0.6579305650102111
147,0.0015709845975205765,0.6579305650102111
148,0.0015709845975205765,0.6582709326072158
149,0.0015880605170588435,0.6582709326072158
150,0.0015880605170588435,0.6589516678012253
151,0.0016051364365971107,0.6589516678012253
152,0.0016051364365971107,0.6596324029952348
153,0.001622212356135378,0.6596324029952348
154,0.001622212356135378,0.6613342409802587
155,0.001639288275673645,0.6613342409802587
156,0.001639288275673645,0.6616746085772635
157,0.0016563641952119122,0.6616746085772635
158,0.0016563641952119122,0.6637168141592921
159,0.0016905160342884464,0.6637168141592921
160,0.0016905160342884464,0.6643975493533015
161,0.0017075919538267136,0.6643975493533015
162,0.0017075919538267136,0.6667801225323349
163,0.0017417437929032479,0.6667801225323349
164,0.0017417437929032479,0.6671204901293397
165,0.001775895631979782,0.6671204901293397
166,0.001775895631979782,0.6674608577263444
167,0.0017929715515180493,0.6674608577263444
168,0.0017929715515180493,0.6684819605173588
169,0.0018100474710563163,0.6684819605173588
170,0.0018100474710563163,0.6708645336963921
171,0.001878351149209385,0.6708645336963921
172,0.001878351149209385,0.6712049012933968
173,0.001895427068747652,0.6712049012933968
174,0.001895427068747652,0.6722260040844111
175,0.0019125029882859192,0.6722260040844111
176,0.0019125029882859192,0.6732471068754254
177,0.0019466548273624534,0.6732471068754254
178,0.0019466548273624534,0.673927842069435
179,0.001997882585977255,0.673927842069435
180,0.001997882585977255,0.6746085772634445
181,0.002014958505515522,0.6746085772634445
182,0.002014958505515522,0.6756296800544588
183,0.002049110344592056,0.6756296800544588
184,0.002049110344592056,0.6769911504424779
185,0.0020832621836685905,0.6769911504424779
186,0.0020832621836685905,0.6773315180394827
187,0.0021344899422833918,0.6773315180394827
188,0.0021344899422833918,0.6780122532334921
189,0.002151565861821659,0.6780122532334921
190,0.002151565861821659,0.681075561606535
191,0.002168641781359926,0.681075561606535
192,0.002168641781359926,0.6820966643975493
193,0.0021857177008981934,0.6820966643975493
194,0.0021857177008981934,0.6827773995915589
195,0.0022027936204364607,0.6827773995915589
196,0.0022027936204364607,0.6831177671885637
197,0.0022198695399747274,0.6831177671885637
198,0.0022198695399747274,0.6851599727705923
199,0.0022369454595129947,0.6851599727705923
200,0.0022369454595129947,0.685500340367597
201,0.002271097298589529,0.685500340367597
202,0.002271097298589529,0.686861810755616
203,0.0022881732181277963,0.686861810755616
204,0.0022881732181277963,0.6872021783526209
205,0.002305249137666063,0.6872021783526209
206,0.002305249137666063,0.6892443839346494
207,0.0023223250572043303,0.6892443839346494
208,0.0023223250572043303,0.689925119128659
209,0.0023564768962808648,0.689925119128659
210,0.0023564768962808648,0.6909462219196733
211,0.002373552815819132,0.6909462219196733
212,0.002373552815819132,0.691286589516678
213,0.002407704654895666,0.691286589516678
214,0.002407704654895666,0.6923076923076923
215,0.0024418564939722004,0.6923076923076923
216,0.0024418564939722004,0.6929884275017019
217,0.0024589324135104677,0.6929884275017019
218,0.0024589324135104677,0.6933287950987066
219,0.002476008333048735,0.6933287950987066
220,0.002476008333048735,0.6940095302927162
221,0.0024930842525870017,0.6940095302927162
222,0.0024930842525870017,0.6963921034717495
223,0.002527236091663536,0.6963921034717495
224,0.002527236091663536,0.6967324710687542
225,0.0025443120112018033,0.6967324710687542
226,0.0025443120112018033,0.6977535738597685
227,0.0025613879307400706,0.6977535738597685
228,0.0025613879307400706,0.6980939414567733
229,0.0025784638502783373,0.6980939414567733
230,0.0025784638502783373,0.6984343090537781
231,0.0025955397698166046,0.6984343090537781
232,0.0025955397698166046,0.6994554118447924
233,0.002612615689354872,0.6994554118447924
234,0.002612615689354872,0.6997957794417972
235,0.002629691608893139,0.6997957794417972
236,0.002629691608893139,0.7014976174268209
237,0.002663843447969673,0.7014976174268209
238,0.002663843447969673,0.7018379850238258
239,0.0026809193675079402,0.7018379850238258
240,0.0026809193675079402,0.7052416609938734
241,0.0026979952870462075,0.7052416609938734
242,0.0026979952870462075,0.7059223961878829
243,0.002732147126122742,0.7059223961878829
244,0.002732147126122742,0.7062627637848877
245,0.0027492230456610087,0.7062627637848877
246,0.0027492230456610087,0.7076242341729068
247,0.002766298965199276,0.7076242341729068
248,0.002766298965199276,0.7083049693669162
249,0.0028004508042758103,0.7083049693669162
250,0.0028004508042758103,0.7086453369639211
251,0.0028516785628906116,0.7086453369639211
252,0.0028516785628906116,0.7096664397549354
253,0.002868754482428879,0.7096664397549354
254,0.002868754482428879,0.7100068073519401
255,0.002885830401967146,0.7100068073519401
256,0.002885830401967146,0.7103471749489448
257,0.00291998224104368,0.7103471749489448
258,0.00291998224104368,0.7110279101429544
259,0.0029370581605819472,0.7110279101429544
260,0.0029370581605819472,0.7113682777399591
261,0.0029541340801202145,0.7113682777399591
262,0.0029541340801202145,0.7117086453369639
263,0.0030053618387350157,0.7117086453369639
264,0.0030053618387350157,0.7123893805309734
265,0.003022437758273283,0.7123893805309734
266,0.003022437758273283,0.7151123213070115
267,0.0030565895973498174,0.7151123213070115
268,0.0030565895973498174,0.7154526889040164
269,0.0030736655168880846,0.7154526889040164
270,0.0030736655168880846,0.7157930565010211
271,0.0030907414364263514,0.7157930565010211
272,0.0030907414364263514,0.7168141592920354
273,0.0031078173559646186,0.7168141592920354
274,0.0031078173559646186,0.717494894486045
275,0.003176121034117687,0.717494894486045
276,0.003176121034117687,0.718856364874064
277,0.0031931969536559543,0.718856364874064
278,0.0031931969536559543,0.720217835262083
279,0.0032102728731942215,0.720217835262083
280,0.0032102728731942215,0.7212389380530974
281,0.0032273487927324887,0.7212389380530974
282,0.0032273487927324887,0.7222600408441117
283,0.003244424712270756,0.7222600408441117
284,0.003244424712270756,0.7226004084411164
285,0.003295652470885557,0.7226004084411164
286,0.003295652470885557,0.7229407760381211
287,0.0033127283904238244,0.7229407760381211
288,0.0033127283904238244,0.723281143635126
289,0.0033298043099620916,0.723281143635126
290,0.0033298043099620916,0.7243022464261403
291,0.0033639561490386256,0.7243022464261403
292,0.0033639561490386256,0.7249829816201497
293,0.0034151839076534273,0.7249829816201497
294,0.0034151839076534273,0.726004084411164
295,0.0034322598271916945,0.726004084411164
296,0.0034322598271916945,0.7263444520081688
297,0.0034493357467299613,0.7263444520081688
298,0.0034493357467299613,0.7270251872021783
299,0.0034664116662682285,0.7270251872021783
300,0.0034664116662682285,0.7287270251872022
301,0.003534715344421297,0.7287270251872022
302,0.003534715344421297,0.729067392784207
303,0.0035688671834978314,0.729067392784207
304,0.0035688671834978314,0.7297481279782164
305,0.003603019022574366,0.7297481279782164
306,0.003603019022574366,0.7311095983662356
307,0.003654246781189167,0.7311095983662356
308,0.003654246781189167,0.731790333560245
309,0.0036883986202657015,0.731790333560245
310,0.0036883986202657015,0.7321307011572499
311,0.0037054745398039683,0.7321307011572499
312,0.0037054745398039683,0.7328114363512593
313,0.0037396263788805027,0.7328114363512593
314,0.0037396263788805027,0.7334921715452689
315,0.003790854137495304,0.7334921715452689
316,0.003790854137495304,0.734853641933288
317,0.0038250059765718384,0.734853641933288
318,0.0038250059765718384,0.7351940095302927
319,0.0038420818961101056,0.7351940095302927
320,0.0038420818961101056,0.7358747447243023
321,0.003859157815648373,0.7358747447243023
322,0.003859157815648373,0.7365554799183118
323,0.0038762337351866396,0.7365554799183118
324,0.0038762337351866396,0.7368958475153166
325,0.003893309654724907,0.7368958475153166
326,0.003893309654724907,0.7389380530973452
327,0.003927461493801441,0.7389380530973452
328,0.003927461493801441,0.7392784206943499
329,0.0039445374133397085,0.7392784206943499
330,0.0039445374133397085,0.7396187882913546
331,0.003978689252416243,0.7396187882913546
332,0.003978689252416243,0.7399591558883595
333,0.0040128410914927765,0.7399591558883595
334,0.0040128410914927765,0.7402995234853642
335,0.004029917011031044,0.7402995234853642
336,0.004029917011031044,0.7416609938733832
337,0.004046992930569311,0.7416609938733832
338,0.004046992930569311,0.7430224642614023
339,0.004064068850107579,0.7430224642614023
340,0.004064068850107579,0.7433628318584071
341,0.004098220689184112,0.7433628318584071
342,0.004098220689184112,0.7440435670524166
343,0.00411529660872238,0.7440435670524166
344,0.00411529660872238,0.7447243022464262
345,0.004132372528260647,0.7447243022464262
346,0.004132372528260647,0.7457454050374405
347,0.004149448447798914,0.7457454050374405
348,0.004149448447798914,0.7467665078284548
349,0.004166524367337181,0.7467665078284548
350,0.004166524367337181,0.7471068754254595
351,0.004183600286875448,0.7471068754254595
352,0.004183600286875448,0.7474472430224642
353,0.0042006762064137155,0.7474472430224642
354,0.0042006762064137155,0.7484683458134785
355,0.00423482804549025,0.7484683458134785
356,0.00423482804549025,0.7498298162014976
357,0.004251903965028517,0.7498298162014976
358,0.004251903965028517,0.7508509189925119
359,0.004320207643181586,0.7508509189925119
360,0.004320207643181586,0.7515316541865215
361,0.004337283562719852,0.7515316541865215
362,0.004337283562719852,0.7532334921715452
363,0.004371435401796387,0.7532334921715452
364,0.004371435401796387,0.7556160653505786
365,0.004388511321334654,0.7556160653505786
366,0.004388511321334654,0.7566371681415929
367,0.004422663160411188,0.7566371681415929
368,0.004422663160411188,0.7573179033356024
369,0.0044568149994877225,0.7573179033356024
370,0.0044568149994877225,0.7576582709326072
371,0.004508042758102524,0.7576582709326072
372,0.004508042758102524,0.7583390061266168
373,0.004542194597179058,0.7583390061266168
374,0.004542194597179058,0.7593601089176311
375,0.004559270516717325,0.7593601089176311
376,0.004559270516717325,0.7597004765146358
377,0.004661726033946928,0.7597004765146358
378,0.004661726033946928,0.7600408441116405
379,0.0047129537925617295,0.7600408441116405
380,0.0047129537925617295,0.762423417290674
381,0.004730029712099996,0.762423417290674
382,0.004730029712099996,0.763784887678693
383,0.004764181551176531,0.763784887678693
384,0.004764181551176531,0.7644656228727025
385,0.004798333390253065,0.7644656228727025
386,0.004798333390253065,0.7654867256637168
387,0.004815409309791332,0.7654867256637168
388,0.004815409309791332,0.7658270932607216
389,0.0048324852293296,0.7658270932607216
390,0.0048324852293296,0.7675289312457454
391,0.004866637068406134,0.7675289312457454
392,0.004866637068406134,0.7678692988427501
393,0.004900788907482668,0.7678692988427501
394,0.004900788907482668,0.7685500340367597
395,0.0049690925856357366,0.7685500340367597
396,0.0049690925856357366,0.7688904016337644
397,0.005054472183327072,0.7688904016337644
398,0.005054472183327072,0.7705922396187883
399,0.005071548102865339,0.7705922396187883
400,0.005071548102865339,0.7716133424098026
401,0.0051056999419418735,0.7716133424098026
402,0.0051056999419418735,0.7722940776038121
403,0.005139851781018408,0.7722940776038121
404,0.005139851781018408,0.773995915588836
405,0.005174003620094942,0.773995915588836
406,0.005174003620094942,0.7743362831858407
407,0.005191079539633209,0.7743362831858407
408,0.005191079539633209,0.775357385976855
409,0.0053618387350158805,0.775357385976855
410,0.0053618387350158805,0.7760381211708646
411,0.005378914654554148,0.7760381211708646
412,0.005378914654554148,0.776718856364874
413,0.005430142413168949,0.776718856364874
414,0.005430142413168949,0.7777399591558883
415,0.005464294252245484,0.7777399591558883
416,0.005464294252245484,0.7780803267528931
417,0.005532597930398552,0.7780803267528931
418,0.005532597930398552,0.7787610619469026
419,0.0055496738499368195,0.7787610619469026
420,0.0055496738499368195,0.7791014295439074
421,0.005566749769475086,0.7791014295439074
422,0.005566749769475086,0.7794417971409122
423,0.005583825689013353,0.7794417971409122
424,0.005583825689013353,0.7801225323349217
425,0.005686281206242956,0.7801225323349217
426,0.005686281206242956,0.7804628999319265
427,0.005703357125781223,0.7804628999319265
428,0.005703357125781223,0.7808032675289313
429,0.005720433045319491,0.7808032675289313
430,0.005720433045319491,0.7821647379169503
431,0.005737508964857758,0.7821647379169503
432,0.005737508964857758,0.782505105513955
433,0.005822888562549093,0.782505105513955
434,0.005822888562549093,0.7828454731109599
435,0.005857040401625628,0.7828454731109599
436,0.005857040401625628,0.7831858407079646
437,0.0058741163211638945,0.7831858407079646
438,0.0058741163211638945,0.7838665759019742
439,0.005891192240702162,0.7838665759019742
440,0.005891192240702162,0.7842069434989789
441,0.005908268160240429,0.7842069434989789
442,0.005908268160240429,0.7848876786929885
443,0.005942419999316963,0.7848876786929885
444,0.005942419999316963,0.7855684138869979
445,0.006027799597008299,0.7855684138869979
446,0.006027799597008299,0.7859087814840027
447,0.006044875516546566,0.7859087814840027
448,0.006044875516546566,0.786929884275017
449,0.0060790273556231,0.786929884275017
450,0.0060790273556231,0.7872702518720218
451,0.0061302551142379015,0.7872702518720218
452,0.0061302551142379015,0.7879509870660313
453,0.006232710631467505,0.7879509870660313
454,0.006232710631467505,0.7899931926480599
455,0.0063863939073119085,0.7899931926480599
456,0.0063863939073119085,0.7903335602450646
457,0.006403469826850176,0.7903335602450646
458,0.006403469826850176,0.7916950306330838
459,0.006420545746388443,0.7916950306330838
460,0.006420545746388443,0.7920353982300885
461,0.006471773505003244,0.7920353982300885
462,0.006471773505003244,0.7927161334240981
463,0.006523001263618045,0.7927161334240981
464,0.006523001263618045,0.7930565010211028
465,0.006540077183156313,0.7930565010211028
466,0.006540077183156313,0.7937372362151123
467,0.00655715310269458,0.7937372362151123
468,0.00655715310269458,0.7940776038121171
469,0.006608380861309381,0.7940776038121171
470,0.006608380861309381,0.7944179714091218
471,0.0066425327003859155,0.7944179714091218
472,0.0066425327003859155,0.7968005445881552
473,0.006659608619924183,0.7968005445881552
474,0.006659608619924183,0.7974812797821648
475,0.006693760459000717,0.7974812797821648
476,0.006693760459000717,0.7978216473791695
477,0.006710836378538984,0.7978216473791695
478,0.006710836378538984,0.7981620149761742
479,0.006727912298077251,0.7981620149761742
480,0.006727912298077251,0.7985023825731791
481,0.0068986714934599225,0.7985023825731791
482,0.0068986714934599225,0.7988427501701838
483,0.00691574741299819,0.7988427501701838
484,0.00691574741299819,0.7995234853641934
485,0.006984051091151258,0.7995234853641934
486,0.006984051091151258,0.8005445881552076
487,0.007001127010689526,0.8005445881552076
488,0.007001127010689526,0.8015656909462219
489,0.00703527884976606,0.8015656909462219
490,0.00703527884976606,0.8019060585432267
491,0.007069430688842594,0.8019060585432267
492,0.007069430688842594,0.8022464261402315
493,0.0070865066083808615,0.8022464261402315
494,0.0070865066083808615,0.802927161334241
495,0.007103582527919128,0.802927161334241
496,0.007103582527919128,0.8032675289312458
497,0.007120658447457396,0.8032675289312458
498,0.007120658447457396,0.8036078965282505
499,0.007171886206072197,0.8036078965282505
500,0.007171886206072197,0.8039482641252553
501,0.0072231139646869984,0.8039482641252553
502,0.0072231139646869984,0.8046289993192648
503,0.007240189884225265,0.8046289993192648
504,0.007240189884225265,0.8049693669162695
505,0.007257265803763533,0.8049693669162695
506,0.007257265803763533,0.8053097345132744
507,0.0072743417233018,0.8053097345132744
508,0.0072743417233018,0.8056501021102791
509,0.0073426454014548686,0.8056501021102791
510,0.0073426454014548686,0.8059904697072838
511,0.007359721320993135,0.8059904697072838
512,0.007359721320993135,0.8076923076923077
513,0.007445100918684471,0.8076923076923077
514,0.007445100918684471,0.8080326752893124
515,0.0074792527577610055,0.8080326752893124
516,0.0074792527577610055,0.8083730428863172
517,0.007530480516375807,0.8083730428863172
518,0.007530480516375807,0.8090537780803267
519,0.007547556435914074,0.8090537780803267
520,0.007547556435914074,0.8093941456773315
521,0.007581708274990608,0.8093941456773315
522,0.007581708274990608,0.8097345132743363
523,0.007684163792220211,0.8097345132743363
524,0.007684163792220211,0.810074880871341
525,0.0077353915508350125,0.810074880871341
526,0.0077353915508350125,0.8104152484683458
527,0.007786619309449814,0.8104152484683458
528,0.007786619309449814,0.8107556160653506
529,0.007820771148526348,0.8107556160653506
530,0.007820771148526348,0.8114363512593601
531,0.007837847068064615,0.8114363512593601
532,0.007837847068064615,0.8117767188563648
533,0.00787199890714115,0.8117767188563648
534,0.00787199890714115,0.8121170864533697
535,0.007889074826679417,0.8121170864533697
536,0.007889074826679417,0.8124574540503744
537,0.007940302585294217,0.8124574540503744
538,0.007940302585294217,0.8127978216473791
539,0.00799153034390902,0.8127978216473791
540,0.00799153034390902,0.8141592920353983
541,0.008042758102523822,0.8141592920353983
542,0.008042758102523822,0.814499659632403
543,0.008059834022062088,0.814499659632403
544,0.008059834022062088,0.8148400272294077
545,0.008076909941600355,0.8148400272294077
546,0.008076909941600355,0.815861130020422
547,0.00816228953929169,0.815861130020422
548,0.00816228953929169,0.8165418652144316
549,0.008196441378368224,0.8165418652144316
550,0.008196441378368224,0.8172226004084411
551,0.008213517297906493,0.8172226004084411
552,0.008213517297906493,0.8175629680054459
553,0.008264745056521293,0.8175629680054459
554,0.008264745056521293,0.8196051735874744
555,0.008298896895597829,0.8196051735874744
556,0.008298896895597829,0.8199455411844793
557,0.008315972815136095,0.8199455411844793
558,0.008315972815136095,0.820285908781484
559,0.008350124654212629,0.820285908781484
560,0.008350124654212629,0.8206262763784887
561,0.008401352412827431,0.8206262763784887
562,0.008401352412827431,0.8209666439754936
563,0.008418428332365698,0.8209666439754936
564,0.008418428332365698,0.8213070115724983
565,0.008452580171442231,0.8213070115724983
566,0.008452580171442231,0.8223281143635126
567,0.0085208838495953,0.8223281143635126
568,0.0085208838495953,0.8230088495575221
569,0.008555035688671836,0.8230088495575221
570,0.008555035688671836,0.8233492171545269
571,0.00858918752774837,0.8233492171545269
572,0.00858918752774837,0.8236895847515316
573,0.008606263447286636,0.8236895847515316
574,0.008606263447286636,0.8240299523485364
575,0.008674567125439705,0.8240299523485364
576,0.008674567125439705,0.824710687542546
577,0.008691643044977972,0.824710687542546
578,0.008691643044977972,0.8250510551395507
579,0.00875994672313104,0.8250510551395507
580,0.00875994672313104,0.8257317903335603
581,0.008811174481745843,0.8257317903335603
582,0.008811174481745843,0.826072157930565
583,0.008862402240360643,0.826072157930565
584,0.008862402240360643,0.8264125255275698
585,0.00887947815989891,0.8264125255275698
586,0.00887947815989891,0.8270932607215793
587,0.008964857757590245,0.8270932607215793
588,0.008964857757590245,0.8281143635125936
589,0.00899900959666678,0.8281143635125936
590,0.00899900959666678,0.8291354663036079
591,0.009238072470202521,0.8291354663036079
592,0.009238072470202521,0.8298162014976175
593,0.009340527987432123,0.8298162014976175
594,0.009340527987432123,0.8301565690946222
595,0.009425907585123459,0.8301565690946222
596,0.009425907585123459,0.8304969366916269
597,0.009442983504661726,0.8304969366916269
598,0.009442983504661726,0.8308373042886317
599,0.009494211263276528,0.8308373042886317
600,0.009494211263276528,0.8315180394826412
601,0.009511287182814795,0.8315180394826412
602,0.009511287182814795,0.8321987746766508
603,0.009613742700044397,0.8321987746766508
604,0.009613742700044397,0.8328795098706603
605,0.009630818619582664,0.8328795098706603
606,0.009630818619582664,0.8332198774676651
607,0.00964789453912093,0.8332198774676651
608,0.00964789453912093,0.8339006126616746
609,0.009716198217274,0.8339006126616746
610,0.009716198217274,0.8342409802586793
611,0.009733274136812268,0.8342409802586793
612,0.009733274136812268,0.8345813478556842
613,0.009767425975888802,0.8345813478556842
614,0.009767425975888802,0.8349217154526889
615,0.009921109251733206,0.8349217154526889
616,0.009921109251733206,0.8352620830496936
617,0.010006488849424542,0.8352620830496936
618,0.010006488849424542,0.8356024506466985
619,0.010023564768962809,0.8356024506466985
620,0.010023564768962809,0.8362831858407079
621,0.010091868447115878,0.8362831858407079
622,0.010091868447115878,0.8366235534377128
623,0.010160172125268947,0.8366235534377128
624,0.010160172125268947,0.8369639210347175
625,0.010211399883883747,0.8369639210347175
626,0.010211399883883747,0.8373042886317222
627,0.010245551722960282,0.8373042886317222
628,0.010245551722960282,0.8376446562287271
629,0.010279703562036816,0.8376446562287271
630,0.010279703562036816,0.8383253914227365
631,0.010296779481575083,0.8383253914227365
632,0.010296779481575083,0.8386657590197413
633,0.010348007240189885,0.8386657590197413
634,0.010348007240189885,0.8393464942137508
635,0.010450462757419487,0.8393464942137508
636,0.010450462757419487,0.8400272294077604
637,0.010518766435572556,0.8400272294077604
638,0.010518766435572556,0.8407079646017699
639,0.01055291827464909,0.8407079646017699
640,0.01055291827464909,0.8413886997957795
641,0.010655373791878692,0.8413886997957795
642,0.010655373791878692,0.8417290673927842
643,0.010689525630955227,0.8417290673927842
644,0.010689525630955227,0.8424098025867938
645,0.010706601550493494,0.8424098025867938
646,0.010706601550493494,0.8427501701837985
647,0.010740753389570028,0.8427501701837985
648,0.010740753389570028,0.8444520081688224
649,0.010757829309108296,0.8444520081688224
650,0.010757829309108296,0.8447923757658271
651,0.010809057067723097,0.8447923757658271
652,0.010809057067723097,0.8451327433628318
653,0.010877360745876165,0.8451327433628318
654,0.010877360745876165,0.8454731109598366
655,0.010911512584952699,0.8454731109598366
656,0.010911512584952699,0.8458134785568414
657,0.011065195860797104,0.8458134785568414
658,0.011065195860797104,0.8464942137508509
659,0.011116423619411906,0.8464942137508509
660,0.011116423619411906,0.8471749489448605
661,0.011133499538950173,0.8471749489448605
662,0.011133499538950173,0.84785568413887
663,0.011218879136641508,0.84785568413887
664,0.011218879136641508,0.8481960517358748
665,0.011253030975718042,0.8481960517358748
666,0.011253030975718042,0.8485364193328795
667,0.011287182814794577,0.8485364193328795
668,0.011287182814794577,0.8488767869298843
669,0.01138963833202418,0.8488767869298843
670,0.01138963833202418,0.8492171545268891
671,0.011423790171100713,0.8492171545268891
672,0.011423790171100713,0.8498978897208985
673,0.011492093849253782,0.8498978897208985
674,0.011492093849253782,0.8502382573179034
675,0.011509169768792049,0.8502382573179034
676,0.011509169768792049,0.8509189925119128
677,0.011526245688330317,0.8509189925119128
678,0.011526245688330317,0.8512593601089177
679,0.01162870120555992,0.8512593601089177
680,0.01162870120555992,0.852280462899932
681,0.011645777125098187,0.852280462899932
682,0.011645777125098187,0.8526208304969367
683,0.01167992896417472,0.8526208304969367
684,0.01167992896417472,0.8529611980939414
685,0.011714080803251255,0.8529611980939414
686,0.011714080803251255,0.8539823008849557
687,0.011936067757248727,0.8539823008849557
688,0.011936067757248727,0.8543226684819605
689,0.01198729551586353,0.8543226684819605
690,0.01198729551586353,0.85500340367597
691,0.012072675113554865,0.85500340367597
692,0.012072675113554865,0.8553437712729748
693,0.012175130630784467,0.8553437712729748
694,0.012175130630784467,0.8556841388699796
695,0.012243434308937536,0.8556841388699796
696,0.012243434308937536,0.8563648740639891
697,0.012260510228475803,0.8563648740639891
698,0.012260510228475803,0.8570456092579987
699,0.01227758614801407,0.8570456092579987
700,0.01227758614801407,0.8573859768550034
701,0.012328813906628872,0.8573859768550034
702,0.012328813906628872,0.8577263444520081
703,0.012414193504320208,0.8577263444520081
704,0.012414193504320208,0.858066712049013
705,0.01246542126293501,0.858066712049013
706,0.01246542126293501,0.8584070796460177
707,0.012482497182473276,0.8584070796460177
708,0.012482497182473276,0.8587474472430224
709,0.012567876780164612,0.8587474472430224
710,0.012567876780164612,0.8590878148400273
711,0.012619104538779412,0.8590878148400273
712,0.012619104538779412,0.859428182437032
713,0.012653256377855948,0.859428182437032
714,0.012653256377855948,0.8597685500340367
715,0.012670332297394215,0.8597685500340367
716,0.012670332297394215,0.860789652825051
717,0.012721560056009017,0.860789652825051
718,0.012721560056009017,0.8611300204220558
719,0.012772787814623817,0.8611300204220558
720,0.012772787814623817,0.8618107556160653
721,0.012789863734162084,0.8618107556160653
722,0.012789863734162084,0.8621511232130701
723,0.012841091492776886,0.8621511232130701
724,0.012841091492776886,0.8628318584070797
725,0.013011850688159557,0.8628318584070797
726,0.013011850688159557,0.8631722260040844
727,0.01304600252723609,0.8631722260040844
728,0.01304600252723609,0.8635125936010892
729,0.013097230285850893,0.8635125936010892
730,0.013097230285850893,0.8648740639891083
731,0.013165533964003962,0.8648740639891083
732,0.013165533964003962,0.8658951667801226
733,0.013302141320310098,0.8658951667801226
734,0.013302141320310098,0.866575901974132
735,0.013319217239848366,0.866575901974132
736,0.013319217239848366,0.8669162695711369
737,0.013370444998463167,0.8669162695711369
738,0.013370444998463167,0.8672566371681416
739,0.013387520918001434,0.8672566371681416
740,0.013387520918001434,0.8675970047651463
741,0.013421672757077969,0.8675970047651463
742,0.013421672757077969,0.8679373723621511
743,0.013455824596154502,0.8679373723621511
744,0.013455824596154502,0.8682777399591559
745,0.01347290051569277,0.8682777399591559
746,0.01347290051569277,0.8686181075561606
747,0.013558280113384105,0.8686181075561606
748,0.013558280113384105,0.8689584751531654
749,0.01359243195246064,0.8689584751531654
750,0.01359243195246064,0.8692988427501702
751,0.01371196338922851,0.8692988427501702
752,0.01371196338922851,0.869639210347175
753,0.013746115228305045,0.869639210347175
754,0.013746115228305045,0.8699795779441797
755,0.013814418906458114,0.8699795779441797
756,0.013814418906458114,0.8703199455411845
757,0.013848570745534647,0.8703199455411845
758,0.013848570745534647,0.871000680735194
759,0.01407055769953212,0.871000680735194
760,0.01407055769953212,0.8713410483321987
761,0.014138861377685188,0.8713410483321987
762,0.014138861377685188,0.8716814159292036
763,0.01419008913629999,0.8716814159292036
764,0.01419008913629999,0.872362151123213
765,0.014326696492606128,0.872362151123213
766,0.014326696492606128,0.8727025187202179
767,0.014412076090297463,0.8727025187202179
768,0.014412076090297463,0.8730428863172226
769,0.014599911205218401,0.8730428863172226
770,0.014599911205218401,0.8733832539142273
771,0.01471944264198627,0.8733832539142273
772,0.01471944264198627,0.8737236215112322
773,0.014838974078754142,0.8737236215112322
774,0.014838974078754142,0.8740639891082369
775,0.014873125917830675,0.8740639891082369
776,0.014873125917830675,0.8747447243022465
777,0.014975581435060278,0.8747447243022465
778,0.014975581435060278,0.8750850918992512
779,0.015009733274136813,0.8750850918992512
780,0.015009733274136813,0.8754254594962559
781,0.01507803695228988,0.8754254594962559
782,0.01507803695228988,0.8757658270932607
783,0.015112188791366415,0.8757658270932607
784,0.015112188791366415,0.8761061946902655
785,0.015282947986749087,0.8761061946902655
786,0.015282947986749087,0.8771272974812798
787,0.01531709982582562,0.8771272974812798
788,0.01531709982582562,0.8774676650782846
789,0.015351251664902156,0.8774676650782846
790,0.015351251664902156,0.8778080326752893
791,0.015368327584440422,0.8778080326752893
792,0.015368327584440422,0.8781484002722941
793,0.015419555343055223,0.8781484002722941
794,0.015419555343055223,0.8784887678692989
795,0.015436631262593491,0.8784887678692989
796,0.015436631262593491,0.8788291354663036
797,0.015470783101670025,0.8788291354663036
798,0.015470783101670025,0.8798502382573179
799,0.015487859021208292,0.8798502382573179
800,0.015487859021208292,0.8805309734513275
801,0.0157952255728971,0.8805309734513275
802,0.0157952255728971,0.8808713410483322
803,0.015829377411973634,0.8808713410483322
804,0.015829377411973634,0.8815520762423418
805,0.016136743963662444,0.8815520762423418
806,0.016136743963662444,0.882573179033356
807,0.016239199480892048,0.882573179033356
808,0.016239199480892048,0.8829135466303608
809,0.01640995867627472,0.8829135466303608
810,0.01640995867627472,0.8832539142273655
811,0.01658071787165739,0.8832539142273655
812,0.01658071787165739,0.8835942818243703
813,0.016649021549810458,0.8835942818243703
814,0.016649021549810458,0.8839346494213751
815,0.01681978074519313,0.8839346494213751
816,0.01681978074519313,0.8842750170183798
817,0.017058843618728867,0.8842750170183798
818,0.017058843618728867,0.8846153846153846
819,0.017144223216420205,0.8846153846153846
820,0.017144223216420205,0.8849557522123894
821,0.01717837505549674,0.8849557522123894
822,0.01717837505549674,0.8852961198093942
823,0.017246678733649805,0.8852961198093942
824,0.017246678733649805,0.8856364874063989
825,0.017263754653188076,0.8856364874063989
826,0.017263754653188076,0.8863172226004085
827,0.017280830572726343,0.8863172226004085
828,0.017280830572726343,0.8866575901974132
829,0.01746866568764728,0.8866575901974132
830,0.01746866568764728,0.8873383253914228
831,0.017639424883029952,0.8873383253914228
832,0.017639424883029952,0.8876786929884275
833,0.017690652641644752,0.8876786929884275
834,0.017690652641644752,0.8883594281824371
835,0.017793108158874357,0.8883594281824371
836,0.017793108158874357,0.8893805309734514
837,0.017912639595642224,0.8893805309734514
838,0.017912639595642224,0.8897208985704561
839,0.01801509511287183,0.8897208985704561
840,0.01801509511287183,0.8900612661674608
841,0.018083398791024895,0.8900612661674608
842,0.018083398791024895,0.8904016337644656
843,0.018100474710563162,0.8904016337644656
844,0.018100474710563162,0.8907420013614704
845,0.01830538574502237,0.8907420013614704
846,0.01830538574502237,0.8910823689584751
847,0.018339537584098904,0.8910823689584751
848,0.018339537584098904,0.8914227365554799
849,0.018390765342713705,0.8914227365554799
850,0.018390765342713705,0.8921034717494895
851,0.01840784126225197,0.8921034717494895
852,0.01840784126225197,0.8924438393464942
853,0.018459069020866775,0.8924438393464942
854,0.018459069020866775,0.892784206943499
855,0.018476144940405042,0.892784206943499
856,0.018476144940405042,0.8931245745405038
857,0.018510296779481576,0.8931245745405038
858,0.018510296779481576,0.8934649421375085
859,0.018561524538096376,0.8934649421375085
860,0.018561524538096376,0.8938053097345132
861,0.01871520781394078,0.8938053097345132
862,0.01871520781394078,0.8941456773315181
863,0.018817663331170385,0.8941456773315181
864,0.018817663331170385,0.8944860449285228
865,0.018851815170246918,0.8944860449285228
866,0.018851815170246918,0.8948264125255275
867,0.018885967009323452,0.8948264125255275
868,0.018885967009323452,0.8951667801225324
869,0.019039650285167856,0.8951667801225324
870,0.019039650285167856,0.8955071477195371
871,0.019090878043782657,0.8955071477195371
872,0.019090878043782657,0.8958475153165418
873,0.019227485400088794,0.8958475153165418
874,0.019227485400088794,0.8965282505105514
875,0.019261637239165328,0.8965282505105514
876,0.019261637239165328,0.8968686181075561
877,0.019347016836856665,0.8968686181075561
878,0.019347016836856665,0.897208985704561
879,0.019517776032239337,0.897208985704561
880,0.019517776032239337,0.8975493533015657
881,0.019569003790854137,0.8975493533015657
882,0.019569003790854137,0.8978897208985704
883,0.019842218503466413,0.8978897208985704
884,0.019842218503466413,0.8982300884955752
885,0.019876370342542946,0.8982300884955752
886,0.019876370342542946,0.89857045609258
887,0.019927598101157747,0.89857045609258
888,0.019927598101157747,0.8989108236895847
889,0.020098357296540418,0.8989108236895847
890,0.020098357296540418,0.8992511912865895
891,0.020303268330999623,0.8992511912865895
892,0.020303268330999623,0.8995915588835943
893,0.020405723848229227,0.8995915588835943
894,0.020405723848229227,0.899931926480599
895,0.020474027526382294,0.899931926480599
896,0.020474027526382294,0.9009530292716134
897,0.02074724223899457,0.9009530292716134
898,0.02074724223899457,0.9012933968686181
899,0.020764318158532837,0.9012933968686181
900,0.020764318158532837,0.9019741320626277
901,0.020849697756224174,0.9019741320626277
902,0.020849697756224174,0.9023144996596324
903,0.021379051261910455,0.9023144996596324
904,0.021379051261910455,0.9026548672566371
905,0.02139612718144872,0.9026548672566371
906,0.02139612718144872,0.902995234853642
907,0.02141320310098699,0.902995234853642
908,0.02141320310098699,0.9033356024506467
909,0.021498582698678322,0.9033356024506467
910,0.021498582698678322,0.9036759700476514
911,0.021549810457293126,0.9036759700476514
912,0.021549810457293126,0.9040163376446563
913,0.021566886376831393,0.9040163376446563
914,0.021566886376831393,0.904356705241661
915,0.021618114135446193,0.904356705241661
916,0.021618114135446193,0.9046970728386657
917,0.021669341894060994,0.9046970728386657
918,0.021669341894060994,0.9050374404356705
919,0.02170349373313753,0.9050374404356705
920,0.02170349373313753,0.9053778080326753
921,0.021720569652675797,0.9053778080326753
922,0.021720569652675797,0.90571817562968
923,0.021771797411290598,0.90571817562968
924,0.021771797411290598,0.9060585432266848
925,0.021908404767596736,0.9060585432266848
926,0.021908404767596736,0.9063989108236896
927,0.022027936204364607,0.9063989108236896
928,0.022027936204364607,0.9067392784206944
929,0.022147467641132474,0.9067392784206944
930,0.022147467641132474,0.9070796460176991
931,0.022181619480209008,0.9070796460176991
932,0.022181619480209008,0.9074200136147039
933,0.02230115091697688,0.9074200136147039
934,0.02230115091697688,0.9077603812117087
935,0.022488986031897817,0.9077603812117087
936,0.022488986031897817,0.9081007488087134
937,0.02259144154912742,0.9081007488087134
938,0.02259144154912742,0.908781484002723
939,0.02277927666404836,0.908781484002723
940,0.02277927666404836,0.9094622191967324
941,0.02289880810081623,0.9094622191967324
942,0.02289880810081623,0.9098025867937373
943,0.02295003585943103,0.9098025867937373
944,0.02295003585943103,0.9108236895847516
945,0.022967111778969297,0.9108236895847516
946,0.022967111778969297,0.9111640571817563
947,0.023018339537584098,0.9111640571817563
948,0.023018339537584098,0.911504424778761
949,0.023035415457122364,0.911504424778761
950,0.023035415457122364,0.9118447923757659
951,0.023223250572043306,0.9118447923757659
952,0.023223250572043306,0.9125255275697753
953,0.02330863016973464,0.9125255275697753
954,0.02330863016973464,0.9128658951667801
955,0.023325706089272907,0.9128658951667801
956,0.023325706089272907,0.9132062627637849
957,0.023342782008811173,0.9132062627637849
958,0.023342782008811173,0.9135466303607896
959,0.02335985792834944,0.9135466303607896
960,0.02335985792834944,0.9138869979577944
961,0.023462313445579044,0.9138869979577944
962,0.023462313445579044,0.9142273655547992
963,0.02366722448003825,0.9142273655547992
964,0.02366722448003825,0.914567733151804
965,0.023718452238653053,0.914567733151804
966,0.023718452238653053,0.9149081007488087
967,0.023855059594959187,0.9149081007488087
968,0.023855059594959187,0.9152484683458135
969,0.023889211434035725,0.9152484683458135
970,0.023889211434035725,0.9155888359428183
971,0.024077046548956663,0.9155888359428183
972,0.024077046548956663,0.915929203539823
973,0.024435640859260272,0.915929203539823
974,0.024435640859260272,0.9162695711368277
975,0.024538096376489873,0.9162695711368277
976,0.024538096376489873,0.9166099387338326
977,0.02455517229602814,0.9166099387338326
978,0.02455517229602814,0.9169503063308373
979,0.024606400054642943,0.9169503063308373
980,0.024606400054642943,0.917290673927842
981,0.024828387008640415,0.917290673927842
982,0.024828387008640415,0.9176310415248469
983,0.025272360916635362,0.9176310415248469
984,0.025272360916635362,0.9179714091218516
985,0.025306512755711896,0.9179714091218516
986,0.025306512755711896,0.9183117767188563
987,0.02534066459478843,0.9183117767188563
988,0.02534066459478843,0.9186521443158612
989,0.0255626515487859,0.9186521443158612
990,0.0255626515487859,0.9189925119128659
991,0.025596803387862438,0.9189925119128659
992,0.025596803387862438,0.9193328795098706
993,0.025613879307400705,0.9193328795098706
994,0.025613879307400705,0.9196732471068755
995,0.02564803114647724,0.9196732471068755
996,0.02564803114647724,0.9200136147038802
997,0.02587001810047471,0.9200136147038802
998,0.02587001810047471,0.9203539823008849
999,0.026143232813086986,0.9203539823008849
1000,0.026143232813086986,0.9206943498978897
1001,0.026194460571701786,0.9206943498978897
1002,0.026194460571701786,0.9210347174948945
1003,0.026416447525699258,0.9210347174948945
1004,0.026416447525699258,0.9213750850918992
1005,0.026997028790000342,0.9213750850918992
1006,0.026997028790000342,0.921715452688904
1007,0.027150712065844747,0.921715452688904
1008,0.027150712065844747,0.9220558202859088
1009,0.02730439534168915,0.9220558202859088
1010,0.02730439534168915,0.9223961878829136
1011,0.027406850858918752,0.9223961878829136
1012,0.027406850858918752,0.9227365554799183
1013,0.02742392677845702,0.9227365554799183
1014,0.02742392677845702,0.9230769230769231
1015,0.027458078617533556,0.9230769230769231
1016,0.027458078617533556,0.9234172906739279
1017,0.027526382295686623,0.9234172906739279
1018,0.027526382295686623,0.9237576582709326
1019,0.027731293330145828,0.9237576582709326
1020,0.027731293330145828,0.9240980258679373
1021,0.027833748847375432,0.9240980258679373
1022,0.027867900686451966,0.9240980258679373
1023,0.027867900686451966,0.9244383934649422
1024,0.028226494996755575,0.9244383934649422
1025,0.028226494996755575,0.9247787610619469
1026,0.028619241146135718,0.9247787610619469
1027,0.028619241146135718,0.9251191286589516
1028,0.028670468904750522,0.9251191286589516
1029,0.028670468904750522,0.9257998638529612
1030,0.028824152180594927,0.9257998638529612
1031,0.028824152180594927,0.9261402314499659
1032,0.0290461391345924,0.9261402314499659
1033,0.0290461391345924,0.9264805990469708
1034,0.02931935384720467,0.9264805990469708
1035,0.02931935384720467,0.9268209666439755
1036,0.02933642976674294,0.9268209666439755
1037,0.02933642976674294,0.9271613342409802
1038,0.029370581605819474,0.9271613342409802
1039,0.029370581605819474,0.927501701837985
1040,0.029421809364434275,0.927501701837985
1041,0.029421809364434275,0.9278420694349898
1042,0.029763327755199617,0.9278420694349898
1043,0.029763327755199617,0.9281824370319945
1044,0.030190225743656297,0.9281824370319945
1045,0.030190225743656297,0.9285228046289993
1046,0.030292681260885898,0.9285228046289993
1047,0.030292681260885898,0.9288631722260041
1048,0.03041221269765377,0.9288631722260041
1049,0.03041221269765377,0.9292035398230089
1050,0.030480516375806836,0.9292035398230089
1051,0.030480516375806836,0.9295439074200136
1052,0.030804958847033912,0.9295439074200136
1053,0.030804958847033912,0.9298842750170184
1054,0.03082203476657218,0.9298842750170184
1055,0.03082203476657218,0.9302246426140232
1056,0.030958642122878317,0.9302246426140232
1057,0.030958642122878317,0.9305650102110279
1058,0.031026945801031387,0.9305650102110279
1059,0.031026945801031387,0.9309053778080327
1060,0.031078173559646188,0.9309053778080327
1061,0.031078173559646188,0.9312457454050375
1062,0.03111232539872272,0.9312457454050375
1063,0.03111232539872272,0.9315861130020422
1064,0.03124893275502886,0.9315861130020422
1065,0.03124893275502886,0.9319264805990469
1066,0.03147091970902633,0.9319264805990469
1067,0.03147091970902633,0.9322668481960518
1068,0.031505071548102864,0.9322668481960518
1069,0.031505071548102864,0.9326072157930565
1070,0.031522147467641135,0.9326072157930565
1071,0.031522147467641135,0.9329475833900612
1072,0.0315392233871794,0.9329475833900612
1073,0.0315392233871794,0.9332879509870661
1074,0.03155629930671767,0.9332879509870661
1075,0.03155629930671767,0.9336283185840708
1076,0.031607527065332465,0.9336283185840708
1077,0.031607527065332465,0.9339686861810755
1078,0.031744134421638606,0.9339686861810755
1079,0.031744134421638606,0.9343090537780804
1080,0.03252962672039889,0.9343090537780804
1081,0.03252962672039889,0.9346494213750851
1082,0.03271746183531983,0.9346494213750851
1083,0.03271746183531983,0.9349897889720898
1084,0.0327345377548581,0.9349897889720898
1085,0.0327345377548581,0.9353301565690946
1086,0.032751613674396364,0.9353301565690946
1087,0.032751613674396364,0.9356705241660994
1088,0.03312728390423824,0.9356705241660994
1089,0.03312728390423824,0.9360108917631041
1090,0.03314435982377651,0.9360108917631041
1091,0.03314435982377651,0.9363512593601089
1092,0.03316143574331478,0.9363512593601089
1093,0.03316143574331478,0.9366916269571137
1094,0.03326389126054438,0.9366916269571137
1095,0.03326389126054438,0.9370319945541185
1096,0.03334927085823572,0.9370319945541185
1097,0.03334927085823572,0.9373723621511232
1098,0.03343465045592705,0.9373723621511232
1099,0.03343465045592705,0.937712729748128
1100,0.033707865168539325,0.937712729748128
1101,0.033707865168539325,0.9380530973451328
1102,0.03420306683514907,0.9380530973451328
1103,0.03420306683514907,0.9383934649421375
1104,0.03445920562822308,0.9383934649421375
1105,0.03445920562822308,0.9387338325391422
1106,0.03462996482360575,0.9387338325391422
1107,0.03462996482360575,0.9390742001361471
1108,0.034954407294832825,0.9390742001361471
1109,0.034954407294832825,0.9394145677331518
1110,0.034971483214371095,0.9394145677331518
1111,0.034971483214371095,0.9397549353301565
1112,0.0350227109729859,0.9397549353301565
1113,0.0350227109729859,0.9411164057181757
1114,0.035261773846521634,0.9411164057181757
1115,0.035261773846521634,0.9414567733151804
1116,0.035483760800519105,0.9414567733151804
1117,0.035483760800519105,0.9417971409121851
1118,0.03555206447867218,0.9417971409121851
1119,0.03555206447867218,0.94213750850919
1120,0.03597896246712885,0.94213750850919
1121,0.03597896246712885,0.9424778761061947
1122,0.036371708616509,0.9424778761061947
1123,0.036371708616509,0.9428182437031994
1124,0.037276732352037156,0.9428182437031994
1125,0.037276732352037156,0.9431586113002042
1126,0.0376694785014173,0.9431586113002042
1127,0.0376694785014173,0.9438393464942137
1128,0.03775485809910864,0.9438393464942137
1129,0.03775485809910864,0.9441797140912185
1130,0.03898432430586387,0.9441797140912185
1131,0.03898432430586387,0.9445200816882233
1132,0.03939414637478228,0.9445200816882233
1133,0.03939414637478228,0.944860449285228
1134,0.0399064239609303,0.944860449285228
1135,0.0399064239609303,0.9452008168822328
1136,0.04024794235169564,0.9452008168822328
1137,0.04024794235169564,0.9455411844792376
1138,0.04086267545507326,0.9455411844792376
1139,0.04086267545507326,0.9458815520762424
1140,0.04087975137461152,0.9458815520762424
1141,0.04087975137461152,0.9462219196732471
1142,0.04089682729414979,0.9462219196732471
1143,0.04089682729414979,0.9465622872702518
1144,0.04096513097230286,0.9465622872702518
1145,0.04096513097230286,0.9472430224642614
1146,0.04108466240907073,0.9472430224642614
1147,0.04108466240907073,0.9475833900612661
1148,0.0411529660872238,0.9475833900612661
1149,0.0411529660872238,0.947923757658271
1150,0.041238345684915134,0.947923757658271
1151,0.041238345684915134,0.9482641252552757
1152,0.04149448447798914,0.9482641252552757
1153,0.04149448447798914,0.9486044928522804
1154,0.04168231959291008,0.9486044928522804
1155,0.04168231959291008,0.9489448604492853
1156,0.04180185102967795,0.9489448604492853
1157,0.04180185102967795,0.94928522804629
1158,0.04181892694921621,0.94928522804629
1159,0.04181892694921621,0.9496255956432947
1160,0.04315084867320105,0.9496255956432947
1161,0.04315084867320105,0.9503063308373043
1162,0.04318500051227759,0.9503063308373043
1163,0.04318500051227759,0.950646698434309
1164,0.04398756873057614,0.950646698434309
1165,0.04398756873057614,0.9509870660313138
1166,0.04422663160411188,0.9509870660313138
1167,0.04422663160411188,0.9513274336283186
1168,0.045524401489020185,0.9513274336283186
1169,0.045524401489020185,0.9516678012253234
1170,0.045951299477476865,0.9516678012253234
1171,0.045951299477476865,0.9523485364193329
1172,0.04601960315562993,0.9523485364193329
1173,0.04601960315562993,0.9526889040163377
1174,0.046053754994706465,0.9526889040163377
1175,0.046053754994706465,0.9530292716133424
1176,0.046788019534851955,0.9530292716133424
1177,0.046788019534851955,0.9533696392103471
1178,0.04692462689115809,0.9533696392103471
1179,0.04692462689115809,0.953710006807352
1180,0.046992930569311156,0.953710006807352
1181,0.046992930569311156,0.9540503744043567
1182,0.047727195109456645,0.9540503744043567
1183,0.047727195109456645,0.9543907420013614
1184,0.04890543355759708,0.9543907420013614
1185,0.04890543355759708,0.9547311095983663
1186,0.04924695194836242,0.9547311095983663
1187,0.04924695194836242,0.955071477195371
1188,0.04931525562651549,0.955071477195371
1189,0.04931525562651549,0.9554118447923757
1190,0.049605546258666026,0.9554118447923757
1191,0.049605546258666026,0.9560925799863853
1192,0.05015197568389058,0.9560925799863853
1193,0.05015197568389058,0.95643294758339
1194,0.050322734879273245,0.95643294758339
1195,0.050322734879273245,0.9567733151803949
1196,0.050954543902189134,0.9567733151803949
1197,0.050954543902189134,0.9571136827773996
1198,0.05103992349988047,0.9571136827773996
1199,0.05103992349988047,0.9574540503744043
1200,0.051176530856186606,0.9574540503744043
1201,0.051176530856186606,0.9581347855684139
1202,0.051278986373416206,0.9581347855684139
1203,0.051278986373416206,0.9584751531654186
1204,0.051381441890645814,0.9584751531654186
1205,0.051381441890645814,0.9588155207624234
1206,0.05155220108602848,0.9588155207624234
1207,0.05155220108602848,0.959496255956433
1208,0.05172296028141116,0.959496255956433
1209,0.05172296028141116,0.9598366235534377
1210,0.05290119872955159,0.9598366235534377
1211,0.05290119872955159,0.9601769911504425
1212,0.05308903384447253,0.9601769911504425
1213,0.05308903384447253,0.9605173587474473
1214,0.053994057580000684,0.9605173587474473
1215,0.053994057580000684,0.960857726344452
1216,0.05457463884430177,0.960857726344452
1217,0.05457463884430177,0.9611980939414567
1218,0.054625866602916566,0.9611980939414567
1219,0.054625866602916566,0.9615384615384616
1220,0.054642942522454836,0.9615384615384616
1221,0.054642942522454836,0.9618788291354663
1222,0.05484785355691404,0.9618788291354663
1223,0.05484785355691404,0.962219196732471
1224,0.05544551074075339,0.962219196732471
1225,0.05544551074075339,0.9625595643294759
1226,0.05664082510843209,0.9625595643294759
1227,0.05664082510843209,0.9628999319264806
1228,0.057016495338273965,0.9628999319264806
1229,0.057016495338273965,0.9632402995234853
1230,0.05790444315426386,0.9632402995234853
1231,0.05790444315426386,0.9635806671204902
1232,0.058911922407021616,0.9635806671204902
1233,0.058911922407021616,0.9642614023144996
1234,0.05892899832655989,0.9642614023144996
1235,0.05892899832655989,0.9646017699115044
1236,0.05928759263686349,0.9646017699115044
1237,0.05928759263686349,0.9649421375085092
1238,0.05950957959086097,0.9649421375085092
1239,0.05950957959086097,0.9652825051055139
1240,0.06012431269423858,0.9652825051055139
1241,0.06012431269423858,0.9656228727025187
1242,0.06097810867115194,0.9656228727025187
1243,0.06097810867115194,0.9659632402995235
1244,0.06292476349851439,0.9659632402995235
1245,0.06292476349851439,0.9663036078965282
1246,0.06311259861343534,0.9663036078965282
1247,0.06311259861343534,0.966643975493533
1248,0.06319797821112667,0.966643975493533
1249,0.06319797821112667,0.9669843430905378
1250,0.06372733171681295,0.9669843430905378
1251,0.06372733171681295,0.9673247106875426
1252,0.06377855947542775,0.9673247106875426
1253,0.06377855947542775,0.9676650782845473
1254,0.06398347050988695,0.9676650782845473
1255,0.06398347050988695,0.9680054458815521
1256,0.06488849424541511,0.9680054458815521
1257,0.06488849424541511,0.9683458134785569
1258,0.06499094976264472,0.9683458134785569
1259,0.06499094976264472,0.9686861810755616
1260,0.06569106246371367,0.9686861810755616
1261,0.06569106246371367,0.9690265486725663
1262,0.06770602096922919,0.9690265486725663
1263,0.06770602096922919,0.9693669162695712
1264,0.06886718349783136,0.9693669162695712
1265,0.06886718349783136,0.9697072838665759
1266,0.0689013353369079,0.9697072838665759
1267,0.0689013353369079,0.9700476514635806
1268,0.06907209453229056,0.9700476514635806
1269,0.06907209453229056,0.9703880190605855
1270,0.07013080154366312,0.9703880190605855
1271,0.07013080154366312,0.9707283866575902
1272,0.07055769953211981,0.9707283866575902
1273,0.07055769953211981,0.9710687542545949
1274,0.0717530138997985,0.9710687542545949
1275,0.0717530138997985,0.9714091218515998
1276,0.0718042416584133,0.9714091218515998
1277,0.0718042416584133,0.9717494894486045
1278,0.07219698780779345,0.9717494894486045
1279,0.07219698780779345,0.9720898570456092
1280,0.07233359516409958,0.9720898570456092
1281,0.07233359516409958,0.972430224642614
1282,0.07286294866978586,0.972430224642614
1283,0.07286294866978586,0.9727705922396188
1284,0.07361428912946962,0.9727705922396188
1285,0.07361428912946962,0.9731109598366235
1286,0.07376797240531402,0.9731109598366235
1287,0.07376797240531402,0.9734513274336283
1288,0.07453638878453604,0.9734513274336283
1289,0.07453638878453604,0.9737916950306331
1290,0.07532188108329634,0.9737916950306331
1291,0.07532188108329634,0.9741320626276379
1292,0.07663672688774291,0.9741320626276379
1293,0.07663672688774291,0.9744724302246426
1294,0.07704654895666131,0.9744724302246426
1295,0.07704654895666131,0.9748127978216474
1296,0.07714900447389092,0.9748127978216474
1297,0.07714900447389092,0.9751531654186522
1298,0.07800280045080428,0.9751531654186522
1299,0.07800280045080428,0.9754935330156569
1300,0.07819063556572521,0.9754935330156569
1301,0.07819063556572521,0.9758339006126616
1302,0.0789761278644855,0.9758339006126616
1303,0.0789761278644855,0.9761742682096665
1304,0.07965916464601619,0.9761742682096665
1305,0.07969331648509272,0.9761742682096665
1306,0.08213517297906492,0.9761742682096665
1307,0.08213517297906492,0.9765146358066712
1308,0.08259622280659813,0.9765146358066712
1309,0.08259622280659813,0.9771953710006808
1310,0.08333048734674363,0.9771953710006808
1311,0.08333048734674363,0.9775357385976855
1312,0.08341586694443495,0.9775357385976855
1313,0.08341586694443495,0.9778761061946902
1314,0.08363785389843242,0.9778761061946902
1315,0.08363785389843242,0.9782164737916951
1316,0.08561866056487141,0.9782164737916951
1317,0.08561866056487141,0.9785568413886998
1318,0.08696765820839453,0.9785568413886998
1319,0.08696765820839453,0.9788972089857045
1320,0.08908507223113965,0.9788972089857045
1321,0.08908507223113965,0.9792375765827094
1322,0.0908780437826577,0.9792375765827094
1323,0.0908780437826577,0.9795779441797141
1324,0.09130494177111438,0.9795779441797141
1325,0.09130494177111438,0.9799183117767188
1326,0.09150985280557358,0.9799183117767188
1327,0.09150985280557358,0.9802586793737236
1328,0.09345650763293603,0.9802586793737236
1329,0.09345650763293603,0.9805990469707284
1330,0.09386632970185445,0.9805990469707284
1331,0.09386632970185445,0.9809394145677331
1332,0.09388340562139272,0.9809394145677331
1333,0.09388340562139272,0.9812797821647379
1334,0.09412246849492845,0.9812797821647379
1335,0.09412246849492845,0.9816201497617427
1336,0.09499334039138008,0.9816201497617427
1337,0.09499334039138008,0.9819605173587475
1338,0.09526655510399235,0.9819605173587475
1339,0.09526655510399235,0.9823008849557522
1340,0.09547146613845156,0.9823008849557522
1341,0.09547146613845156,0.982641252552757
1342,0.09671800826474505,0.982641252552757
1343,0.09671800826474505,0.9829816201497618
1344,0.0981011577473447,0.9829816201497618
1345,0.0981011577473447,0.9833219877467665
1346,0.09905740924148765,0.9833219877467665
1347,0.09905740924148765,0.9836623553437712
1348,0.10156756941361292,0.9836623553437712
1349,0.10156756941361292,0.9840027229407761
1350,0.1030360984939039,0.9840027229407761
1351,0.1030360984939039,0.9843430905377808
1352,0.1030873262525187,0.9843430905377808
1353,0.1030873262525187,0.9846834581347855
1354,0.10359960383866672,0.9846834581347855
1355,0.10363375567774324,0.9846834581347855
1356,0.10382159079266419,0.9846834581347855
1357,0.10382159079266419,0.9850238257317904
1358,0.10424848878112086,0.9850238257317904
1359,0.10424848878112086,0.9853641933287951
1360,0.10855162050476418,0.9853641933287951
1361,0.10855162050476418,0.9857045609257998
1362,0.11012260510228476,0.9857045609257998
1363,0.11015675694136129,0.9857045609257998
1364,0.11094224924012158,0.9857045609257998
1365,0.11094224924012158,0.9860449285228047
1366,0.11336702981455551,0.9860449285228047
1367,0.11336702981455551,0.9863852961198094
1368,0.11509169768792049,0.9863852961198094
1369,0.11509169768792049,0.9867256637168141
1370,0.11830197056111472,0.9867256637168141
1371,0.11830197056111472,0.9870660313138189
1372,0.12393702400874287,0.9870660313138189
1373,0.12393702400874287,0.9874063989108237
1374,0.12711314504286056,0.9874063989108237
1375,0.12711314504286056,0.9877467665078284
1376,0.1290768757897613,0.9877467665078284
1377,0.1290768757897613,0.9880871341048332
1378,0.13027219015744,0.9880871341048332
1379,0.13027219015744,0.988427501701838
1380,0.13047710119189918,0.988427501701838
1381,0.13047710119189918,0.9887678692988427
1382,0.1317577951572692,0.9887678692988427
1383,0.1317577951572692,0.9891082368958475
1384,0.13220176906526415,0.9891082368958475
1385,0.13220176906526415,0.9894486044928523
1386,0.133277551996175,0.9894486044928523
1387,0.133277551996175,0.989788972089857
1388,0.13341415935248113,0.989788972089857
1389,0.13341415935248113,0.9901293396868618
1390,0.13419965165124143,0.9901293396868618
1391,0.13419965165124143,0.9904697072838666
1392,0.1343191830880093,0.9904697072838666
1393,0.1343191830880093,0.9908100748808714
1394,0.13828079642088725,0.9908100748808714
1395,0.13828079642088725,0.9911504424778761
1396,0.1438816980294389,0.9911504424778761
1397,0.1438816980294389,0.9914908100748808
1398,0.14447935521327823,0.9914908100748808
1399,0.14447935521327823,0.9918311776718857
1400,0.14466719032819916,0.9918311776718857
1401,0.14466719032819916,0.9921715452688904
1402,0.14746764113247499,0.9921715452688904
1403,0.14746764113247499,0.9925119128658951
1404,0.15341006113179195,0.9925119128658951
1405,0.15341006113179195,0.9928522804629
1406,0.1550493494074656,0.9928522804629
1407,0.1550493494074656,0.9931926480599047
1408,0.16435572555582117,0.9931926480599047
1409,0.16435572555582117,0.9935330156569094
1410,0.16438987739489772,0.9935330156569094
1411,0.16438987739489772,0.9938733832539143
1412,0.16654144325671938,0.9938733832539143
1413,0.16657559509579592,0.9938733832539143
1414,0.17087872681943922,0.9938733832539143
1415,0.17091287865851576,0.9938733832539143
1416,0.17376455722140638,0.9938733832539143
1417,0.17376455722140638,0.994213750850919
1418,0.17554045285338615,0.994213750850919
1419,0.1755746046924627,0.994213750850919
1420,0.17818722038181756,0.994213750850919
1421,0.17818722038181756,0.9945541184479237
1422,0.1842491718179024,0.9945541184479237
1423,0.1842491718179024,0.9948944860449285
1424,0.189337795840306,0.9948944860449285
1425,0.18937194767938254,0.9948944860449285
1426,0.190806324920597,0.9948944860449285
1427,0.1908404767596735,0.9948944860449285
1428,0.19456302721901575,0.9948944860449285
1429,0.19456302721901575,0.9952348536419333
1430,0.19750008537959768,0.9952348536419333
1431,0.19750008537959768,0.995575221238938
1432,0.1998907141149551,0.995575221238938
1433,0.1998907141149551,0.9959155888359428
1434,0.20390355520644787,0.9959155888359428
1435,0.20390355520644787,0.9962559564329476
1436,0.20417676991906014,0.9962559564329476
1437,0.20421092175813668,0.9962559564329476
1438,0.2121512243434309,0.9962559564329476
1439,0.2121512243434309,0.9965963240299524
1440,0.21764967043475292,0.9965963240299524
1441,0.21764967043475292,0.9969366916269571
1442,0.21981831221611284,0.9969366916269571
1443,0.21985246405518938,0.9969366916269571
1444,0.22068918411256447,0.9969366916269571
1445,0.22068918411256447,0.9972770592239619
1446,0.22173081520439875,0.9972770592239619
1447,0.2217649670434753,0.9972770592239619
1448,0.23296677026057852,0.9972770592239619
1449,0.23296677026057852,0.9976174268209667
1450,0.23474266589255832,0.9976174268209667
1451,0.23477681773163483,0.9976174268209667
1452,0.23902872169666337,0.9976174268209667
1453,0.23902872169666337,0.9979577944179714
1454,0.24094122468494927,0.9979577944179714
1455,0.2409753765240258,0.9979577944179714
1456,0.24128274307571462,0.9979577944179714
1457,0.24128274307571462,0.9982981620149761
1458,0.2455004952016666,0.9982981620149761
1459,0.24553464704074315,0.9982981620149761
1460,0.2553362248557085,0.9982981620149761
1461,0.255370376694785,0.9982981620149761
1462,0.2577097776715276,0.9982981620149761
1463,0.25774392951060415,0.9982981620149761
1464,0.2652061063488269,0.9982981620149761
1465,0.2652061063488269,0.998638529611981
1466,0.27130220962398827,0.998638529611981
1467,0.27130220962398827,0.9989788972089857
1468,0.2746490898534886,0.9989788972089857
1469,0.2746490898534886,0.9993192648059904
1470,0.2771763259451521,0.9993192648059904
1471,0.2772104777842287,0.9993192648059904
1472,0.27977186571496876,0.9993192648059904
1473,0.27980601755404527,0.9993192648059904
1474,0.2812916225538745,0.9993192648059904
1475,0.28132577439295103,0.9993192648059904
1476,0.29447423243741677,0.9993192648059904
1477,0.29447423243741677,0.9996596324029953
1478,0.3085789419760254,0.9996596324029953
1479,0.30861309381510194,0.9996596324029953
1480,0.31587035961886545,0.9996596324029953
1481,0.315904511457942,0.9996596324029953
1482,0.32717461835319833,0.9996596324029953
1483,0.32717461835319833,1.0
1484,0.3330658105939005,1.0
1485,0.333099962432977,1.0
1486,0.34180868139749326,1.0
1487,0.3418428332365698,1.0
1488,0.34857074553464706,1.0
1489,0.3486048973737236,1.0
1490,0.3799733615655203,1.0
1491,0.3800075134045968,1.0
1492,0.38113452409412246,1.0
1493,0.38116867593319903,1.0
1494,0.3817492571975001,1.0
1495,0.3817834090365766,1.0
1496,0.38914313035756976,1.0
1497,0.38917728219664627,1.0
1498,0.38931388955295243,1.0
1499,0.38934804139202894,1.0
1500,0.39793722891977734,1.0
1501,0.39797138075885385,1.0
1502,0.4044260783443188,1.0
1503,0.4044602301833954,1.0
1504,0.4138007581708275,1.0
1505,0.4138690618489806,1.0
1506,0.41395444144667193,1.0
1507,0.41398859328574844,1.0
1508,0.4206652778252109,1.0
1509,0.4206994296642874,1.0
1510,0.4275297974795943,1.0
1511,0.4275639493186708,1.0
1512,0.4502919982241044,1.0
1513,0.4503261500631809,1.0
1514,0.4844779891397152,1.0
1515,0.4845121409787917,1.0
1516,0.5064205457463884,1.0
1517,0.506454697585465,1.0
1518,0.5166319456302721,1.0
1519,0.5166660974693488,1.0
1520,0.5172979064922646,1.0
1521,0.5173320583313411,1.0
1522,0.5418872306273693,1.0
1523,0.5419213824664458,1.0
1524,0.5537208428673884,1.0
1525,0.5537549947064649,1.0
1526,0.5567774324647382,1.0
1527,0.5568115843038147,1.0
1528,0.5765342713705133,1.0
1529,0.5765684232095898,1.0
1530,0.5772685359106587,1.0
1531,0.5773026877497354,1.0
1532,0.5853625217717974,1.0
1533,0.585396673610874,1.0
1534,0.5929100782077115,1.0
1535,0.592944230046788,1.0
1536,0.6036679075168198,1.0
1537,0.6037020593558963,1.0
1538,0.6044192479765035,1.0
1539,0.6044533998155801,1.0
1540,0.6061268399303302,1.0
1541,0.6061609917694067,1.0
1542,0.6071513951026263,1.0
1543,0.6071855469417028,1.0
1544,0.6198729551586353,1.0
1545,0.6199071069977118,1.0
1546,0.6336873740650935,1.0
1547,0.63372152590417,1.0
1548,0.6396980977425635,1.0
1549,0.63973224958164,1.0
1550,0.6406885010757829,1.0
1551,0.6407226529148594,1.0
1552,0.641525221133158,1.0
1553,0.6415593729722345,1.0
1554,0.645162391994809,1.0
1555,0.6451965438338855,1.0
1556,0.6587206721081931,1.0
1557,0.6587548239472696,1.0
1558,0.6596427717632595,1.0
1559,0.659676923602336,1.0
1560,0.6703664492332913,1.0
1561,0.6704006010723678,1.0
1562,0.6709811823366688,1.0
1563,0.6710153341757453,1.0
1564,0.6761381100372255,1.0
1565,0.6761722618763021,1.0
1566,0.677060209692292,1.0
1567,0.6770943615313685,1.0
1568,0.680646152795328,1.0
1569,0.6806803046344045,1.0
1570,0.6851029677948157,1.0
1571,0.6851371196338922,1.0
1572,0.6928383593456507,1.0
1573,0.6928725111847273,1.0
1574,0.6995150438851132,1.0
1575,0.6995491957241897,1.0
1576,0.7259485673303507,1.0
1577,0.7259827191694272,1.0
1578,0.7515795225572897,1.0
1579,0.7516136743963663,1.0
1580,0.8059834022062088,1.0
1581,0.8060175540452853,1.0
1582,0.8274649089853489,1.0
1583,0.8274990608244254,1.0
1584,0.8655612854752228,1.0
1585,0.8655954373142993,1.0
1586,0.8878453604726615,1.0
1587,0.887879512311738,1.0
1588,0.9278542399508214,1.0
1589,0.9278883917898979,1.0
1590,0.9425566066732693,1.0
1591,0.9425907585123459,1.0
1592,0.9451350705235477,1.0
1593,0.9451692223626242,1.0
1594,0.9684949284518971,1.0
1595,0.9685290802909736,1.0
1596,1.0,1.0
