tpr,fpr
0.0,0.0
0.0021072848035423,0.0001602924771016
0.0053615727280002,0.0002979173311788
0.0081090453199605,0.0004371613011863
0.0109632158766571,0.0005488803003783
0.0142975272746672,0.0006913625022465
0.0170983488489957,0.0008500358634178
0.0199258449145082,0.0010006136449375
0.0232868308037024,0.0011333811512238
0.0262743738163194,0.0012904353964648
0.029448638267225,0.0014264411346116
0.0321160873856331,0.0015575895249675
0.0348368854864093,0.0017292158135814
0.0374509856224492,0.0018830318269618
0.0405452265998026,0.0020352287244118
0.0431059777534743,0.0021841873900013
0.0462535677131958,0.0023331460555907
0.048627597428579,0.0024740091415285
0.0511083251086985,0.0026164913433966
0.0538824721918429,0.0027719264727073
0.0566566192749873,0.0029241233701574
0.059217370428659,0.003084415847259
0.0618314705646989,0.0032544230199426
0.0646856411213956,0.0034130963811139
0.0672197177838832,0.0035911991334491
0.0698604924111072,0.0037353004512476
0.0725546160206994,0.0039004502761402
0.0753554375950278,0.0040882677240573
0.0779428632398837,0.0042598940126712
0.0805836378671076,0.0044218056057031
0.0831443890207794,0.0046015274739686
0.0855717677185307,0.0047618199510703
0.0878924484515457,0.0049431609352661
0.0902398036757448,0.0051293592672528
0.0930672997412574,0.0053042237877274
0.0956280508949291,0.0054871838878535
0.0981087785750486,0.0056604292923977
0.1002427378697751,0.0058547232040361
0.1026701165675264,0.0060376833041622
0.1050174717917255,0.0062206434042883
0.1072047800688201,0.0064068417362751
0.1094187628370988,0.0066480900098927
0.1116060711141935,0.0068715280082769
0.1138734028648403,0.00709010865887
0.116407479527328,0.0073005937298116
0.1187815092427111,0.0075207934963351
0.1210755154845421,0.0077086109442522
0.1235295686734775,0.0079061430877512
0.1255301555122836,0.0080955796515986
0.1275574168422737,0.0083060647225401
0.1296113526634479,0.0085003586341785
0.1318520099229107,0.0087059863573291
0.1336925498146123,0.0088970420371068
0.1356931366534183,0.0090978124124665
0.1378270959481448,0.0093115357152687
0.1396142868574782,0.0095349737136528
0.1416415481874683,0.0097648881757582
0.1435621115527221,0.009955943855536
0.1459628157592894,0.0101583333468259
0.1479634025980954,0.0103688184177675
0.1497772679986129,0.010543682938242
0.151804529328603,0.0107590253569745
0.1535650457467524,0.0110310368332682
0.1554055856384539,0.0112253307449066
0.1575128704419963,0.0114180055406147
0.1597802021926431,0.0116284906115562
0.1618874869961855,0.0118600241895919
0.1639947717997279,0.0121174636225128
0.1660753821120862,0.0123441398527575
0.1680759689508922,0.0125513866918385
0.1701299047720664,0.0127732055742923
0.1719437701725839,0.0130371214709344
0.1743444743791512,0.0133253241065313
0.1763984102003254,0.0136070502784069
0.1783456480567633,0.0138855382184219
0.1802928859132012,0.014113833564597
0.1827736135933207,0.0143842259249604
0.1849075728880471,0.01463518889416
0.1869348342180373,0.0148715798199866
0.1889087465656592,0.0151031133980224
0.1909093334044653,0.0153637910628038
0.1929899437168236,0.0156082775682821
0.1952039264851023,0.0158122861755024
0.1975246072181173,0.0160551535650504
0.1992051001627144,0.0162834489112254
0.2012323614927045,0.0166056529813591
0.2032596228226946,0.0168517586027677
0.2052068606791325,0.0171642479773194
0.2072074475179386,0.017405496250937
0.2091546853743764,0.0176208386696695
0.210995225266078,0.0178944692618936
0.2128624396489637,0.0181389557673719
0.2148096775054015,0.0183915378525017
0.2169703112913121,0.0186943125314715
0.21891754914775,0.0190553753839328
0.220571367601163,0.0193743412222058
0.2229187228253621,0.0197014026401304
0.2244925178052228,0.0200883713474768
0.2263597321881085,0.020383050446795
0.2282269465709941,0.0206825868939041
0.2299874629891435,0.020980504225083
0.2318546773720291,0.0212687068606799
0.2334551468430739,0.0215909109308135
0.2351089652964869,0.0219163532328078
0.2366560857851636,0.0222855116649207
0.2384699511856811,0.0226611465607548
0.2403104910773827,0.0230303049928677
0.2419643095307957,0.023315269396604
0.2436181279842087,0.0236925234083685
0.2452452719464376,0.023988821623617
0.2469524393822187,0.0243191212734022
0.2487129558003681,0.0246542782709784
0.2504201232361492,0.0249586720658785
0.2521006161807463,0.0252614467448483
0.2537544346341593,0.0256111757857974
0.2553549041052042,0.0260386223914018
0.2570087225586172,0.0263867323164205
0.258609192029662,0.0268141789220249
0.2601829870095228,0.0271881947019288
0.2618634799541198,0.027635070698697
0.2633839259516125,0.0280107055945312
0.2651177678785777,0.0282908126504765
0.2666915628584385,0.0287652136180602
0.2684520792765878,0.0291311338183125
0.2699725252740804,0.0296071539018265
0.2716263437274934,0.0299925034932426
0.2733601856544586,0.0304021398236135
0.2748806316519512,0.0308295864292179
0.2766678225612846,0.0312262698321462
0.2782149430499613,0.0316148576554229
0.2798687615033743,0.0320180175220725
0.2813625330096828,0.0324956567215169
0.2829096534983595,0.0328891018925846
0.2844834484782202,0.0332744514840007
0.2861639414228173,0.0336792304665806
0.2878711088585985,0.0342378254625409
0.2892848568913548,0.0347899439947799
0.2909653498359519,0.0353307287155067
0.2925124703246285,0.0358213208423936
0.2941396142868575,0.0362908644621863
0.2955533623196137,0.0368478403422163
0.2971538317906586,0.0372801442956117
0.2986742777881512,0.0378031187411049
0.3001413748032756,0.0382775197086886
0.3015817973272159,0.0388652587913947
0.3031555923070767,0.0393623273820028
0.3046226893222011,0.039935494421336
0.3060897863373256,0.0404698026783415
0.3074768598788978,0.0410996387752359
0.30886393342047,0.0415869926702621
0.3104377284003307,0.04208244214494
0.3118781509242711,0.0428061869657929
0.3134786203953159,0.0433064937882617
0.3149723919016244,0.0438569932045704
0.3166528848462215,0.0444301602439036
0.3180399583877937,0.0451231418620804
0.31945370642055,0.0456817368580407
0.3209741524180426,0.0461966157238824
0.322414574941983,0.0468037841977523
0.3237749739923711,0.0475275290186052
0.3251887220251274,0.0481654606951512
0.3266024700578836,0.0487434850822753
0.3280162180906399,0.0493215094693995
0.3295099895969484,0.0501407821301413
0.3309504121208887,0.0507074727057532
0.3323108111712769,0.0514749336567247
0.3337512336952172,0.0520901977102462
0.335325028675078,0.0527799410965624
0.3368188001813865,0.0534162536571781
0.3382058737229587,0.0541480940576826
0.3395662727733468,0.0547811683864376
0.340953346314919,0.0554191000629836
0.3424471178212275,0.0559809332908045
0.3439408893275361,0.056631817894793
0.3453279628691083,0.0572260334412204
0.3467417109018645,0.0579643503054462
0.3480220864787004,0.0586816186625778
0.3494358345114567,0.0593810767444759
0.3508229080530289,0.0601177744927714
0.3522633305769692,0.0609192368782797
0.3537037531009096,0.0616122184964565
0.3549841286777455,0.0624622543598744
0.3563978767105017,0.0630661846018836
0.3577849502520739,0.0636976398147083
0.3591720237936461,0.0644845301568437
0.3605590973352183,0.0654900011495723
0.3619461708767905,0.0662914635350805
0.3634132678919149,0.0673503653535096
0.3649870628717757,0.0681000160292477
0.3664008109045319,0.0688901446032437
0.3676811864813679,0.0697417995825919
0.3692283069700445,0.070400779766232
0.3705353570380645,0.0711569069056913
0.3720024540531889,0.0720862794496948
0.3733895275947611,0.0730350813848622
0.3748566246098855,0.0737458732782726
0.3761103256955374,0.0745295253885473
0.3775240737282936,0.0754378494254567
0.3788311237963135,0.0762215015357314
0.3800581503907813,0.0769679139796088
0.3814185494411694,0.0777402322783713
0.3827522740003734,0.0786825577498174
0.3841393475419456,0.0794483995848586
0.3853663741364133,0.0802029076083876
0.3867534476779855,0.0809557965159863
0.3880871722371896,0.0818511676254531
0.3894742457787618,0.0826931079092194
0.3907012723732295,0.0835156188018218
0.3920083224412494,0.0842685077094205
0.393208674544533,0.0852998845570341
0.3944890501213689,0.0861790645071977
0.3956627277334685,0.0869967180520092
0.396836405345568,0.0878823744658941
0.3982768278695084,0.0885899281274438
0.3996105524287124,0.0896990225397128
0.4009176024967323,0.0907692581696542
0.4023313505294886,0.0914962412223677
0.4035850516151404,0.0923025609556669
0.4049187761743444,0.093361462774096
0.4063058497159166,0.0943426470278698
0.4076929232574888,0.0953950723825776
0.4089999733255088,0.0962645376371593
0.4100936274640561,0.0973946805565225
0.4114540265144442,0.0985912072290288
0.4127344020912801,0.0994153372375615
0.4139614286857478,0.1003479480134257
0.4152151297713996,0.1011316001237004
0.4164688308570514,0.1019330625092087
0.4178292299074395,0.1028122424593723
0.4190829309930913,0.1039326706831535
0.4202832830963749,0.1050887194574018
0.4216170076555789,0.1059873287987293
0.422950732214783,0.1071401393411169
0.424257782282803,0.1079399826106949
0.4254314598949025,0.1088661169228377
0.4267118354717383,0.1099201613934759
0.4280188855397583,0.1108641059808523
0.4293526100989623,0.1116785212938031
0.4306863346581664,0.1126823731706013
0.4318333377790818,0.1136748912358873
0.4331670623382859,0.1144034934045312
0.4343674144415695,0.1153911541220262
0.4359145349302462,0.1161926165075345
0.4371415615247139,0.11708151115328
0.4385286350662861,0.1180238366247261
0.439809010643122,0.1188560622129105
0.4409560137640374,0.119659143714349
0.4421563658673211,0.1206273750406802
0.4433033689882365,0.1218433311043504
0.4445037210915202,0.122839087401497
0.4458107711595401,0.1235644513382802
0.4470644722451919,0.1245942090699636
0.4483181733308437,0.1255592021644341
0.4496518978900477,0.1263946659844791
0.4509055989756995,0.1274082325568593
0.4522659980260876,0.1285578048673863
0.4534396756381872,0.1295859434831393
0.4545600042679186,0.1305120777952822
0.4558403798447544,0.1315029767446379
0.4569607084744858,0.1325651167949276
0.4581610605777694,0.1334669643681157
0.4593080636986849,0.1344627206652623
0.4606684627490731,0.1355863871209042
0.4620555362906453,0.1367570079385254
0.463309237376297,0.1379632493066136
0.4644829149883966,0.1389233850532932
0.4658166395476006,0.1397701826848504
0.4670970151244365,0.1408242271554885
0.4683240417189042,0.1421033287404411
0.4696577662781082,0.1427380221851265
0.4708314438902078,0.1440527443205461
0.4719250980287551,0.1450193565309469
0.4731787991144069,0.1461154980157734
0.4744325002000586,0.1470740146465227
0.4756328523033423,0.1481393929286731
0.4768865533889941,0.1492242006019873
0.4779268585451732,0.1500774746972658
0.4792339086131932,0.1510716118784821
0.4803809117341087,0.1521353710447021
0.48150124036384,0.1530420759656812
0.4827816159406759,0.1542547937974906
0.4840619915175118,0.155244073630916
0.4850222732001387,0.1563191666086483
0.4862492997946064,0.1571206289941566
0.487422977406706,0.158145529378049
0.4884899570540691,0.1592206223557813
0.4897703326309051,0.1603701946663083
0.4911040571901091,0.1612509937324022
0.4922243858198404,0.1623698028402531
0.49339806343194,0.1635436618897349
0.4946250900264077,0.1644714153178081
0.4957720931473232,0.1653457379201808
0.4969457707594227,0.1664969293466381
0.4979594014244178,0.1675817370199523
0.4989463575982288,0.1688203607066469
0.5001200352103283,0.1701545122332304
0.5012403638400598,0.1712992271959664
0.502307343487423,0.1722464100152035
0.5034810210995225,0.1735837997736476
0.504601349729254,0.1748758542860427
0.5056950038678012,0.175789035670743
0.5069753794446371,0.1768706051121966
0.5082290805302889,0.1779084584235316
0.5094561071247566,0.1791001277482469
0.5107098082104083,0.1801687442622579
0.5119901837872443,0.1813231739205759
0.5129771399610552,0.1825099858975002
0.514230841046707,0.1836109847301176
0.5152978206940703,0.1845403572741212
0.5163914748326176,0.1854794445137066
0.517538477953533,0.1863246230293335
0.5187388300568166,0.1874272409778812
0.519832484195364,0.1884942383759619
0.520846114860359,0.1895320916872969
0.5219664434900905,0.1905715641145621
0.5229800741550855,0.1916677055993886
0.5240737282936327,0.1928108014461943
0.525140707940996,0.193796843047759
0.5263410600442796,0.1948055522723482
0.5274080396916428,0.1957964512217039
0.528448344847822,0.1969865014304889
0.5295419989863693,0.1984550395792889
0.5308757235455733,0.1993746974277105
0.5319960521753048,0.2005744623320774
0.5330096828402998,0.2014552613981713
0.5343167329083198,0.202648549838817
0.535410387046867,0.2037657398307376
0.5365840646589666,0.2046481580127618
0.5376510443063298,0.205621246686884
0.5387180239536931,0.2067449131425259
0.5397316546186881,0.2078540075547949
0.5407986342660513,0.2090116754449735
0.5418656139134146,0.2103555416671389
0.5430126170343301,0.2116977887733739
0.5442129691376137,0.2128004067219217
0.5450665528555043,0.2139694084236125
0.5462135559764197,0.2151788880235614
0.5473338846061512,0.2162847442039697
0.5485075622182507,0.2172335461391371
0.5497079143215343,0.218357212594779
0.5507482194777135,0.2195699304265884
0.5520552695457334,0.2206094028538537
0.5533889941049375,0.2216828767156557
0.5544292992611166,0.2228454019536253
0.555576302382032,0.2238201097436777
0.5565632585558431,0.2248935836054797
0.5576569126943903,0.2260836338142647
0.5585905198858332,0.2272299678929311
0.5597908719891168,0.2283552534645033
0.5607244791805597,0.2292392907624579
0.5617381098455547,0.2302350470596045
0.5626983915281816,0.231397572297574
0.563818720157913,0.2326799121143873
0.5649657232788284,0.2337161463097919
0.5660860519085599,0.2349547699964865
0.5672063805382912,0.2361464393212018
0.5681399877297341,0.2369268531996159
0.5692869908506495,0.2380893784375855
0.5703272960068286,0.2392179022410183
0.571420950145376,0.2403367113488693
0.5723012083544506,0.2414700925000931
0.5733415135106298,0.2426131883468988
0.5742751207020727,0.2435425608909023
0.5753154258582518,0.2447034670129416
0.576409079996799,0.2460036171049883
0.5775827576088987,0.2474834890653005
0.5786497372562618,0.2485019129854716
0.5796900424124409,0.2496595808756502
0.5808903945157247,0.2508739178233901
0.5819573741630878,0.2517304301505292
0.5828376323721625,0.2527958084326795
0.5838779375283416,0.2537008942377283
0.5848915681933368,0.255086857474082
0.5859051988583318,0.2560405167570403
0.586998852996879,0.2573196183419929
0.5879057856971378,0.2586472934048551
0.5888927418709489,0.2597806745560789
0.589959721518312,0.2610241555905644
0.5908666542185708,0.2621769661329521
0.5918802848835658,0.2633864457329009
0.592947264530929,0.2646169738399439
0.5939875696871082,0.2656499698034879
0.5950812238256555,0.2665793423474914
0.5962015524553869,0.2677807263677886
0.597215183120382,0.2689788721562252
0.5982821627677452,0.2705737013475902
0.599215769959188,0.2718382308891699
0.6004427965536557,0.2731885735750565
0.601509776201019,0.2742879532917436
0.6025500813571981,0.2753581889216849
0.6036170610045614,0.276381470189647
0.6046573661607405,0.2774662778629612
0.6057510202992878,0.2787032824337255
0.606791325455467,0.2799532399319324
0.6078849795940142,0.2812015783142089
0.6089786337325616,0.2822896242193837
0.610125636853477,0.283759781484114
0.6111659420096561,0.2850939330106975
0.612099549201099,0.2865721858550794
0.6132999013043826,0.2877816654550282
0.6142601829870096,0.2891757242710335
0.6152738136520046,0.2904969228701744
0.6163141188081838,0.2914505821531327
0.6173277494731788,0.2927523513611098
0.6183413801381739,0.2941091705107177
0.6195684067326416,0.2952587428212447
0.6203152924857959,0.2969426233887772
0.6212222251860545,0.2979982869753457
0.6222625303422338,0.2993162473426259
0.6233828589719651,0.3004237226389646
0.624316466163408,0.3014502421387874
0.625330096828403,0.3025674321307079
0.626317053002214,0.303788245542169
0.6273573581583931,0.3049491516642083
0.6283976633145723,0.3063075899297465
0.6294646429619355,0.3077113634413337
0.630291552188642,0.3089046518819794
0.6314118808183734,0.3099716492800601
0.6322387900450799,0.3113041816907132
0.6331723972365227,0.3129427270121968
0.6340526554455974,0.3141586830758669
0.6350396116194084,0.315329303893488
0.6358931953372989,0.316686123043096
0.6368534770199259,0.3178664585562991
0.6378137587025527,0.3190500323013628
0.6387740403851796,0.3202643692491026
0.6398143455413589,0.3214884208924243
0.6407746272239857,0.3228274297667987
0.6419483048360852,0.3240401475986082
0.6430953079570008,0.3254147770234497
0.6441089386219958,0.3268590284332948
0.6450692203046227,0.3279001199764904
0.6460561764784337,0.3291695068658611
0.6469897836698765,0.3303757482339493
0.6479233908613193,0.3315900851816891
0.6488569980527621,0.3331573894022386
0.649817279735389,0.3347020259997636
0.6508842593827523,0.3361495156414694
0.6519245645389314,0.3373897584440943
0.6530448931686628,0.3383741809297287
0.654111872816026,0.3396565207465419
0.655072154498653,0.341084580997084
0.6560591106724639,0.3424041604802945
0.6570193923550909,0.3437172634997838
0.6579529995465336,0.3449834121572939
0.6588065832644242,0.3461605094386363
0.6598468884206034,0.3474865653855681
0.6608071701032303,0.3485908024500462
0.6616607538211209,0.3497517085720855
0.6626477099949318,0.3507183207824863
0.6637413641334792,0.3520848546276762
0.6648616927632105,0.3531340417505234
0.6658486489370216,0.3545621020010653
0.6669156285843848,0.3557829154125264
0.6678759102670117,0.3570344920266636
0.6689428899143749,0.3580982511928837
0.669983195070554,0.3592802058220171
0.6707834298060764,0.3606289293919734
0.671930432926992,0.3616376386165625
0.6730240870655392,0.3628568329120933
0.6740377177305343,0.3641521256563491
0.6750513483955294,0.3653292229376915
0.6760383045693403,0.3664966055234521
0.6771586331990718,0.3679165701943425
0.6781722638640668,0.3692215776341802
0.6790525220731415,0.370309623539355
0.6800928272293206,0.3714948164003491
0.6811864813678679,0.3728937325641453
0.6819867161033903,0.3744545603209735
0.6829203232948331,0.3757611868767415
0.6837472325215397,0.3769010444916866
0.6847075142041665,0.378321009162577
0.6856411213956094,0.3796292548342754
0.6865747285870522,0.3807237772031715
0.6876417082344154,0.3823687989883764
0.6885753154258583,0.3833758890970352
0.6893222011790126,0.3846031789722176
0.6904158553175598,0.3858385644270515
0.6914028114913708,0.3868213677967556
0.6925498146122863,0.3886266820590621
0.6934834218037291,0.3899754056290184
0.694443703486356,0.3913338438945567
0.6955106831337192,0.3924898926688049
0.6963375923604257,0.3936588943704958
0.6974045720077889,0.3949606635784728
0.6982581557256795,0.3962219548881919
0.699378484355411,0.397518866748378
0.700392115020406,0.3988416844634492
0.7012456987382966,0.4002746020617822
0.7022059804209235,0.401888860644311
0.7031395876123663,0.4034577839807908
0.7040998692949932,0.4046802165081822
0.7050068019952519,0.4061131341065152
0.706047107151431,0.4073889974596071
0.7069540398516898,0.4087830562756124
0.7079676705166849,0.4103697898873257
0.7087412307610232,0.411728228152864
0.7097015124436501,0.4132194339246884
0.7107684920910133,0.4147527367107012
0.7117020992824562,0.4158747840504128
0.7124756595267945,0.4177740070366778
0.713275894262317,0.4189964395640692
0.7140494545066552,0.4201848706569239
0.7149297127157299,0.4214834016330403
0.7159700178719091,0.4226815474214769
0.7169836485369041,0.4237954991815369
0.7179439302195311,0.4247475393485649
0.7188508629197898,0.4260363556290994
0.7196244231641281,0.4272458352290482
0.720558030355571,0.4285476044370253
0.7213582650910934,0.4299805220353582
0.7222118488089839,0.4311058076069304
0.7232254794739791,0.4322505225696665
0.7243191336125263,0.4337158224866058
0.725199391821601,0.4346290038713062
0.7259462775747553,0.4362400242219743
0.7269065592573821,0.4375693184007668
0.727840166448825,0.4387642259573427
0.7287470991490838,0.4400400893104347
0.7297073808317106,0.4412155674758468
0.7304542665848649,0.4425140984519632
0.7316012697057803,0.4439097763838989
0.7324015044413028,0.4454204115468871
0.7333351116327456,0.4466104617556721
0.7342953933153725,0.447896039804346
0.7352823494891835,0.4493257191708183
0.7361626076982581,0.4507602558850816
0.7369895169249646,0.4519146855433996
0.7379764730987757,0.4530286373034595
0.7388033823254821,0.454560320973542
0.7396302915521886,0.4561648648604888
0.7406972711995519,0.4573921547356712
0.7416042038998106,0.4587554503490004
0.7425111366000694,0.4600086460790679
0.7433380458267759,0.4611549801577342
0.7441382805622982,0.4623094098160522
0.7450985622449252,0.4638896669640442
0.7460855184187362,0.465316108098656
0.747019125610179,0.4666162581907027
0.7478460348368855,0.4679115509349585
0.748672944063592,0.4689056881161748
0.7496065512550348,0.4706089980748711
0.7505401584464776,0.4719901039634339
0.7514470911467364,0.4732141556067556
0.7521939768998906,0.4743572514535613
0.7530475606177812,0.4753384357073351
0.7539011443356718,0.47657867850996
0.7546747045800102,0.4780990283685302
0.7555549627890848,0.4795497562420966
0.7565419189628958,0.4812303985777685
0.7575022006455226,0.4823913046998078
0.7584358078369655,0.4837821252839525
0.7592893915548561,0.4855356278364887
0.7600096028168263,0.4869620689711004
0.7608365120435328,0.4884241306561791
0.7616100722878711,0.489790664501369
0.7624369815145776,0.4911264351438827
0.7631838672677319,0.4924962072209332
0.7639574275120702,0.4938562646024018
0.7648376857211449,0.4955709083726103
0.7657979674037718,0.4969601098408247
0.7665982021392942,0.4983428348453178
0.7673984368748166,0.4997887053710932
0.7683320440662594,0.5012329567809385
0.7693190002400704,0.5026707317270623
0.7700925604844088,0.5039336421527117
0.7709728186934834,0.5053503685917415
0.7718797513937422,0.5072657827373098
0.772813358585185,0.5085691710612171
0.7736669423030755,0.5102611472084013
0.7745472005121502,0.511763686791738
0.7754007842300408,0.5132030808537922
0.7762543679479313,0.5145323750325848
0.7770012537010856,0.5159847220220815
0.7778281629277921,0.5173949719973899
0.7786817466456827,0.5186238809885027
0.7797487262930459,0.5199709854425286
0.7806289845021206,0.5215480043586601
0.781402544746459,0.5227461501470967
0.7819627090613247,0.523740287328313
0.7826562458321108,0.5245368923660303
0.7834564805676332,0.5257577057774914
0.7842033663207875,0.5266449813073066
0.7851369735122302,0.5274302525335116
0.7858038357918322,0.5285215366705471
0.7863106511243299,0.5295512944022305
0.7868708154391955,0.5307834416252039
0.7874843287364294,0.5320495902827138
0.7883912614366881,0.5331003965214913
0.7889781002427378,0.5345964596411068
0.7897516604870762,0.5356165026772082
0.7904451972578623,0.5366414030611005
0.7911387340286484,0.5377116386910419
0.791992317746539,0.5387219670315614
0.7925791565525887,0.5400383082829113
0.7933793912881112,0.5411700703182049
0.794312998479554,0.5424815542217638
0.794979860759156,0.5438254204439292
0.7954866760916536,0.5452065263324919
0.7963669343007282,0.5464840088015142
0.7970604710715143,0.5474975753738943
0.79762063538638,0.5486762917711671
0.7984208701219024,0.5500104432977506
0.7990343834191362,0.5509252437983813
0.7996478967163702,0.5521573910213545
0.8002080610312359,0.5534672558089831
0.8010082957667582,0.5544338680193841
0.8017018325375443,0.5555186756926983
0.8022619968524101,0.5569467359432403
0.8029555336231962,0.5578712511394528
0.8037024193763503,0.5591050174783565
0.8044493051295046,0.5603808808314484
0.8052762143562111,0.5613151107232429
0.8058630531622609,0.5626379284383141
0.8066899623889674,0.5636304465036001
0.8074901971244899,0.5647767805822664
0.8080503614393555,0.5660008322255882
0.8090106431219825,0.5673042205494956
0.8098375523486889,0.5683388356289699
0.8106377870842114,0.5694301197660053
0.8114380218197338,0.5705861685402537
0.8122115820640722,0.571853936313694
0.8131185147643308,0.5730504629862003
0.813838726026301,0.5742647999339401
0.8145856117794553,0.5755341868233107
0.8152524740590573,0.5769768191172256
0.8159460108298434,0.5783433529624155
0.816479500653525,0.5795042590844547
0.8172263864066793,0.5809371766827877
0.8180532956333858,0.5822891384846046
0.8186401344394356,0.5837382472422408
0.8193603457014057,0.5846303801198469
0.8200272079810078,0.5856067070258297
0.8208274427165302,0.5867854234231025
0.8216810264344208,0.5881632910798046
0.8225079356611272,0.5892950531150981
0.8231747979407292,0.5906243472938906
0.823761636746779,0.5919552605886134
0.824375150044013,0.5930886417398372
0.8249619888500627,0.5942463096300158
0.8256822001120329,0.5955820802725296
0.8263490623916349,0.5969826155522562
0.8269092267065006,0.5980366600228944
0.8276294379684708,0.5994404335344815
0.8282162767745205,0.6006563895981516
0.8288564645629385,0.6017994854449573
0.8297100482808291,0.602830862292571
0.8304836085251673,0.604016055153565
0.8309637493664809,0.6055056418094592
0.831657286137267,0.6068090301333666
0.8322174504521326,0.6080006994580819
0.8330176851876551,0.6093186598253622
0.8337912454319933,0.610482804179262
0.8345114566939635,0.6118363850970093
0.8351516444823815,0.6128612854809017
0.8358451812531676,0.6140383827622442
0.8364586945504014,0.6154713003605771
0.8370988823388194,0.6167487828295993
0.8377390701272374,0.6181428416456046
0.8383259089332871,0.6192114581596156
0.8390194457040732,0.6205650390773629
0.8396596334924912,0.6217890907206847
0.8402998212809091,0.6230082850162154
0.8411800794899837,0.6242841483693073
0.8418202672784016,0.6256943983446158
0.8426738509962922,0.626834255959561
0.8434740857318147,0.6280162105886944
0.844247645976153,0.629290454825856
0.844887833764571,0.630480505034641
0.8455813705353571,0.6316090288380738
0.8463015817973272,0.6327294570618551
0.8471018165328497,0.6339178881547097
0.8477686788124517,0.6349735517412782
0.848515564565606,0.6364890442520575
0.849209101336392,0.6378167193149197
0.849875963615994,0.638801141800554
0.8505695003867801,0.6404396871220376
0.851209688175198,0.6414516345784874
0.8518498759636159,0.6426173980483176
0.852516738243218,0.6439564069226921
0.8532636239963722,0.6452047453049686
0.853823788311238,0.6464417498757329
0.85449065059084,0.6476690397509152
0.8552108618528101,0.6490582412191296
0.85579770065886,0.6504312515280407
0.8565712609031982,0.6515759664907768
0.8574248446210888,0.6527546828880495
0.8582784283389794,0.6539123507782281
0.8589452906185815,0.6550036349152636
0.8595054549334471,0.6564284569339449
0.8600656192483128,0.6577221305622704
0.860785830510283,0.6590433291614113
0.8615060417722532,0.6602706190365937
0.8620128571047507,0.6615804838242223
0.8624663234548801,0.6627365325984705
0.8632932326815866,0.6639443930824891
0.8639067459788204,0.6651214903638315
0.8647069807143428,0.6662143936167974
0.865427191976313,0.6673963482459307
0.8661474032382832,0.6686301145848343
0.8668676145002534,0.6700792233424705
0.8674544533063032,0.6718586317498919
0.8680946410947211,0.6730875407410046
0.8690015737949799,0.6743893099489816
0.8696150870922137,0.6758432760544087
0.8703352983541839,0.6771790466969225
0.8710821841073382,0.678310808732216
0.8716156739310198,0.6797048675482213
0.872362559684174,0.6809823500172436
0.8731361199285124,0.6822776427614994
0.8736429352610099,0.6839501895175196
0.8743898210141642,0.6854025365070164
0.8750566832937662,0.6868694555398861
0.8757502200645523,0.6882586570081004
0.8766038037824428,0.6895183292018892
0.8772973405532289,0.6907650484682354
0.8780442263063832,0.6919259545902746
0.8786310651124329,0.693588786650713
0.8793779508655872,0.6948160765258953
0.8800981621275574,0.6962927102543469
0.8808183733895276,0.6976721970269794
0.8815652591426818,0.6989496794960016
0.8820187254928112,0.7002190663853722
0.8824455173517565,0.7018284676201101
0.8830323561578063,0.7033083395804223
0.8837792419109606,0.7046457293388664
0.8844994531729308,0.7059345456194009
0.8853263623996372,0.7072282192477264
0.8861265971351596,0.7082207373130124
0.8867934594147616,0.7097119430848369
0.8873002747472591,0.7112403885230586
0.8878337645709408,0.7129631278729188
0.8883939288858065,0.714421951326137
0.889194163621329,0.7156945764473682
0.8900477473392195,0.7174885568981625
0.8907146096188215,0.7189846200177779
0.8913547974072394,0.7205891639047247
0.8920750086692096,0.7221224666907375
0.8927685454399957,0.7232979448561496
0.8934620822107818,0.7249478239891455
0.8941556189815679,0.7263629313122449
0.8948224812611699,0.7278039444902294
0.8953026221024833,0.729411726609037
0.8961295313291899,0.7308381677436486
0.8968764170823441,0.7324313778190832
0.8974632558883939,0.7338982968519528
0.89815679265918,0.7357343743169354
0.8988503294299661,0.7373858725658616
0.8997039131478567,0.7387556446429121
0.9003441009362746,0.7402258019076424
0.9009309397423244,0.7414838549855008
0.9016244765131104,0.7428050535846417
0.9023446877750808,0.7442978784723965
0.9030648990370508,0.7459396620257407
0.9038117847902052,0.747333720841746
0.9044519725786232,0.7486856826435629
0.9052522073141456,0.749982594503749
0.9059724185761155,0.7512131226107921
0.9066392808557177,0.7527010901507559
0.9073594921176878,0.7540514328366426
0.9079730054149218,0.7552463403932185
0.908666542185708,0.7564865831958434
0.9094667769212302,0.7576766334046284
0.9101336392008322,0.7592536523207598
0.9108005014804342,0.7608096227297971
0.9116007362159568,0.7622020624298721
0.9124276454426632,0.763751556375188
0.9130945077222652,0.7652168562921273
0.9137613700018672,0.7661786111547373
0.9145616047373896,0.7673994245661984
0.9152818159993598,0.7688129127733675
0.9160820507348822,0.7700628702715743
0.9168289364880364,0.771879518345393
0.9175224732588226,0.7738451250848012
0.9181359865560564,0.7750319370617256
0.9187228253621064,0.7764988560945952
0.9195230600976286,0.7781665455028246
0.9204033183067032,0.7795832719418543
0.9210435060951212,0.7808688499905282
0.9218704153218278,0.7823454837189797
0.9226706500573502,0.7836569676225388
0.9234175358105045,0.7852874173643707
0.9240843980901065,0.786726811426425
0.9247245858785244,0.7882763053717409
0.9254714716316786,0.7900557137791623
0.9263250553495692,0.7915679680580809
0.9270719411027236,0.7930122194679261
0.9278455013470618,0.7944888531963777
0.9284856891354796,0.7959930118956448
0.929259249379818,0.7976105087100341
0.9297927392034996,0.7990418071924368
0.9304596014831016,0.8007337833396209
0.93123316172744,0.8020436481272496
0.9319266984982262,0.8037259095788517
0.9325935607778282,0.8054858885951093
0.9333937955133506,0.8066807961516853
0.9342473792312412,0.8080732358517603
0.9349142415108432,0.8095919665944001
0.9355544292992612,0.81116088993088
0.9363813385259676,0.8129338218745801
0.9369148283496492,0.8145383657615269
0.9376350396116194,0.8160975744024248
0.9383285763824056,0.8180388944028781
0.9390221131531916,0.8199818335192618
0.9397156499239776,0.8213435100166607
0.9403825122035796,0.8228395731362761
0.9408626530448932,0.8246513638623039
0.9416628877804156,0.8263514355891396
0.9423297500600176,0.8281826557063312
0.9429966123396196,0.8299669214615436
0.9436368001280376,0.8319244326213001
0.94443703486356,0.833640695507439
0.9451839206167142,0.8355382993777738
0.9459041318786844,0.8369129288026151
0.946757715596575,0.8386372872684057
0.9475846248232817,0.8402823090536106
0.948438208541172,0.8419046632157909
0.949051721838406,0.8433100558433084
0.9499319800474806,0.8449372673532798
0.950732214783003,0.8463798996471946
0.9513190535890528,0.848321219647648
0.9520125903598388,0.850427689472994
0.9525994291658888,0.8521212847361084
0.9533196404278588,0.8537711638691042
0.9540665261810132,0.856058974678646
0.9548934354077196,0.8578675271728131
0.9556403211608738,0.8594736901756903
0.9563071834404758,0.8610782340626372
0.9571874416495504,0.8627944969487761
0.9579343274027048,0.8647487698766719
0.9587078876470432,0.8667095192682891
0.9594547734001974,0.8686006466749026
0.9602016591533516,0.8705711107621017
0.960948544906506,0.8723569956332443
0.961642081677292,0.8740230659255434
0.9622555949745258,0.8761991577358931
0.9631358531836004,0.8782683878948416
0.963962762410307,0.880523816385777
0.964602950198725,0.882321035068432
0.9654298594254316,0.8843692167202863
0.9660700472138494,0.8863753013579525
0.9670836778788444,0.8885546314001629
0.967590493211342,0.8909217788902903
0.968257355490944,0.8932014941201805
0.9690309157352824,0.8950602392081876
0.9698044759796208,0.8976929217108874
0.9707647576622476,0.9000794985921787
0.9714582944330336,0.9028077089347676
0.9724719250980288,0.9053432444816482
0.9731921363599988,0.9075824818132804
0.9741257435514418,0.9100904923893456
0.9749793272693325,0.912852704166471
0.9758062364960388,0.9156213924073178
0.97679319266985,0.9181585470701288
0.9774333804582678,0.9201921566786104
0.9782869641761583,0.9227697892396792
0.9791405478940488,0.9249037840358408
0.9801008295766758,0.9274457960464428
0.9809810877857504,0.9308006042540652
0.9817546480300888,0.934025883187262
0.9826349062391636,0.9365630378500732
0.983488489957054,0.9393042011201044
0.9844487716396808,0.9424776683435312
0.9853023553575716,0.9452965491782176
0.9861559390754622,0.9476054084948536
0.9870628717757208,0.9500340823903332
0.9880231534583478,0.9535540404228484
0.9890101096321589,0.9571921939182768
0.9899703913147856,0.960647387313579
0.9908773240150444,0.9633448344534916
0.9918909546800396,0.9666154486327376
0.9926111659420096,0.9698812054641924
0.9934647496599004,0.9739128041306886
0.994398356851343,0.97706036549923
0.99535863853397,0.9809073849496698
0.996345594707781,0.9855024359599172
0.9974925978286964,0.9908519949936936
0.9985062284936916,0.9952041786143928
0.999653231614607,0.9992228243534466
