,fpr,tpr
0,0.0,0.0
1,0.0,0.00018301610541727673
2,0.0,0.02068081991215227
3,0.0,0.020863836017569547
4,0.0,0.08546852122986823
5,5.037732617303604e-06,0.08546852122986823
6,5.037732617303604e-06,0.08556002928257686
7,5.037732617303604e-06,0.08574304538799414
8,5.037732617303604e-06,0.09654099560761346
9,1.0075465234607208e-05,0.09654099560761346
10,1.0075465234607208e-05,0.09965226939970717
11,1.5113197851910811e-05,0.09965226939970717
12,1.5113197851910811e-05,0.1483345534407028
13,2.0150930469214415e-05,0.1483345534407028
14,2.0150930469214415e-05,0.14952415812591507
15,2.518866308651802e-05,0.14952415812591507
16,2.518866308651802e-05,0.15400805270863835
17,3.0226395703821623e-05,0.15400805270863835
18,3.0226395703821623e-05,0.15693631039531478
19,3.0226395703821623e-05,0.15711932650073207
20,3.0226395703821623e-05,0.159407027818448
21,3.526412832112523e-05,0.159407027818448
22,3.526412832112523e-05,0.1598645680819912
23,4.030186093842883e-05,0.15995607613469986
24,4.030186093842883e-05,0.2132137628111274
25,4.533959355573244e-05,0.2132137628111274
26,4.533959355573244e-05,0.215592972181552
27,4.533959355573244e-05,0.21577598828696926
28,4.533959355573244e-05,0.21833821376281112
29,4.533959355573244e-05,0.21852122986822842
30,4.533959355573244e-05,0.22748901903367497
31,4.533959355573244e-05,0.22767203513909223
32,4.533959355573244e-05,0.2304172767203514
33,4.533959355573244e-05,0.23060029282576866
34,4.533959355573244e-05,0.25274524158125916
35,5.037732617303604e-05,0.25274524158125916
36,5.037732617303604e-05,0.25741215226939973
37,5.5415058790339646e-05,0.25741215226939973
38,5.5415058790339646e-05,0.2578696925329429
39,6.0452791407643246e-05,0.2578696925329429
40,6.0452791407643246e-05,0.2635431918008785
41,6.549052402494685e-05,0.2635431918008785
42,6.549052402494685e-05,0.27187042459736455
43,7.052825664225046e-05,0.27187042459736455
44,7.052825664225046e-05,0.28010614934114203
45,7.052825664225046e-05,0.2802891654465593
46,7.052825664225046e-05,0.2857796486090776
47,7.052825664225046e-05,0.2859626647144949
48,7.052825664225046e-05,0.2905380673499268
49,7.556598925955406e-05,0.2905380673499268
50,7.556598925955406e-05,0.3134150805270864
51,8.060372187685766e-05,0.3134150805270864
52,8.060372187685766e-05,0.3150622254758419
53,8.564145449416126e-05,0.3150622254758419
54,8.564145449416126e-05,0.32375549048316254
55,9.067918711146488e-05,0.32375549048316254
56,9.067918711146488e-05,0.33382137628111275
57,9.571691972876848e-05,0.33382137628111275
58,9.571691972876848e-05,0.34388726207906295
59,0.00010075465234607208,0.34388726207906295
60,0.00010075465234607208,0.34965226939970717
61,0.00010579238496337569,0.34965226939970717
62,0.00010579238496337569,0.35560029282576866
63,0.00011083011758067929,0.35560029282576866
64,0.00011083011758067929,0.3583455344070278
65,0.00011586785019798289,0.3583455344070278
66,0.00011586785019798289,0.36054172767203513
67,0.00012090558281528649,0.36054172767203513
68,0.00012090558281528649,0.3677708638360176
69,0.0001259433154325901,0.3677708638360176
70,0.0001259433154325901,0.3709736456808199
71,0.0001309810480498937,0.3709736456808199
72,0.0001309810480498937,0.37637262079062955
73,0.0001309810480498937,0.3765556368960469
74,0.0001309810480498937,0.3831442166910688
75,0.00013601878066719732,0.3831442166910688
76,0.00013601878066719732,0.3841508052708638
77,0.00014105651328450092,0.3841508052708638
78,0.00014105651328450092,0.3845168374816984
79,0.00014609424590180452,0.3845168374816984
80,0.00014609424590180452,0.3850658857979502
81,0.00015113197851910812,0.3850658857979502
82,0.00015113197851910812,0.3892752562225476
83,0.00015616971113641172,0.3892752562225476
84,0.00015616971113641172,0.3945827232796486
85,0.00015616971113641172,0.3947657393850659
86,0.00015616971113641172,0.3957723279648609
87,0.00016120744375371532,0.3957723279648609
88,0.00016120744375371532,0.3958638360175695
89,0.00016624517637101892,0.3958638360175695
90,0.00016624517637101892,0.3969619326500732
91,0.00017128290898832252,0.3969619326500732
92,0.00017128290898832252,0.4014458272327965
93,0.00017632064160562615,0.4014458272327965
94,0.00017632064160562615,0.40547218155197656
95,0.00018135837422292975,0.40547218155197656
96,0.00018135837422292975,0.41087115666178625
97,0.00018639610684023335,0.41087115666178625
98,0.00018639610684023335,0.4125183016105417
99,0.00019143383945753695,0.4125183016105417
100,0.00019143383945753695,0.4131588579795022
101,0.00019647157207484055,0.4131588579795022
102,0.00019647157207484055,0.4141654465592972
103,0.00020150930469214415,0.4141654465592972
104,0.00020150930469214415,0.4153550512445095
105,0.00020654703730944775,0.4153550512445095
106,0.00020654703730944775,0.41645314787701315
107,0.00021158476992675138,0.41645314787701315
108,0.00021158476992675138,0.4214860907759883
109,0.00021662250254405498,0.4214860907759883
110,0.00021662250254405498,0.4220351390922401
111,0.00022166023516135858,0.4220351390922401
112,0.00022166023516135858,0.4274341142020498
113,0.00022669796777866218,0.4274341142020498
114,0.00022669796777866218,0.4284407027818448
115,0.00023173570039596578,0.4284407027818448
116,0.00023173570039596578,0.4314604685212299
117,0.00023677343301326938,0.4314604685212299
118,0.00023677343301326938,0.43475475841874084
119,0.00024181116563057298,0.43475475841874084
120,0.00024181116563057298,0.4349377745241581
121,0.0002468488982478766,0.4349377745241581
122,0.0002468488982478766,0.4389641288433382
123,0.0002518866308651802,0.4389641288433382
124,0.0002518866308651802,0.4429904831625183
125,0.0002569243634824838,0.4429904831625183
126,0.0002569243634824838,0.444088579795022
127,0.0002619620960997874,0.444088579795022
128,0.0002619620960997874,0.44573572474377743
129,0.000266999828717091,0.44573572474377743
130,0.000266999828717091,0.4460102489019034
131,0.00027203756133439464,0.4460102489019034
132,0.00027203756133439464,0.4466508052708638
133,0.0002770752939516982,0.4466508052708638
134,0.0002770752939516982,0.44719985358711567
135,0.00028211302656900184,0.44719985358711567
136,0.00028211302656900184,0.4482979502196193
137,0.0002871507591863054,0.4482979502196193
138,0.0002871507591863054,0.44930453879941434
139,0.00029218849180360904,0.44930453879941434
140,0.00029218849180360904,0.45021961932650073
141,0.0002972262244209126,0.45021961932650073
142,0.0002972262244209126,0.45031112737920936
143,0.00030226395703821624,0.45031112737920936
144,0.00030226395703821624,0.45095168374816985
145,0.0003073016896555198,0.45095168374816985
146,0.0003073016896555198,0.4556185944363104
147,0.00031233942227282344,0.4556185944363104
148,0.00031233942227282344,0.4560761346998536
149,0.00031737715489012707,0.4560761346998536
150,0.00031737715489012707,0.4564421669106881
151,0.00032241488750743065,0.4564421669106881
152,0.00032241488750743065,0.4609260614934114
153,0.00032745262012473427,0.4609260614934114
154,0.00032745262012473427,0.46129209370424595
155,0.00033249035274203785,0.46129209370424595
156,0.00033249035274203785,0.4617496339677892
157,0.0003375280853593415,0.4617496339677892
158,0.0003375280853593415,0.4644033674963397
159,0.00034256581797664505,0.4644033674963397
160,0.00034256581797664505,0.46458638360175697
161,0.0003526412832112523,0.46458638360175697
162,0.0003526412832112523,0.46577598828696926
163,0.0003576790158285559,0.46577598828696926
164,0.0003576790158285559,0.46815519765739383
165,0.0003627167484458595,0.46815519765739383
166,0.0003627167484458595,0.4687042459736457
167,0.0003677544810631631,0.4687042459736457
168,0.0003677544810631631,0.46888726207906295
169,0.0003778299462977703,0.46888726207906295
170,0.0003778299462977703,0.4697108345534407
171,0.0003828676789150739,0.4697108345534407
172,0.0003828676789150739,0.4707174231332357
173,0.00038790541153237753,0.4707174231332357
174,0.00038790541153237753,0.4732796486090776
175,0.0003929431441496811,0.4732796486090776
176,0.0003929431441496811,0.4734626647144949
177,0.00039798087676698473,0.4734626647144949
178,0.00039798087676698473,0.47364568081991215
179,0.0004030186093842883,0.47364568081991215
180,0.0004030186093842883,0.4738286969253294
181,0.00040805634200159193,0.4738286969253294
182,0.00040805634200159193,0.47529282576866766
183,0.0004130940746188955,0.47529282576866766
184,0.0004130940746188955,0.4759333821376281
185,0.00041813180723619913,0.4759333821376281
186,0.00041813180723619913,0.4761163982430454
187,0.00042316953985350276,0.4761163982430454
188,0.00042316953985350276,0.47675695461200585
189,0.00042820727247080634,0.47675695461200585
190,0.00042820727247080634,0.4796852122986823
191,0.00043324500508810996,0.4796852122986823
192,0.00043324500508810996,0.47986822840409954
193,0.00043828273770541354,0.47986822840409954
194,0.00043828273770541354,0.4802342606149341
195,0.00044332047032271716,0.4802342606149341
196,0.00044332047032271716,0.4816983894582723
197,0.00044835820294002074,0.4816983894582723
198,0.00044835820294002074,0.48243045387994143
199,0.00045339593555732436,0.48243045387994143
200,0.00045339593555732436,0.4839860907759883
201,0.00045843366817462794,0.4839860907759883
202,0.00045843366817462794,0.48599926793557835
203,0.00046347140079193157,0.48599926793557835
204,0.00046347140079193157,0.48654831625183015
205,0.0004685091334092352,0.48654831625183015
206,0.0004685091334092352,0.4880124450951684
207,0.00047354686602653877,0.4880124450951684
208,0.00047354686602653877,0.48975109809663253
209,0.0004785845986438424,0.48975109809663253
210,0.0004785845986438424,0.48984260614934116
211,0.00048362233126114597,0.48984260614934116
212,0.00048362233126114597,0.49176427525622257
213,0.0004886600638784495,0.49176427525622257
214,0.0004886600638784495,0.49295387994143486
215,0.0004936977964957532,0.49295387994143486
216,0.0004936977964957532,0.4958821376281113
217,0.0004987355291130568,0.4958821376281113
218,0.0004987355291130568,0.49606515373352855
219,0.000508810994347664,0.49606515373352855
220,0.000508810994347664,0.4965226939970717
221,0.0005138487269649676,0.4965226939970717
222,0.0005138487269649676,0.4987188872620791
223,0.0005188864595822712,0.4987188872620791
224,0.0005188864595822712,0.49981698389458273
225,0.0005239241921995748,0.49981698389458273
226,0.0005239241921995748,0.5009150805270863
227,0.0005289619248168785,0.5009150805270863
228,0.0005289619248168785,0.5016471449487555
229,0.000533999657434182,0.5016471449487555
230,0.000533999657434182,0.5017386530014641
231,0.0005390373900514856,0.5017386530014641
232,0.0005390373900514856,0.5024707174231332
233,0.0005440751226687893,0.5024707174231332
234,0.0005440751226687893,0.5037518301610542
235,0.0005491128552860929,0.5037518301610542
236,0.0005491128552860929,0.5045754026354319
237,0.0005541505879033964,0.5045754026354319
238,0.0005541505879033964,0.5064970717423133
239,0.0005591883205207,0.5064970717423133
240,0.0005591883205207,0.5065885797950219
241,0.0005642260531380037,0.5065885797950219
242,0.0005642260531380037,0.507595168374817
243,0.0005692637857553073,0.507595168374817
244,0.0005692637857553073,0.5083272327964861
245,0.0005743015183726108,0.5083272327964861
246,0.0005743015183726108,0.5084187408491947
247,0.0005793392509899145,0.5084187408491947
248,0.0005793392509899145,0.5093338213762811
249,0.0005843769836072181,0.5093338213762811
250,0.0005843769836072181,0.5096998535871157
251,0.0005894147162245217,0.5096998535871157
252,0.0005894147162245217,0.5097913616398243
253,0.0005944524488418252,0.5097913616398243
254,0.0005944524488418252,0.510614934114202
255,0.0005994901814591289,0.510614934114202
256,0.0005994901814591289,0.5116215226939971
257,0.0006045279140764325,0.5116215226939971
258,0.0006045279140764325,0.5146412884333821
259,0.0006095656466937361,0.5146412884333821
260,0.0006095656466937361,0.5147327964860908
261,0.0006146033793110396,0.5147327964860908
262,0.0006146033793110396,0.5150988286969254
263,0.0006196411119283433,0.5150988286969254
264,0.0006196411119283433,0.5181185944363104
265,0.0006246788445456469,0.5181185944363104
266,0.0006246788445456469,0.5184846266471449
267,0.0006297165771629505,0.5184846266471449
268,0.0006297165771629505,0.5203147877013177
269,0.0006347543097802541,0.5203147877013177
270,0.0006347543097802541,0.5218704245973645
271,0.0006397920423975577,0.5218704245973645
272,0.0006397920423975577,0.5231515373352855
273,0.0006498675076321649,0.5231515373352855
274,0.0006498675076321649,0.52351756954612
275,0.0006549052402494685,0.52351756954612
276,0.0006549052402494685,0.5253477306002928
277,0.0006599429728667721,0.5253477306002928
278,0.0006599429728667721,0.5261713030746705
279,0.0006649807054840757,0.5261713030746705
280,0.0006649807054840757,0.5269948755490483
281,0.0006700184381013794,0.5269948755490483
282,0.0006700184381013794,0.5279099560761347
283,0.0006800939033359865,0.5279099560761347
284,0.0006800939033359865,0.5286420204978038
285,0.0006851316359532901,0.5286420204978038
286,0.0006851316359532901,0.5288250366032211
287,0.0006901693685705938,0.5288250366032211
288,0.0006901693685705938,0.5291910688140556
289,0.0006952071011878973,0.5291910688140556
290,0.0006952071011878973,0.5301976573938506
291,0.0007002448338052009,0.5301976573938506
292,0.0007002448338052009,0.5306551976573939
293,0.0007052825664225046,0.5306551976573939
294,0.0007052825664225046,0.5310212298682284
295,0.0007103202990398082,0.5310212298682284
296,0.0007103202990398082,0.531112737920937
297,0.0007153580316571118,0.531112737920937
298,0.0007153580316571118,0.5312042459736457
299,0.0007203957642744153,0.5312042459736457
300,0.0007203957642744153,0.5318448023426061
301,0.000725433496891719,0.5318448023426061
302,0.000725433496891719,0.5342240117130308
303,0.0007304712295090226,0.5342240117130308
304,0.0007304712295090226,0.535413616398243
305,0.0007355089621263262,0.535413616398243
306,0.0007355089621263262,0.5357796486090776
307,0.0007405466947436298,0.5357796486090776
308,0.0007405466947436298,0.5359626647144948
309,0.0007455844273609334,0.5359626647144948
310,0.0007455844273609334,0.5369692532942899
311,0.000750622159978237,0.5369692532942899
312,0.000750622159978237,0.5379758418740849
313,0.0007556598925955406,0.5379758418740849
314,0.0007556598925955406,0.5392569546120058
315,0.0007606976252128442,0.5392569546120058
316,0.0007606976252128442,0.5395314787701317
317,0.0007657353578301478,0.5395314787701317
318,0.0007657353578301478,0.5405380673499268
319,0.0007707730904474514,0.5405380673499268
320,0.0007707730904474514,0.5406295754026355
321,0.0007758108230647551,0.5406295754026355
322,0.0007758108230647551,0.5410871156661786
323,0.0007758108230647551,0.5412701317715959
324,0.0007808485556820586,0.5412701317715959
325,0.0007808485556820586,0.5416361639824304
326,0.0007858862882993622,0.5416361639824304
327,0.0007858862882993622,0.5421852122986823
328,0.0007909240209166658,0.5421852122986823
329,0.0007909240209166658,0.5425512445095169
330,0.0007959617535339695,0.5425512445095169
331,0.0007959617535339695,0.5439238653001464
332,0.000800999486151273,0.5439238653001464
333,0.000800999486151273,0.5441983894582724
334,0.0008060372187685766,0.5441983894582724
335,0.0008060372187685766,0.5444729136163983
336,0.0008110749513858803,0.5444729136163983
337,0.0008110749513858803,0.5445644216691069
338,0.0008161126840031839,0.5445644216691069
339,0.0008161126840031839,0.5447474377745242
340,0.0008211504166204874,0.5447474377745242
341,0.0008211504166204874,0.5457540263543191
342,0.000826188149237791,0.5457540263543191
343,0.000826188149237791,0.5460285505124451
344,0.0008312258818550947,0.5460285505124451
345,0.0008312258818550947,0.5461200585651538
346,0.0008362636144723983,0.5461200585651538
347,0.0008362636144723983,0.5463945827232797
348,0.0008413013470897018,0.5463945827232797
349,0.0008413013470897018,0.547309663250366
350,0.0008463390797070055,0.547309663250366
351,0.0008463390797070055,0.5477672035139092
352,0.0008513768123243091,0.5477672035139092
353,0.0008513768123243091,0.5490483162518301
354,0.0008564145449416127,0.5490483162518301
355,0.0008564145449416127,0.5494143484626647
356,0.0008614522775589162,0.5494143484626647
357,0.0008614522775589162,0.5495058565153733
358,0.0008664900101762199,0.5495058565153733
359,0.0008664900101762199,0.5517935578330894
360,0.0008715277427935235,0.5517935578330894
361,0.0008715277427935235,0.5519765739385066
362,0.0008866409406454343,0.5519765739385066
363,0.0008866409406454343,0.5520680819912153
364,0.0008916786732627379,0.5520680819912153
365,0.0008916786732627379,0.5522510980966325
366,0.0008967164058800415,0.5522510980966325
367,0.0008967164058800415,0.5526171303074671
368,0.0009017541384973452,0.5526171303074671
369,0.0009017541384973452,0.5539897510980967
370,0.0009067918711146487,0.5539897510980967
371,0.0009067918711146487,0.5550878477306003
372,0.0009118296037319523,0.5550878477306003
373,0.0009118296037319523,0.5551793557833089
374,0.0009168673363492559,0.5551793557833089
375,0.0009168673363492559,0.5556368960468521
376,0.0009219050689665596,0.5556368960468521
377,0.0009219050689665596,0.5565519765739385
378,0.0009269428015838631,0.5565519765739385
379,0.0009269428015838631,0.5571925329428989
380,0.0009319805342011667,0.5571925329428989
381,0.0009319805342011667,0.5577415812591509
382,0.0009370182668184704,0.5577415812591509
383,0.0009370182668184704,0.558199121522694
384,0.000942055999435774,0.558199121522694
385,0.000942055999435774,0.559205710102489
386,0.0009521314646703811,0.559205710102489
387,0.0009521314646703811,0.5592972181551976
388,0.0009571691972876848,0.5592972181551976
389,0.0009571691972876848,0.5601207906295754
390,0.0009622069299049884,0.5601207906295754
391,0.0009622069299049884,0.5602122986822841
392,0.0009672446625222919,0.5602122986822841
393,0.0009672446625222919,0.5615849194729137
394,0.0009722823951395956,0.5615849194729137
395,0.0009722823951395956,0.5618594436310396
396,0.000977320127756899,0.5618594436310396
397,0.000977320127756899,0.5627745241581259
398,0.0009823578603742028,0.5627745241581259
399,0.0009823578603742028,0.5630490483162518
400,0.0009873955929915064,0.5630490483162518
401,0.0009873955929915064,0.5635065885797951
402,0.00099243332560881,0.5635065885797951
403,0.00099243332560881,0.5635980966325037
404,0.0009974710582261136,0.5635980966325037
405,0.0009974710582261136,0.565794289897511
406,0.0010025087908434173,0.565794289897511
407,0.0010025087908434173,0.5658857979502196
408,0.0010125842560780244,0.5658857979502196
409,0.0010125842560780244,0.5660688140556369
410,0.001017621988695328,0.5660688140556369
411,0.001017621988695328,0.5664348462664714
412,0.0010276974539299352,0.5664348462664714
413,0.0010276974539299352,0.5676244509516838
414,0.0010327351865472387,0.5676244509516838
415,0.0010327351865472387,0.5681734992679356
416,0.0010377729191645424,0.5681734992679356
417,0.0010377729191645424,0.5685395314787701
418,0.001042810651781846,0.5685395314787701
419,0.001042810651781846,0.568814055636896
420,0.0010528861170164532,0.568814055636896
421,0.0010528861170164532,0.5696376281112738
422,0.001057923849633757,0.5696376281112738
423,0.001057923849633757,0.5697291361639825
424,0.001067999314868364,0.5697291361639825
425,0.001067999314868364,0.570095168374817
426,0.0010780747801029712,0.570095168374817
427,0.0010780747801029712,0.5704612005856515
428,0.0010831125127202749,0.5704612005856515
429,0.0010831125127202749,0.5714677891654466
430,0.0010881502453375786,0.5714677891654466
431,0.0010881502453375786,0.5718338213762811
432,0.0010982257105721857,0.5718338213762811
433,0.0010982257105721857,0.5725658857979502
434,0.0011032634431894892,0.5725658857979502
435,0.0011032634431894892,0.573389458272328
436,0.0011083011758067929,0.573389458272328
437,0.0011083011758067929,0.5745790629575402
438,0.0011133389084240965,0.5745790629575402
439,0.0011133389084240965,0.5749450951683748
440,0.0011234143736587037,0.5749450951683748
441,0.0011234143736587037,0.5758601756954612
442,0.0011284521062760074,0.5758601756954612
443,0.0011284521062760074,0.5760431918008785
444,0.0011334898388933108,0.5760431918008785
445,0.0011334898388933108,0.5765922401171303
446,0.0011385275715106145,0.5765922401171303
447,0.0011385275715106145,0.5789714494875549
448,0.0011536407693625253,0.5789714494875549
449,0.0011536407693625253,0.5792459736456809
450,0.001158678501979829,0.5792459736456809
451,0.001158678501979829,0.5813506588579795
452,0.0011687539672144362,0.5813506588579795
453,0.0011687539672144362,0.5821742313323572
454,0.0011737916998317396,0.5821742313323572
455,0.0011737916998317396,0.5825402635431918
456,0.0011788294324490433,0.5825402635431918
457,0.0011788294324490433,0.5826317715959004
458,0.001183867165066347,0.5826317715959004
459,0.001183867165066347,0.5830893118594437
460,0.0011889048976836505,0.5830893118594437
461,0.0011889048976836505,0.5834553440702782
462,0.0011989803629182578,0.5834553440702782
463,0.0011989803629182578,0.5836383601756955
464,0.0012040180955355613,0.5836383601756955
465,0.0012040180955355613,0.5841874084919473
466,0.001209055828152865,0.5841874084919473
467,0.001209055828152865,0.5858345534407028
468,0.0012140935607701687,0.5858345534407028
469,0.0012140935607701687,0.5863836017569546
470,0.0012241690260047758,0.5863836017569546
471,0.0012241690260047758,0.5865666178623719
472,0.0012292067586220793,0.5865666178623719
473,0.0012292067586220793,0.5872071742313324
474,0.001234244491239383,0.5872071742313324
475,0.001234244491239383,0.5873901903367497
476,0.0012392822238566866,0.5873901903367497
477,0.0012392822238566866,0.5874816983894583
478,0.00124431995647399,0.5874816983894583
479,0.00124431995647399,0.5882137628111274
480,0.0012493576890912938,0.5882137628111274
481,0.0012493576890912938,0.5887628111273792
482,0.0012543954217085975,0.5887628111273792
483,0.0012543954217085975,0.5890373352855052
484,0.001259433154325901,0.5890373352855052
485,0.001259433154325901,0.5893118594436311
486,0.0012644708869432046,0.5893118594436311
487,0.0012644708869432046,0.5894948755490483
488,0.0012695086195605083,0.5894948755490483
489,0.0012695086195605083,0.589586383601757
490,0.0012745463521778118,0.589586383601757
491,0.0012745463521778118,0.5897693997071742
492,0.0012795840847951154,0.5897693997071742
493,0.0012795840847951154,0.590318448023426
494,0.0012846218174124191,0.590318448023426
495,0.0012846218174124191,0.5905929721815519
496,0.0012896595500297226,0.5905929721815519
497,0.0012896595500297226,0.5918740849194729
498,0.0012946972826470263,0.5918740849194729
499,0.0012946972826470263,0.5920571010248902
500,0.0013047727478816334,0.5920571010248902
501,0.0013047727478816334,0.5926976573938506
502,0.001309810480498937,0.5926976573938506
503,0.001309810480498937,0.592880673499268
504,0.0013148482131162406,0.592880673499268
505,0.0013148482131162406,0.5931551976573939
506,0.0013198859457335442,0.5931551976573939
507,0.0013198859457335442,0.5937957540263543
508,0.001324923678350848,0.5937957540263543
509,0.001324923678350848,0.5942532942898975
510,0.0013299614109681514,0.5942532942898975
511,0.0013299614109681514,0.5944363103953147
512,0.001334999143585455,0.5944363103953147
513,0.001334999143585455,0.5947108345534406
514,0.0013400368762027587,0.5947108345534406
515,0.0013400368762027587,0.5954428989751098
516,0.0013450746088200622,0.5954428989751098
517,0.0013450746088200622,0.5959919472913616
518,0.001350112341437366,0.5959919472913616
519,0.001350112341437366,0.5962664714494875
520,0.001360187806671973,0.5962664714494875
521,0.001360187806671973,0.5964494875549048
522,0.0013652255392892767,0.5964494875549048
523,0.0013652255392892767,0.5967240117130308
524,0.0013702632719065802,0.5967240117130308
525,0.0013702632719065802,0.5976390922401171
526,0.0013753010045238839,0.5976390922401171
527,0.0013753010045238839,0.5981881405563689
528,0.0013803387371411876,0.5981881405563689
529,0.0013803387371411876,0.5985541727672035
530,0.001385376469758491,0.5985541727672035
531,0.001385376469758491,0.6000183016105417
532,0.0013904142023757947,0.6000183016105417
533,0.0013904142023757947,0.6001098096632503
534,0.0013954519349930984,0.6001098096632503
535,0.0013954519349930984,0.600201317715959
536,0.0014004896676104018,0.600201317715959
537,0.0014004896676104018,0.6003843338213762
538,0.0014206405980796164,0.6003843338213762
539,0.0014206405980796164,0.6011163982430454
540,0.00142567833069692,0.6011163982430454
541,0.00142567833069692,0.601207906295754
542,0.0014307160633142235,0.601207906295754
543,0.0014307160633142235,0.6012994143484627
544,0.0014357537959315272,0.6012994143484627
545,0.0014357537959315272,0.6013909224011713
546,0.0014407915285488306,0.6013909224011713
547,0.0014407915285488306,0.60148243045388
548,0.001450866993783438,0.60148243045388
549,0.001450866993783438,0.6016654465592972
550,0.0014559047264007415,0.6016654465592972
551,0.0014559047264007415,0.6020314787701317
552,0.0014609424590180452,0.6020314787701317
553,0.0014609424590180452,0.6030380673499268
554,0.0014710179242526523,0.6030380673499268
555,0.0014710179242526523,0.6034040995607614
556,0.001476055656869956,0.6034040995607614
557,0.001476055656869956,0.6035871156661786
558,0.0014810933894872597,0.6035871156661786
559,0.0014810933894872597,0.6036786237188873
560,0.0014861311221045631,0.6036786237188873
561,0.0014861311221045631,0.6037701317715959
562,0.0014911688547218668,0.6037701317715959
563,0.0014911688547218668,0.6039531478770132
564,0.001501244319956474,0.6039531478770132
565,0.001501244319956474,0.6045021961932651
566,0.001511319785191081,0.6045021961932651
567,0.001511319785191081,0.6051427525622255
568,0.0015163575178083848,0.6051427525622255
569,0.0015163575178083848,0.6054172767203514
570,0.001526432983042992,0.6054172767203514
571,0.001526432983042992,0.60550878477306
572,0.0015314707156602956,0.60550878477306
573,0.0015314707156602956,0.6056002928257687
574,0.0015365084482775993,0.6056002928257687
575,0.0015365084482775993,0.6059663250366032
576,0.0015415461808949028,0.6059663250366032
577,0.0015415461808949028,0.6069729136163983
578,0.0015465839135122064,0.6069729136163983
579,0.0015465839135122064,0.6079795021961932
580,0.0015516216461295101,0.6079795021961932
581,0.0015516216461295101,0.6083455344070278
582,0.0015667348439814207,0.6083455344070278
583,0.0015667348439814207,0.608803074670571
584,0.0015717725765987244,0.608803074670571
585,0.0015717725765987244,0.6089860907759883
586,0.001576810309216028,0.6089860907759883
587,0.001576810309216028,0.6099011713030746
588,0.0015818480418333316,0.6099011713030746
589,0.0015818480418333316,0.6099926793557833
590,0.0015868857744506353,0.6099926793557833
591,0.0015868857744506353,0.6108162518301611
592,0.001591923507067939,0.6108162518301611
593,0.001591923507067939,0.6111822840409956
594,0.0015969612396852424,0.6111822840409956
595,0.0015969612396852424,0.6113653001464129
596,0.0016070367049198498,0.6113653001464129
597,0.0016070367049198498,0.6114568081991215
598,0.0016120744375371532,0.6114568081991215
599,0.0016120744375371532,0.6116398243045388
600,0.001617112170154457,0.6116398243045388
601,0.001617112170154457,0.6117313323572474
602,0.0016221499027717606,0.6117313323572474
603,0.0016221499027717606,0.6121888726207906
604,0.0016322253680063677,0.6121888726207906
605,0.0016322253680063677,0.6128294289897511
606,0.0016372631006236712,0.6128294289897511
607,0.0016372631006236712,0.6129209370424598
608,0.0016423008332409749,0.6129209370424598
609,0.0016423008332409749,0.6136530014641288
610,0.0016473385658582786,0.6136530014641288
611,0.0016473385658582786,0.6144765739385066
612,0.001652376298475582,0.6144765739385066
613,0.001652376298475582,0.6146595900439239
614,0.0016574140310928857,0.6146595900439239
615,0.0016574140310928857,0.6147510980966325
616,0.0016725272289447965,0.6147510980966325
617,0.0016725272289447965,0.6150256222547584
618,0.0016775649615621002,0.6150256222547584
619,0.0016775649615621002,0.6151171303074671
620,0.0016826026941794037,0.6151171303074671
621,0.0016826026941794037,0.6163067349926794
622,0.0016876404267967074,0.6163067349926794
623,0.0016876404267967074,0.6167642752562226
624,0.0016977158920313145,0.6167642752562226
625,0.0016977158920313145,0.6169472913616398
626,0.0017077913572659217,0.6169472913616398
627,0.0017077913572659217,0.6172218155197657
628,0.0017128290898832253,0.6172218155197657
629,0.0017128290898832253,0.6174963396778916
630,0.001717866822500529,0.6174963396778916
631,0.001717866822500529,0.6182284040995608
632,0.0017229045551178325,0.6182284040995608
633,0.0017229045551178325,0.6183199121522694
634,0.0017279422877351362,0.6183199121522694
635,0.0017279422877351362,0.6184114202049781
636,0.0017329800203524399,0.6184114202049781
637,0.0017329800203524399,0.6188689604685212
638,0.0017380177529697433,0.6188689604685212
639,0.0017380177529697433,0.6189604685212299
640,0.001743055485587047,0.6189604685212299
641,0.001743055485587047,0.6191434846266471
642,0.0017480932182043507,0.6191434846266471
643,0.0017480932182043507,0.6193265007320644
644,0.0017531309508216541,0.6193265007320644
645,0.0017531309508216541,0.6205161054172768
646,0.0017581686834389578,0.6205161054172768
647,0.0017581686834389578,0.6217972181551976
648,0.0017632064160562613,0.6217972181551976
649,0.0017632064160562613,0.6219802342606149
650,0.0017732818812908687,0.6219802342606149
651,0.0017732818812908687,0.6226207906295754
652,0.0017833573465254758,0.6226207906295754
653,0.0017833573465254758,0.6228038067349927
654,0.0017883950791427795,0.6228038067349927
655,0.0017883950791427795,0.6230783308931186
656,0.001793432811760083,0.6230783308931186
657,0.001793432811760083,0.6231698389458272
658,0.0017984705443773866,0.6231698389458272
659,0.0017984705443773866,0.6232613469985359
660,0.0018085460096119938,0.6232613469985359
661,0.0018085460096119938,0.6235358711566618
662,0.0018135837422292975,0.6235358711566618
663,0.0018135837422292975,0.623718887262079
664,0.0018186214748466011,0.623718887262079
665,0.0018186214748466011,0.6240849194729137
666,0.0018236592074639046,0.6240849194729137
667,0.0018236592074639046,0.6243594436310396
668,0.0018286969400812083,0.6243594436310396
669,0.0018286969400812083,0.6246339677891655
670,0.0018337346726985118,0.6246339677891655
671,0.0018337346726985118,0.6254575402635432
672,0.0018438101379331191,0.6254575402635432
673,0.0018438101379331191,0.6257320644216691
674,0.0018538856031677263,0.6257320644216691
675,0.0018538856031677263,0.6259150805270863
676,0.00185892333578503,0.6259150805270863
677,0.00185892333578503,0.6261896046852123
678,0.0018639610684023334,0.6261896046852123
679,0.0018639610684023334,0.626281112737921
680,0.001868998801019637,0.626281112737921
681,0.001868998801019637,0.6264641288433382
682,0.0018740365336369408,0.6264641288433382
683,0.0018740365336369408,0.6269216691068814
684,0.001884111998871548,0.6269216691068814
685,0.001884111998871548,0.6275622254758418
686,0.0018891497314888516,0.6275622254758418
687,0.0018891497314888516,0.6280197657393851
688,0.001894187464106155,0.6280197657393851
689,0.001894187464106155,0.6285688140556369
690,0.0018992251967234587,0.6285688140556369
691,0.0018992251967234587,0.6288433382137628
692,0.0019042629293407622,0.6288433382137628
693,0.0019042629293407622,0.6289348462664714
694,0.001909300661958066,0.6289348462664714
695,0.001909300661958066,0.6296669106881405
696,0.0019143383945753696,0.6296669106881405
697,0.0019143383945753696,0.6298499267935578
698,0.001919376127192673,0.6298499267935578
699,0.001919376127192673,0.6301244509516838
700,0.0019244138598099767,0.6301244509516838
701,0.0019244138598099767,0.6304904831625183
702,0.0019294515924272804,0.6304904831625183
703,0.0019294515924272804,0.6307650073206442
704,0.0019445647902791912,0.6307650073206442
705,0.0019445647902791912,0.6311310395314788
706,0.001954640255513798,0.6311310395314788
707,0.001954640255513798,0.6318631039531479
708,0.0019647157207484055,0.6318631039531479
709,0.0019647157207484055,0.6320461200585652
710,0.001974791185983013,0.6320461200585652
711,0.001974791185983013,0.6321376281112738
712,0.0019798289186003164,0.6321376281112738
713,0.0019798289186003164,0.6322291361639825
714,0.00198486665121762,0.6322291361639825
715,0.00198486665121762,0.632595168374817
716,0.0019899043838349237,0.632595168374817
717,0.0019899043838349237,0.6326866764275256
718,0.001994942116452227,0.6326866764275256
719,0.001994942116452227,0.6327781844802343
720,0.0019999798490695306,0.6327781844802343
721,0.0019999798490695306,0.6328696925329429
722,0.0020050175816868345,0.6328696925329429
723,0.0020050175816868345,0.6331442166910688
724,0.002010055314304138,0.6331442166910688
725,0.002010055314304138,0.6332357247437774
726,0.0020150930469214415,0.6332357247437774
727,0.0020150930469214415,0.633601756954612
728,0.0020302062447733523,0.633601756954612
729,0.0020302062447733523,0.6346998535871157
730,0.002035243977390656,0.6346998535871157
731,0.002035243977390656,0.6348828696925329
732,0.002045319442625263,0.6348828696925329
733,0.002045319442625263,0.6353404099560761
734,0.002050357175242567,0.6353404099560761
735,0.002050357175242567,0.6354319180087847
736,0.0020553949078598705,0.6354319180087847
737,0.0020553949078598705,0.6359809663250366
738,0.002060432640477174,0.6359809663250366
739,0.002060432640477174,0.6362554904831625
740,0.0020705081057117813,0.6362554904831625
741,0.0020705081057117813,0.6378111273792094
742,0.002075545838329085,0.6378111273792094
743,0.002075545838329085,0.637902635431918
744,0.0020805835709463883,0.637902635431918
745,0.0020805835709463883,0.6385431918008785
746,0.002085621303563692,0.6385431918008785
747,0.002085621303563692,0.638909224011713
748,0.0020906590361809956,0.638909224011713
749,0.0020906590361809956,0.6397327964860908
750,0.002100734501415603,0.6397327964860908
751,0.002100734501415603,0.6399158125915081
752,0.00211080996665021,0.6399158125915081
753,0.00211080996665021,0.6402818448023426
754,0.0021309608971194246,0.6402818448023426
755,0.0021309608971194246,0.6403733528550513
756,0.002135998629736728,0.6403733528550513
757,0.002135998629736728,0.6411054172767203
758,0.0021410363623540316,0.6411054172767203
759,0.0021410363623540316,0.6416544655929722
760,0.0021460740949713355,0.6416544655929722
761,0.0021460740949713355,0.6417459736456809
762,0.002151111827588639,0.6417459736456809
763,0.002151111827588639,0.6418374816983895
764,0.0021561495602059424,0.6418374816983895
765,0.0021561495602059424,0.642203513909224
766,0.0021611872928232463,0.642203513909224
767,0.0021611872928232463,0.6422950219619327
768,0.0021662250254405498,0.6422950219619327
769,0.0021662250254405498,0.6426610541727672
770,0.0021712627580578532,0.6426610541727672
771,0.0021712627580578532,0.6430270863836017
772,0.002186375955909764,0.6430270863836017
773,0.002186375955909764,0.643210102489019
774,0.0021964514211443714,0.643210102489019
775,0.0021964514211443714,0.6434846266471449
776,0.002201489153761675,0.6434846266471449
777,0.002201489153761675,0.6435761346998536
778,0.0022115646189962822,0.6435761346998536
779,0.0022115646189962822,0.6438506588579795
780,0.0022166023516135857,0.6439421669106882
781,0.002221640084230889,0.6439421669106882
782,0.002221640084230889,0.6442166910688141
783,0.002226677816848193,0.6442166910688141
784,0.002226677816848193,0.6443997071742313
785,0.0022317155494654965,0.6443997071742313
786,0.0022317155494654965,0.64449121522694
787,0.002241791014700104,0.64449121522694
788,0.002241791014700104,0.6447657393850659
789,0.0022468287473174074,0.6447657393850659
790,0.0022468287473174074,0.6448572474377745
791,0.002251866479934711,0.6448572474377745
792,0.002251866479934711,0.6449487554904831
793,0.0022569042125520147,0.6449487554904831
794,0.0022569042125520147,0.6450402635431918
795,0.002261941945169318,0.6450402635431918
796,0.002261941945169318,0.6451317715959004
797,0.0022669796777866217,0.6451317715959004
798,0.0022669796777866217,0.6455893118594437
799,0.0022720174104039256,0.6455893118594437
800,0.0022720174104039256,0.6458638360175696
801,0.002277055143021229,0.6458638360175696
802,0.002277055143021229,0.6462298682284041
803,0.00229216834087314,0.6462298682284041
804,0.00229216834087314,0.6464128843338214
805,0.0022972060734904433,0.6464128843338214
806,0.0022972060734904433,0.64650439238653
807,0.0023072815387250507,0.64650439238653
808,0.0023072815387250507,0.6473279648609077
809,0.002312319271342354,0.6473279648609077
810,0.002312319271342354,0.6475109809663251
811,0.002327432469194265,0.6475109809663251
812,0.002327432469194265,0.6476939970717424
813,0.0023324702018115684,0.6476939970717424
814,0.0023324702018115684,0.6481515373352855
815,0.0023375079344288723,0.6481515373352855
816,0.0023375079344288723,0.6484260614934114
817,0.002342545667046176,0.6484260614934114
818,0.002342545667046176,0.64851756954612
819,0.0023475833996634793,0.64851756954612
820,0.0023475833996634793,0.6487005856515373
821,0.0023576588648980866,0.6487005856515373
822,0.0023576588648980866,0.6491581259150805
823,0.002367734330132694,0.6491581259150805
824,0.002367734330132694,0.6492496339677891
825,0.002377809795367301,0.6492496339677891
826,0.002377809795367301,0.6495241581259151
827,0.002382847527984605,0.6495241581259151
828,0.002382847527984605,0.6497071742313324
829,0.0023878852606019083,0.6497071742313324
830,0.0023878852606019083,0.6500732064421669
831,0.0023929229932192118,0.6500732064421669
832,0.0023929229932192118,0.6501647144948756
833,0.0023979607258365157,0.6501647144948756
834,0.0023979607258365157,0.6508967789165446
835,0.002402998458453819,0.6508967789165446
836,0.002402998458453819,0.6510797950219619
837,0.0024080361910711226,0.6510797950219619
838,0.0024080361910711226,0.6511713030746705
839,0.0024130739236884265,0.6511713030746705
840,0.0024130739236884265,0.6512628111273792
841,0.00241811165630573,0.6512628111273792
842,0.00241811165630573,0.6514458272327965
843,0.0024382625867749442,0.6514458272327965
844,0.0024382625867749442,0.6516288433382138
845,0.002443300319392248,0.6516288433382138
846,0.002443300319392248,0.6517203513909224
847,0.0024483380520095516,0.6517203513909224
848,0.0024483380520095516,0.6524524158125915
849,0.002468488982478766,0.6524524158125915
850,0.002468488982478766,0.652818448023426
851,0.0024735267150960694,0.652818448023426
852,0.0024735267150960694,0.6530014641288433
853,0.0024785644477133733,0.6530014641288433
854,0.0024785644477133733,0.6531844802342606
855,0.00248863991294798,0.6531844802342606
856,0.00248863991294798,0.6532759882869692
857,0.002508790843417195,0.6532759882869692
858,0.002508790843417195,0.6533674963396779
859,0.0025138285760344984,0.6533674963396779
860,0.0025138285760344984,0.6535505124450952
861,0.002518866308651802,0.6535505124450952
862,0.002518866308651802,0.6536420204978038
863,0.0025239040412691057,0.6536420204978038
864,0.0025239040412691057,0.6537335285505125
865,0.002528941773886409,0.6537335285505125
866,0.002528941773886409,0.6539165446559297
867,0.0025390172391210166,0.6539165446559297
868,0.0025390172391210166,0.6543740849194729
869,0.00254405497173832,0.6543740849194729
870,0.00254405497173832,0.6544655929721815
871,0.0025490927043556235,0.6544655929721815
872,0.0025490927043556235,0.6547401171303074
873,0.0025541304369729274,0.6547401171303074
874,0.0025541304369729274,0.6556551976573939
875,0.002559168169590231,0.6556551976573939
876,0.002559168169590231,0.6562957540263543
877,0.0025642059022075343,0.6562957540263543
878,0.0025642059022075343,0.6564787701317716
879,0.0025742813674421417,0.6564787701317716
880,0.0025742813674421417,0.6566617862371888
881,0.002579319100059445,0.6566617862371888
882,0.002579319100059445,0.6567532942898975
883,0.002584356832676749,0.6567532942898975
884,0.002584356832676749,0.657393850658858
885,0.0025893945652940525,0.657393850658858
886,0.0025893945652940525,0.6574853587115667
887,0.002594432297911356,0.6574853587115667
888,0.002594432297911356,0.6577598828696926
889,0.0025994700305286595,0.6577598828696926
890,0.0025994700305286595,0.6578513909224012
891,0.0026045077631459634,0.6578513909224012
892,0.0026045077631459634,0.6583089311859444
893,0.002609545495763267,0.6583089311859444
894,0.002609545495763267,0.658400439238653
895,0.0026145832283805703,0.658400439238653
896,0.0026145832283805703,0.6589494875549048
897,0.0026246586936151776,0.6589494875549048
898,0.0026246586936151776,0.6590409956076134
899,0.002629696426232481,0.6590409956076134
900,0.002629696426232481,0.6594985358711567
901,0.0026397718914670885,0.6594985358711567
902,0.0026397718914670885,0.6598645680819912
903,0.0026599228219363028,0.6598645680819912
904,0.0026599228219363028,0.6600475841874085
905,0.0026649605545536067,0.6600475841874085
906,0.0026649605545536067,0.6611456808199122
907,0.0026750360197882136,0.6611456808199122
908,0.0026750360197882136,0.6615117130307467
909,0.002685111485022821,0.6615117130307467
910,0.002685111485022821,0.6617862371888726
911,0.0026951869502574283,0.6617862371888726
912,0.0026951869502574283,0.6618777452415813
913,0.002710300148109339,0.6618777452415813
914,0.002710300148109339,0.6621522693997072
915,0.0027153378807266426,0.6621522693997072
916,0.0027153378807266426,0.6626098096632503
917,0.002720375613343946,0.6626098096632503
918,0.002720375613343946,0.6629758418740849
919,0.0027254133459612495,0.6629758418740849
920,0.0027254133459612495,0.6630673499267935
921,0.0027304510785785534,0.6630673499267935
922,0.0027304510785785534,0.6633418740849195
923,0.0027455642764304643,0.6633418740849195
924,0.0027455642764304643,0.6636163982430454
925,0.002755639741665071,0.6636163982430454
926,0.002755639741665071,0.6637994143484627
927,0.0027657152068996786,0.6637994143484627
928,0.0027657152068996786,0.66398243045388
929,0.002785866137368893,0.66398243045388
930,0.002785866137368893,0.6643484626647145
931,0.0027959416026035002,0.6643484626647145
932,0.0027959416026035002,0.6644399707174231
933,0.0028009793352208037,0.6644399707174231
934,0.0028009793352208037,0.664714494875549
935,0.002811054800455411,0.664714494875549
936,0.002811054800455411,0.6650805270863837
937,0.0028160925330727145,0.6650805270863837
938,0.0028160925330727145,0.6652635431918009
939,0.002826167998307322,0.6652635431918009
940,0.002826167998307322,0.6656295754026355
941,0.0028312057309246253,0.6656295754026355
942,0.0028312057309246253,0.6657210834553441
943,0.002846318928776536,0.6657210834553441
944,0.002846318928776536,0.6658125915080527
945,0.00285135666139384,0.6658125915080527
946,0.00285135666139384,0.6661786237188873
947,0.002861432126628447,0.6661786237188873
948,0.002861432126628447,0.6669106881405563
949,0.0028715075918630544,0.6669106881405563
950,0.0028715075918630544,0.6674597364568082
951,0.002876545324480358,0.6674597364568082
952,0.002876545324480358,0.6683748169838946
953,0.0028815830570976613,0.6683748169838946
954,0.0028815830570976613,0.6690153733528551
955,0.002886620789714965,0.6690153733528551
956,0.002886620789714965,0.669289897510981
957,0.0028916585223322687,0.669289897510981
958,0.0028916585223322687,0.6698389458272328
959,0.0029067717201841795,0.6698389458272328
960,0.0029067717201841795,0.6702049780380673
961,0.002916847185418787,0.6702049780380673
962,0.002916847185418787,0.6706625183016105
963,0.0029218849180360903,0.6706625183016105
964,0.0029218849180360903,0.6714860907759883
965,0.0029269226506533938,0.6714860907759883
966,0.0029269226506533938,0.6719436310395315
967,0.0029319603832706977,0.6719436310395315
968,0.0029319603832706977,0.672309663250366
969,0.0029420358485053046,0.672309663250366
970,0.0029420358485053046,0.6724011713030746
971,0.0029470735811226085,0.6724011713030746
972,0.0029470735811226085,0.6726756954612005
973,0.002952111313739912,0.6726756954612005
974,0.002952111313739912,0.6732247437774525
975,0.0029571490463572154,0.6732247437774525
976,0.0029571490463572154,0.6733162518301611
977,0.0029621867789745193,0.6733162518301611
978,0.0029621867789745193,0.6739568081991215
979,0.002967224511591823,0.6739568081991215
980,0.002967224511591823,0.674322840409956
981,0.0029722622442091263,0.674322840409956
982,0.0029722622442091263,0.6750549048316252
983,0.00297729997682643,0.6750549048316252
984,0.00297729997682643,0.6755124450951684
985,0.0029823377094437336,0.6755124450951684
986,0.0029823377094437336,0.6757869692532943
987,0.003002488639912948,0.6757869692532943
988,0.003002488639912948,0.6758784773060029
989,0.0030075263725302514,0.6758784773060029
990,0.0030075263725302514,0.6760614934114202
991,0.0030176018377648588,0.6760614934114202
992,0.0030176018377648588,0.6765190336749634
993,0.003022639570382162,0.6765190336749634
994,0.003022639570382162,0.676610541727672
995,0.0030327150356167696,0.676610541727672
996,0.0030327150356167696,0.6767020497803806
997,0.0030478282334686804,0.6767020497803806
998,0.0030478282334686804,0.6767935578330894
999,0.003052865966085984,0.6767935578330894
1000,0.003052865966085984,0.6770680819912153
1001,0.0030579036987032878,0.6770680819912153
1002,0.0030579036987032878,0.6773426061493412
1003,0.0030629414313205912,0.6773426061493412
1004,0.0030629414313205912,0.6774341142020498
1005,0.0030679791639378947,0.6774341142020498
1006,0.0030679791639378947,0.6777086383601757
1007,0.0030730168965551986,0.6777086383601757
1008,0.0030730168965551986,0.6778001464128843
1009,0.0030830923617898055,0.6778001464128843
1010,0.0030830923617898055,0.6779831625183016
1011,0.0030881300944071094,0.6779831625183016
1012,0.0030881300944071094,0.6782576866764275
1013,0.003093167827024413,0.6782576866764275
1014,0.003093167827024413,0.6784407027818448
1015,0.0030982055596417164,0.6784407027818448
1016,0.0030982055596417164,0.6787152269399708
1017,0.0031032432922590203,0.6787152269399708
1018,0.0031032432922590203,0.6788067349926794
1019,0.003113318757493627,0.6788067349926794
1020,0.003113318757493627,0.6792642752562226
1021,0.0031233942227282346,0.6792642752562226
1022,0.0031233942227282346,0.6793557833089312
1023,0.003128431955345538,0.6793557833089312
1024,0.003128431955345538,0.6794472913616398
1025,0.0031385074205801454,0.6794472913616398
1026,0.0031385074205801454,0.6796303074670571
1027,0.003143545153197449,0.6796303074670571
1028,0.003143545153197449,0.679904831625183
1029,0.0031485828858147523,0.679904831625183
1030,0.0031485828858147523,0.6799963396778916
1031,0.003153620618432056,0.6799963396778916
1032,0.003153620618432056,0.6804538799414348
1033,0.003163696083666663,0.6804538799414348
1034,0.003163696083666663,0.6809114202049781
1035,0.003168733816283967,0.6809114202049781
1036,0.003168733816283967,0.6810029282576867
1037,0.003178809281518574,0.6810029282576867
1038,0.003178809281518574,0.6812774524158126
1039,0.0031888847467531813,0.6812774524158126
1040,0.0031888847467531813,0.6813689604685212
1041,0.003193922479370485,0.6813689604685212
1042,0.003193922479370485,0.6818265007320644
1043,0.0031989602119877887,0.6818265007320644
1044,0.0031989602119877887,0.6820095168374817
1045,0.003203997944605092,0.6820095168374817
1046,0.003203997944605092,0.6824670571010248
1047,0.0032090356772223956,0.6824670571010248
1048,0.0032090356772223956,0.6828330893118595
1049,0.0032140734098396995,0.6828330893118595
1050,0.0032140734098396995,0.6832906295754027
1051,0.003219111142457003,0.6832906295754027
1052,0.003219111142457003,0.6833821376281113
1053,0.0032241488750743065,0.6833821376281113
1054,0.0032241488750743065,0.6835651537335286
1055,0.003234224340308914,0.6835651537335286
1056,0.003234224340308914,0.6838396778916545
1057,0.0032493375381608246,0.6838396778916545
1058,0.0032493375381608246,0.6843887262079063
1059,0.003254375270778128,0.6843887262079063
1060,0.003254375270778128,0.68548682284041
1061,0.0032594130033954316,0.68548682284041
1062,0.0032594130033954316,0.6855783308931186
1063,0.0032795639338646463,0.6855783308931186
1064,0.0032795639338646463,0.6857613469985359
1065,0.003294677131716557,0.6857613469985359
1066,0.003294677131716557,0.6858528550512445
1067,0.0032997148643338606,0.6858528550512445
1068,0.0032997148643338606,0.6859443631039531
1069,0.003304752596951164,0.6859443631039531
1070,0.003304752596951164,0.6861273792093704
1071,0.003309790329568468,0.6861273792093704
1072,0.003309790329568468,0.6864019033674963
1073,0.0033148280621857714,0.6864019033674963
1074,0.0033148280621857714,0.6864934114202049
1075,0.0033400167252722896,0.6864934114202049
1076,0.0033400167252722896,0.6866764275256223
1077,0.003345054457889593,0.6866764275256223
1078,0.003345054457889593,0.6870424597364568
1079,0.0033551299231242004,0.6870424597364568
1080,0.0033551299231242004,0.6875915080527086
1081,0.003360167655741504,0.6875915080527086
1082,0.003360167655741504,0.6879575402635432
1083,0.0033652053883588074,0.6879575402635432
1084,0.0033652053883588074,0.6880490483162518
1085,0.0033752808535934147,0.6880490483162518
1086,0.0033752808535934147,0.6885980966325037
1087,0.003380318586210718,0.6885980966325037
1088,0.003380318586210718,0.6886896046852123
1089,0.003385356318828022,0.6886896046852123
1090,0.003385356318828022,0.688781112737921
1091,0.003395431784062629,0.688781112737921
1092,0.003395431784062629,0.6889641288433382
1093,0.0034004695166799325,0.6889641288433382
1094,0.0034004695166799325,0.6890556368960469
1095,0.0034055072492972364,0.6890556368960469
1096,0.0034055072492972364,0.6891471449487555
1097,0.00341054498191454,0.6891471449487555
1098,0.00341054498191454,0.6893301610541728
1099,0.0034155827145318433,0.6893301610541728
1100,0.0034155827145318433,0.6900622254758418
1101,0.0034206204471491472,0.6900622254758418
1102,0.0034206204471491472,0.6904282576866764
1103,0.0034256581797664507,0.6904282576866764
1104,0.0034256581797664507,0.690794289897511
1105,0.003430695912383754,0.690794289897511
1106,0.003430695912383754,0.6908857979502196
1107,0.003435733645001058,0.6908857979502196
1108,0.003435733645001058,0.6909773060029283
1109,0.003460922308087576,0.6909773060029283
1110,0.003460922308087576,0.6911603221083455
1111,0.0034659600407048797,0.6911603221083455
1112,0.0034659600407048797,0.691800878477306
1113,0.0034911487037913975,0.691800878477306
1114,0.0034911487037913975,0.6920754026354319
1115,0.0034961864364087014,0.6920754026354319
1116,0.0034961864364087014,0.6926244509516838
1117,0.003501224169026005,0.6926244509516838
1118,0.003501224169026005,0.6928989751098097
1119,0.0035062619016433083,0.6928989751098097
1120,0.0035062619016433083,0.693081991215227
1121,0.003511299634260612,0.693081991215227
1122,0.003511299634260612,0.6934480234260615
1123,0.0035163373668779157,0.6934480234260615
1124,0.0035163373668779157,0.693814055636896
1125,0.003521375099495219,0.693814055636896
1126,0.003521375099495219,0.6939055636896047
1127,0.0035264128321125226,0.6939055636896047
1128,0.0035264128321125226,0.6941800878477306
1129,0.0035314505647298265,0.6941800878477306
1130,0.0035314505647298265,0.6944546120058566
1131,0.0035465637625817373,0.6944546120058566
1132,0.0035465637625817373,0.6945461200585652
1133,0.0035516014951990408,0.6945461200585652
1134,0.0035516014951990408,0.6946376281112738
1135,0.003561676960433648,0.6946376281112738
1136,0.003561676960433648,0.6948206442166911
1137,0.003576790158285559,0.6948206442166911
1138,0.003576790158285559,0.6950036603221084
1139,0.0035818278909028624,0.6950036603221084
1140,0.0035818278909028624,0.6952781844802343
1141,0.003586865623520166,0.6952781844802343
1142,0.003586865623520166,0.6953696925329429
1143,0.00359190335613747,0.6953696925329429
1144,0.00359190335613747,0.6954612005856515
1145,0.0035969410887547733,0.6954612005856515
1146,0.0035969410887547733,0.6956442166910688
1147,0.0036019788213720767,0.6956442166910688
1148,0.0036019788213720767,0.6959187408491947
1149,0.003612054286606684,0.6959187408491947
1150,0.003612054286606684,0.696101756954612
1151,0.0036221297518412915,0.696101756954612
1152,0.0036221297518412915,0.696376281112738
1153,0.0036422806823105057,0.696376281112738
1154,0.0036422806823105057,0.6965592972181552
1155,0.003647318414927809,0.6965592972181552
1156,0.003647318414927809,0.6966508052708639
1157,0.0036725070780143274,0.6966508052708639
1158,0.0036725070780143274,0.6967423133235725
1159,0.003677544810631631,0.6967423133235725
1160,0.003677544810631631,0.6970168374816984
1161,0.0036825825432489343,0.6970168374816984
1162,0.0036825825432489343,0.697108345534407
1163,0.0036926580084835417,0.697108345534407
1164,0.0036926580084835417,0.6977489019033675
1165,0.003697695741100845,0.6977489019033675
1166,0.003697695741100845,0.6980234260614934
1167,0.003727922136804667,0.6980234260614934
1168,0.003727922136804667,0.6982979502196194
1169,0.0037329598694219707,0.6982979502196194
1170,0.0037329598694219707,0.6985724743777453
1171,0.003737997602039274,0.6985724743777453
1172,0.003737997602039274,0.6986639824304539
1173,0.0037480730672738815,0.6986639824304539
1174,0.0037480730672738815,0.6988469985358712
1175,0.0037581485325084885,0.6988469985358712
1176,0.0037581485325084885,0.6991215226939971
1177,0.0037631862651257924,0.6991215226939971
1178,0.0037631862651257924,0.6992130307467057
1179,0.003768223997743096,0.6992130307467057
1180,0.003768223997743096,0.6993045387994143
1181,0.0037732617303603993,0.6993045387994143
1182,0.0037732617303603993,0.6994875549048316
1183,0.003778299462977703,0.6994875549048316
1184,0.003778299462977703,0.6996705710102489
1185,0.00378837492821231,0.6996705710102489
1186,0.00378837492821231,0.700128111273792
1187,0.0037984503934469175,0.700128111273792
1188,0.0037984503934469175,0.7002196193265008
1189,0.003803488126064221,0.7002196193265008
1190,0.003803488126064221,0.7003111273792094
1191,0.0038085258586815244,0.7003111273792094
1192,0.0038085258586815244,0.700402635431918
1193,0.0038135635912988283,0.700402635431918
1194,0.0038135635912988283,0.7005856515373353
1195,0.003818601323916132,0.7005856515373353
1196,0.003818601323916132,0.7007686676427526
1197,0.003828676789150739,0.7007686676427526
1198,0.003828676789150739,0.7008601756954612
1199,0.003838752254385346,0.7008601756954612
1200,0.003838752254385346,0.701409224011713
1201,0.00384378998700265,0.701409224011713
1202,0.00384378998700265,0.7015007320644217
1203,0.0038488277196199534,0.7015007320644217
1204,0.0038488277196199534,0.7015922401171303
1205,0.003853865452237257,0.7015922401171303
1206,0.003853865452237257,0.7016837481698389
1207,0.0038639409174718643,0.7016837481698389
1208,0.0038639409174718643,0.7020497803806734
1209,0.0038689786500891677,0.7020497803806734
1210,0.0038689786500891677,0.7023243045387995
1211,0.0038740163827064716,0.7023243045387995
1212,0.0038740163827064716,0.7024158125915081
1213,0.0038840918479410786,0.7024158125915081
1214,0.0038840918479410786,0.702690336749634
1215,0.0038891295805583825,0.702690336749634
1216,0.0038891295805583825,0.7027818448023426
1217,0.003894167313175686,0.7027818448023426
1218,0.003894167313175686,0.7028733528550513
1219,0.0038992050457929894,0.7028733528550513
1220,0.0038992050457929894,0.7029648609077599
1221,0.0039042427784102933,0.7029648609077599
1222,0.0039042427784102933,0.7032393850658858
1223,0.003924393708879507,0.7032393850658858
1224,0.003924393708879507,0.7034224011713031
1225,0.003929431441496811,0.7034224011713031
1226,0.003929431441496811,0.7038799414348462
1227,0.003934469174114115,0.7038799414348462
1228,0.003934469174114115,0.7040629575402635
1229,0.003939506906731418,0.7040629575402635
1230,0.003939506906731418,0.7046120058565154
1231,0.003944544639348722,0.7046120058565154
1232,0.003944544639348722,0.7047950219619327
1233,0.003949582371966026,0.7047950219619327
1234,0.003949582371966026,0.7048865300146413
1235,0.003954620104583329,0.7048865300146413
1236,0.003954620104583329,0.7051610541727672
1237,0.003959657837200633,0.7051610541727672
1238,0.003959657837200633,0.7054355783308931
1239,0.003989884232904454,0.7054355783308931
1240,0.003989884232904454,0.7055270863836017
1241,0.003999959698139061,0.7055270863836017
1242,0.003999959698139061,0.7056185944363104
1243,0.004015072895990972,0.7056185944363104
1244,0.004015072895990972,0.7062591508052709
1245,0.004020110628608276,0.7062591508052709
1246,0.004020110628608276,0.7065336749633968
1247,0.004030186093842883,0.7065336749633968
1248,0.004030186093842883,0.7066251830161054
1249,0.004035223826460187,0.7066251830161054
1250,0.004035223826460187,0.7067166910688141
1251,0.004045299291694794,0.7067166910688141
1252,0.004045299291694794,0.7073572474377745
1253,0.0040654502221640085,0.7073572474377745
1254,0.0040654502221640085,0.7074487554904831
1255,0.0040755256873986154,0.7074487554904831
1256,0.0040755256873986154,0.7076317715959004
1257,0.004080563420015919,0.7076317715959004
1258,0.004080563420015919,0.7078147877013177
1259,0.004090638885250526,0.7078147877013177
1260,0.004090638885250526,0.7079978038067349
1261,0.004100714350485134,0.7079978038067349
1262,0.004100714350485134,0.7080893118594437
1263,0.004110789815719741,0.7080893118594437
1264,0.004110789815719741,0.7081808199121523
1265,0.004115827548337045,0.7081808199121523
1266,0.004115827548337045,0.708272327964861
1267,0.004125903013571652,0.708272327964861
1268,0.004125903013571652,0.7083638360175696
1269,0.004135978478806259,0.7083638360175696
1270,0.004135978478806259,0.7084553440702782
1271,0.004141016211423563,0.7084553440702782
1272,0.004141016211423563,0.7085468521229868
1273,0.0041561294092754735,0.7085468521229868
1274,0.0041561294092754735,0.7093704245973645
1275,0.0041611671418927765,0.7093704245973645
1276,0.0041611671418927765,0.7096449487554904
1277,0.004181318072361991,0.7096449487554904
1278,0.004181318072361991,0.7097364568081991
1279,0.004196431270213902,0.7097364568081991
1280,0.004196431270213902,0.7098279648609077
1281,0.004201469002831206,0.7098279648609077
1282,0.004201469002831206,0.7101024890190337
1283,0.00422161993330042,0.7101024890190337
1284,0.00422161993330042,0.710285505124451
1285,0.004236733131152331,0.710285505124451
1286,0.004236733131152331,0.7103770131771596
1287,0.0042417708637696346,0.7103770131771596
1288,0.0042417708637696346,0.7108345534407028
1289,0.0042468085963869385,0.7108345534407028
1290,0.0042468085963869385,0.71101756954612
1291,0.004256884061621545,0.71101756954612
1292,0.004256884061621545,0.7124816983894583
1293,0.004261921794238849,0.7124816983894583
1294,0.004261921794238849,0.7126647144948756
1295,0.004271997259473456,0.7126647144948756
1296,0.004271997259473456,0.7129392386530015
1297,0.00427703499209076,0.7129392386530015
1298,0.00427703499209076,0.7134882869692533
1299,0.004282072724708063,0.7134882869692533
1300,0.004282072724708063,0.7136713030746705
1301,0.004292148189942671,0.7136713030746705
1302,0.004292148189942671,0.7144033674963397
1303,0.004307261387794582,0.7144033674963397
1304,0.004307261387794582,0.7147693997071742
1305,0.004312299120411885,0.7147693997071742
1306,0.004312299120411885,0.7148609077598829
1307,0.004317336853029189,0.7148609077598829
1308,0.004317336853029189,0.7149524158125915
1309,0.004322374585646493,0.7149524158125915
1310,0.004322374585646493,0.715318448023426
1311,0.004327412318263796,0.715318448023426
1312,0.004327412318263796,0.7154099560761347
1313,0.0043324500508810995,0.7154099560761347
1314,0.0043324500508810995,0.7155014641288433
1315,0.00434756324873301,0.7155014641288433
1316,0.00434756324873301,0.7155929721815519
1317,0.004352600981350314,0.7155929721815519
1318,0.004352600981350314,0.7157759882869692
1319,0.004357638713967617,0.7157759882869692
1320,0.004357638713967617,0.7161420204978038
1321,0.004362676446584921,0.7161420204978038
1322,0.004362676446584921,0.7165080527086384
1323,0.004367714179202225,0.7165080527086384
1324,0.004367714179202225,0.7167825768667643
1325,0.004377789644436832,0.7167825768667643
1326,0.004377789644436832,0.7170571010248902
1327,0.004397940574906046,0.7170571010248902
1328,0.004397940574906046,0.7171486090775988
1329,0.00440297830752335,0.7171486090775988
1330,0.00440297830752335,0.7173316251830161
1331,0.004408016040140654,0.7173316251830161
1332,0.004408016040140654,0.7177891654465594
1333,0.004413053772757957,0.7177891654465594
1334,0.004413053772757957,0.7181551976573939
1335,0.0044281669706098675,0.7181551976573939
1336,0.0044281669706098675,0.7182467057101025
1337,0.004433204703227171,0.7182467057101025
1338,0.004433204703227171,0.7183382137628112
1339,0.004438242435844475,0.7183382137628112
1340,0.004438242435844475,0.7187957540263543
1341,0.004443280168461778,0.7187957540263543
1342,0.004443280168461778,0.7189787701317716
1343,0.004453355633696386,0.7189787701317716
1344,0.004453355633696386,0.7192532942898975
1345,0.004458393366313689,0.7192532942898975
1346,0.004458393366313689,0.7193448023426061
1347,0.004463431098930993,0.7193448023426061
1348,0.004463431098930993,0.7194363103953147
1349,0.004468468831548297,0.7194363103953147
1350,0.004468468831548297,0.7195278184480234
1351,0.004478544296782904,0.7195278184480234
1352,0.004478544296782904,0.7198023426061494
1353,0.004483582029400208,0.7198023426061494
1354,0.004483582029400208,0.7202598828696926
1355,0.004488619762017511,0.7202598828696926
1356,0.004488619762017511,0.7206259150805271
1357,0.0045138084251040295,0.7206259150805271
1358,0.0045138084251040295,0.7208089311859444
1359,0.004523883890338636,0.7208089311859444
1360,0.004523883890338636,0.7209919472913616
1361,0.00452892162295594,0.7209919472913616
1362,0.00452892162295594,0.7214494875549048
1363,0.004544034820807851,0.7214494875549048
1364,0.004544034820807851,0.7217240117130308
1365,0.004554110286042458,0.7217240117130308
1366,0.004554110286042458,0.7218155197657394
1367,0.004569223483894369,0.7218155197657394
1368,0.004569223483894369,0.7219985358711567
1369,0.004574261216511673,0.7219985358711567
1370,0.004574261216511673,0.7220900439238653
1371,0.00458433668174628,0.7220900439238653
1372,0.00458433668174628,0.7222730600292826
1373,0.004589374414363584,0.7222730600292826
1374,0.004589374414363584,0.7223645680819912
1375,0.0045994498795981905,0.7223645680819912
1376,0.0045994498795981905,0.7224560761346999
1377,0.0046044876122154944,0.7224560761346999
1378,0.0046044876122154944,0.7228221083455344
1379,0.004614563077450101,0.7228221083455344
1380,0.004614563077450101,0.722913616398243
1381,0.004624638542684708,0.722913616398243
1382,0.004624638542684708,0.7231881405563689
1383,0.004634714007919316,0.7231881405563689
1384,0.004634714007919316,0.7232796486090776
1385,0.004644789473153923,0.7232796486090776
1386,0.004644789473153923,0.7239202049780381
1387,0.00465486493838853,0.7239202049780381
1388,0.00465486493838853,0.7247437774524158
1389,0.004659902671005834,0.7247437774524158
1390,0.004659902671005834,0.7248352855051244
1391,0.004664940403623137,0.7248352855051244
1392,0.004664940403623137,0.7249267935578331
1393,0.004680053601475048,0.7249267935578331
1394,0.004680053601475048,0.7250183016105417
1395,0.0046901290667096555,0.7250183016105417
1396,0.0046901290667096555,0.7251098096632503
1397,0.004710279997178869,0.7251098096632503
1398,0.004710279997178869,0.725201317715959
1399,0.004720355462413477,0.725201317715959
1400,0.004720355462413477,0.7252928257686676
1401,0.004735468660265388,0.7252928257686676
1402,0.004735468660265388,0.7253843338213762
1403,0.004740506392882691,0.7253843338213762
1404,0.004740506392882691,0.7256588579795022
1405,0.004770732788586513,0.7256588579795022
1406,0.004770732788586513,0.7257503660322109
1407,0.0047858459864384235,0.7257503660322109
1408,0.0047858459864384235,0.7260248901903368
1409,0.004795921451673031,0.7260248901903368
1410,0.004795921451673031,0.726207906295754
1411,0.004805996916907638,0.726207906295754
1412,0.004805996916907638,0.7263909224011713
1413,0.004826147847376853,0.7263909224011713
1414,0.004826147847376853,0.7267569546120058
1415,0.004831185579994156,0.7267569546120058
1416,0.004831185579994156,0.7270314787701317
1417,0.004851336510463371,0.7270314787701317
1418,0.004851336510463371,0.7273060029282576
1419,0.0048664497083152815,0.7273060029282576
1420,0.0048664497083152815,0.7276720351390923
1421,0.004881562906167192,0.7276720351390923
1422,0.004881562906167192,0.7279465592972182
1423,0.004911789301871014,0.7279465592972182
1424,0.004911789301871014,0.7281295754026355
1425,0.004926902499722925,0.7281295754026355
1426,0.004926902499722925,0.7282210834553441
1427,0.004936977964957532,0.7282210834553441
1428,0.004936977964957532,0.7284040995607614
1429,0.0049571288954267465,0.7284040995607614
1430,0.0049571288954267465,0.7285871156661786
1431,0.0049672043606613535,0.7285871156661786
1432,0.0049672043606613535,0.7290446559297218
1433,0.004982317558513264,0.7290446559297218
1434,0.004982317558513264,0.7293191800878477
1435,0.004987355291130568,0.7293191800878477
1436,0.004987355291130568,0.7295021961932651
1437,0.004992393023747871,0.7295021961932651
1438,0.004992393023747871,0.729776720351391
1439,0.004997430756365175,0.729776720351391
1440,0.004997430756365175,0.7298682284040996
1441,0.005002468488982479,0.7298682284040996
1442,0.005002468488982479,0.7300512445095169
1443,0.005012543954217086,0.7300512445095169
1444,0.005012543954217086,0.7301427525622255
1445,0.005037732617303604,0.7301427525622255
1446,0.005037732617303604,0.7303257686676428
1447,0.005042770349920908,0.7303257686676428
1448,0.005042770349920908,0.7306002928257687
1449,0.0050478080825382115,0.7306002928257687
1450,0.0050478080825382115,0.7306918008784773
1451,0.0050528458151555145,0.7306918008784773
1452,0.0050528458151555145,0.7307833089311859
1453,0.005057883547772818,0.7307833089311859
1454,0.005057883547772818,0.7309663250366032
1455,0.005062921280390122,0.7309663250366032
1456,0.005062921280390122,0.7311493411420205
1457,0.005067959013007425,0.7311493411420205
1458,0.005067959013007425,0.7315153733528551
1459,0.005083072210859336,0.7315153733528551
1460,0.005083072210859336,0.7318814055636896
1461,0.005103223141328551,0.7318814055636896
1462,0.005103223141328551,0.7322474377745242
1463,0.005118336339180462,0.7322474377745242
1464,0.005118336339180462,0.7323389458272328
1465,0.005123374071797766,0.7323389458272328
1466,0.005123374071797766,0.7326134699853587
1467,0.005128411804415069,0.7326134699853587
1468,0.005128411804415069,0.7328879941434846
1469,0.0051435250022669795,0.7328879941434846
1470,0.0051435250022669795,0.7331625183016105
1471,0.005153600467501587,0.7331625183016105
1472,0.005153600467501587,0.7332540263543191
1473,0.005173751397970801,0.7332540263543191
1474,0.005173751397970801,0.7334370424597365
1475,0.005183826863205408,0.7334370424597365
1476,0.005183826863205408,0.7343521229868228
1477,0.005193902328440016,0.7343521229868228
1478,0.005193902328440016,0.7347181551976574
1479,0.005198940061057319,0.7347181551976574
1480,0.005198940061057319,0.734809663250366
1481,0.005203977793674623,0.734809663250366
1482,0.005203977793674623,0.7353587115666179
1483,0.00521405325890923,0.7353587115666179
1484,0.00521405325890923,0.7359077598828697
1485,0.005219090991526534,0.7359077598828697
1486,0.005219090991526534,0.7362737920937042
1487,0.0052241287241438375,0.7362737920937042
1488,0.0052241287241438375,0.7363653001464129
1489,0.005239241921995748,0.7363653001464129
1490,0.005239241921995748,0.7365483162518301
1491,0.005244279654613051,0.7365483162518301
1492,0.005244279654613051,0.7366398243045388
1493,0.005264430585082266,0.7366398243045388
1494,0.005264430585082266,0.7370058565153733
1495,0.005284581515551481,0.7370058565153733
1496,0.005284581515551481,0.7371888726207906
1497,0.005294656980786088,0.7371888726207906
1498,0.005294656980786088,0.737371888726208
1499,0.005299694713403392,0.737371888726208
1500,0.005299694713403392,0.7378294289897511
1501,0.005309770178637999,0.7378294289897511
1502,0.005309770178637999,0.7379209370424598
1503,0.0053148079112553025,0.7379209370424598
1504,0.0053148079112553025,0.7380124450951684
1505,0.0053248833764899094,0.7380124450951684
1506,0.0053248833764899094,0.738103953147877
1507,0.005329921109107213,0.738103953147877
1508,0.005329921109107213,0.7381954612005857
1509,0.005334958841724516,0.7381954612005857
1510,0.005334958841724516,0.7385614934114202
1511,0.005350072039576427,0.7385614934114202
1512,0.005350072039576427,0.7386530014641288
1513,0.005355109772193731,0.7386530014641288
1514,0.005355109772193731,0.739110541727672
1515,0.005360147504811035,0.739110541727672
1516,0.005360147504811035,0.7392935578330894
1517,0.005365185237428338,0.7392935578330894
1518,0.005365185237428338,0.739385065885798
1519,0.005370222970045642,0.739385065885798
1520,0.005370222970045642,0.7397510980966325
1521,0.005385336167897553,0.7397510980966325
1522,0.005385336167897553,0.7398426061493412
1523,0.005390373900514857,0.7398426061493412
1524,0.005390373900514857,0.7399341142020498
1525,0.00539541163313216,0.7399341142020498
1526,0.00539541163313216,0.7403001464128843
1527,0.0054054870983667675,0.7403001464128843
1528,0.0054054870983667675,0.7404831625183016
1529,0.005415562563601374,0.7404831625183016
1530,0.005415562563601374,0.7406661786237189
1531,0.005420600296218678,0.7406661786237189
1532,0.005420600296218678,0.7408491947291361
1533,0.005430675761453285,0.7408491947291361
1534,0.005430675761453285,0.7409407027818448
1535,0.005435713494070589,0.7409407027818448
1536,0.005435713494070589,0.7413067349926794
1537,0.005445788959305196,0.7413067349926794
1538,0.005445788959305196,0.7414897510980967
1539,0.005450826691922499,0.7414897510980967
1540,0.005450826691922499,0.7415812591508053
1541,0.005460902157157107,0.7415812591508053
1542,0.005460902157157107,0.7417642752562226
1543,0.005470977622391714,0.7417642752562226
1544,0.005470977622391714,0.7418557833089312
1545,0.005476015355009018,0.7418557833089312
1546,0.005476015355009018,0.7420387994143485
1547,0.005486090820243625,0.7420387994143485
1548,0.005486090820243625,0.7421303074670571
1549,0.0054911285528609285,0.7421303074670571
1550,0.0054911285528609285,0.7423133235724744
1551,0.0055012040180955355,0.7423133235724744
1552,0.0055012040180955355,0.742404831625183
1553,0.005511279483330142,0.742404831625183
1554,0.005511279483330142,0.7426793557833089
1555,0.005516317215947446,0.7426793557833089
1556,0.005516317215947446,0.7431368960468521
1557,0.00552135494856475,0.7431368960468521
1558,0.00552135494856475,0.7432284040995608
1559,0.005526392681182053,0.7432284040995608
1560,0.005526392681182053,0.7434114202049781
1561,0.005546543611651268,0.7434114202049781
1562,0.005546543611651268,0.7435029282576867
1563,0.005551581344268572,0.7435029282576867
1564,0.005551581344268572,0.7435944363103953
1565,0.005556619076885875,0.7435944363103953
1566,0.005556619076885875,0.7439604685212299
1567,0.005561656809503179,0.7439604685212299
1568,0.005561656809503179,0.7441434846266471
1569,0.0055918832052070004,0.7441434846266471
1570,0.0055918832052070004,0.7446010248901903
1571,0.005601958670441607,0.7446010248901903
1572,0.005601958670441607,0.7448755490483162
1573,0.005627147333528126,0.7448755490483162
1574,0.005627147333528126,0.7451500732064422
1575,0.005637222798762733,0.7451500732064422
1576,0.005637222798762733,0.7452415812591509
1577,0.005652335996614644,0.7452415812591509
1578,0.005652335996614644,0.7453330893118595
1579,0.005657373729231948,0.7453330893118595
1580,0.005657373729231948,0.7454245973645681
1581,0.0056775246597011615,0.7454245973645681
1582,0.0056775246597011615,0.7455161054172768
1583,0.005682562392318465,0.7455161054172768
1584,0.005682562392318465,0.745699121522694
1585,0.005697675590170376,0.745699121522694
1586,0.005697675590170376,0.7462481698389458
1587,0.005712788788022287,0.7462481698389458
1588,0.005712788788022287,0.7463396778916545
1589,0.00571782652063959,0.7463396778916545
1590,0.00571782652063959,0.7464311859443631
1591,0.005722864253256894,0.7464311859443631
1592,0.005722864253256894,0.7466142020497804
1593,0.005732939718491501,0.7466142020497804
1594,0.005732939718491501,0.746705710102489
1595,0.005737977451108805,0.746705710102489
1596,0.005737977451108805,0.7467972181551976
1597,0.005743015183726109,0.7467972181551976
1598,0.005743015183726109,0.7469802342606149
1599,0.005748052916343412,0.7469802342606149
1600,0.005748052916343412,0.7470717423133236
1601,0.005753090648960716,0.7470717423133236
1602,0.005753090648960716,0.7472547584187409
1603,0.0057682038468126265,0.7472547584187409
1604,0.0057682038468126265,0.7475292825768668
1605,0.005783317044664537,0.7475292825768668
1606,0.005783317044664537,0.7476207906295754
1607,0.005793392509899144,0.7476207906295754
1608,0.005793392509899144,0.7480783308931186
1609,0.005803467975133752,0.7480783308931186
1610,0.005803467975133752,0.7481698389458272
1611,0.005808505707751055,0.7481698389458272
1612,0.005808505707751055,0.7485358711566618
1613,0.005813543440368359,0.7485358711566618
1614,0.005813543440368359,0.7486273792093704
1615,0.005833694370837574,0.7486273792093704
1616,0.005833694370837574,0.748718887262079
1617,0.005843769836072181,0.748718887262079
1618,0.005843769836072181,0.7488103953147877
1619,0.0058588830339240915,0.7488103953147877
1620,0.0058588830339240915,0.7490849194729137
1621,0.005868958499158698,0.7490849194729137
1622,0.005868958499158698,0.7492679355783309
1623,0.005889109429627913,0.7492679355783309
1624,0.005889109429627913,0.7493594436310396
1625,0.005894147162245217,0.7493594436310396
1626,0.005894147162245217,0.7494509516837482
1627,0.00589918489486252,0.7494509516837482
1628,0.00589918489486252,0.7497254758418741
1629,0.005904222627479824,0.7497254758418741
1630,0.005904222627479824,0.7499084919472914
1631,0.005914298092714431,0.7499084919472914
1632,0.005914298092714431,0.75
1633,0.005919335825331735,0.75
1634,0.005919335825331735,0.7500915080527086
1635,0.0059445244884182525,0.7500915080527086
1636,0.0059445244884182525,0.7501830161054173
1637,0.00595459995365286,0.7501830161054173
1638,0.00595459995365286,0.7503660322108345
1639,0.005959637686270163,0.7503660322108345
1640,0.005959637686270163,0.7507320644216691
1641,0.005964675418887467,0.7507320644216691
1642,0.005964675418887467,0.7509150805270863
1643,0.005969713151504771,0.7509150805270863
1644,0.005969713151504771,0.7510980966325037
1645,0.005979788616739378,0.7510980966325037
1646,0.005979788616739378,0.7513726207906296
1647,0.005984826349356681,0.7513726207906296
1648,0.005984826349356681,0.7514641288433382
1649,0.005989864081973985,0.7514641288433382
1650,0.005989864081973985,0.7515556368960469
1651,0.005994901814591289,0.7515556368960469
1652,0.005994901814591289,0.7517386530014641
1653,0.006015052745060503,0.7517386530014641
1654,0.006015052745060503,0.75201317715959
1655,0.0060352036755297175,0.75201317715959
1656,0.0060352036755297175,0.7521046852122987
1657,0.006050316873381628,0.7521046852122987
1658,0.006050316873381628,0.7522877013177159
1659,0.006055354605998932,0.7522877013177159
1660,0.006055354605998932,0.7525622254758418
1661,0.006060392338616235,0.7525622254758418
1662,0.006060392338616235,0.7526537335285505
1663,0.006070467803850843,0.7526537335285505
1664,0.006070467803850843,0.7527452415812591
1665,0.00608054326908545,0.7527452415812591
1666,0.00608054326908545,0.7528367496339677
1667,0.006095656466937361,0.7528367496339677
1668,0.006095656466937361,0.7531112737920937
1669,0.006105731932171968,0.7531112737920937
1670,0.006105731932171968,0.7532027818448024
1671,0.0061158073974065755,0.7532027818448024
1672,0.0061158073974065755,0.753294289897511
1673,0.006120845130023879,0.753294289897511
1674,0.006120845130023879,0.7533857979502196
1675,0.0061258828626411825,0.7533857979502196
1676,0.0061258828626411825,0.7534773060029283
1677,0.006130920595258486,0.7534773060029283
1678,0.006130920595258486,0.7537518301610542
1679,0.006135958327875789,0.7537518301610542
1680,0.006135958327875789,0.7539348462664714
1681,0.006140996060493093,0.7539348462664714
1682,0.006140996060493093,0.754300878477306
1683,0.006146033793110397,0.754300878477306
1684,0.006146033793110397,0.7546669106881405
1685,0.006156109258345004,0.7546669106881405
1686,0.006156109258345004,0.7547584187408491
1687,0.006166184723579611,0.7547584187408491
1688,0.006166184723579611,0.7549414348462665
1689,0.006176260188814219,0.7549414348462665
1690,0.006176260188814219,0.7551244509516838
1691,0.006181297921431522,0.7551244509516838
1692,0.006181297921431522,0.7553074670571011
1693,0.00619137338666613,0.7553074670571011
1694,0.00619137338666613,0.7553989751098097
1695,0.006196411119283433,0.7553989751098097
1696,0.006196411119283433,0.755581991215227
1697,0.006201448851900737,0.755581991215227
1698,0.006201448851900737,0.7561310395314788
1699,0.0062064865845180405,0.7561310395314788
1700,0.0062064865845180405,0.7565885797950219
1701,0.0062115243171353435,0.7565885797950219
1702,0.0062115243171353435,0.7566800878477306
1703,0.0062165620497526474,0.7566800878477306
1704,0.0062165620497526474,0.7569546120058566
1705,0.006241750712839165,0.7569546120058566
1706,0.006241750712839165,0.7572291361639825
1707,0.006246788445456469,0.7572291361639825
1708,0.006246788445456469,0.7573206442166911
1709,0.006251826178073772,0.7573206442166911
1710,0.006251826178073772,0.7574121522693997
1711,0.006256863910691076,0.7574121522693997
1712,0.006256863910691076,0.7576866764275256
1713,0.006277014841160291,0.7576866764275256
1714,0.006277014841160291,0.7577781844802343
1715,0.006282052573777594,0.7577781844802343
1716,0.006282052573777594,0.7581442166910688
1717,0.006287090306394898,0.7581442166910688
1718,0.006287090306394898,0.7583272327964861
1719,0.0063022035042468085,0.7583272327964861
1720,0.0063022035042468085,0.758601756954612
1721,0.006307241236864112,0.758601756954612
1722,0.006307241236864112,0.7586932650073206
1723,0.0063122789694814154,0.7586932650073206
1724,0.0063122789694814154,0.7589677891654466
1725,0.006322354434716023,0.7589677891654466
1726,0.006322354434716023,0.7590592972181552
1727,0.006327392167333326,0.7590592972181552
1728,0.006327392167333326,0.7593338213762811
1729,0.006337467632567934,0.7593338213762811
1730,0.006337467632567934,0.7597913616398243
1731,0.006347543097802541,0.7597913616398243
1732,0.006347543097802541,0.7599743777452416
1733,0.006362656295654452,0.7599743777452416
1734,0.006362656295654452,0.7601573938506588
1735,0.006372731760889059,0.7601573938506588
1736,0.006372731760889059,0.7603404099560761
1737,0.006377769493506363,0.7603404099560761
1738,0.006377769493506363,0.7604319180087847
1739,0.0063928826913582735,0.7604319180087847
1740,0.0063928826913582735,0.760614934114202
1741,0.006397920423975577,0.760614934114202
1742,0.006397920423975577,0.7607979502196194
1743,0.006407995889210184,0.7607979502196194
1744,0.006407995889210184,0.7609809663250366
1745,0.006413033621827488,0.7609809663250366
1746,0.006413033621827488,0.7611639824304539
1747,0.006418071354444791,0.7611639824304539
1748,0.006418071354444791,0.7612554904831625
1749,0.006428146819679399,0.7612554904831625
1750,0.006428146819679399,0.7614385065885798
1751,0.006433184552296702,0.7614385065885798
1752,0.006433184552296702,0.7616215226939971
1753,0.00644326001753131,0.7616215226939971
1754,0.00644326001753131,0.7617130307467057
1755,0.006463410948000524,0.7617130307467057
1756,0.006463410948000524,0.761896046852123
1757,0.006468448680617828,0.761896046852123
1758,0.006468448680617828,0.7619875549048316
1759,0.0064734864132351315,0.7619875549048316
1760,0.0064734864132351315,0.7622620790629575
1761,0.0064785241458524346,0.7622620790629575
1762,0.0064785241458524346,0.7623535871156661
1763,0.0064835618784697385,0.7623535871156661
1764,0.0064835618784697385,0.7625366032210834
1765,0.006488599611087042,0.7625366032210834
1766,0.006488599611087042,0.762628111273792
1767,0.006493637343704345,0.762628111273792
1768,0.006493637343704345,0.7629941434846267
1769,0.006503712808938953,0.7629941434846267
1770,0.006503712808938953,0.763177159590044
1771,0.006518826006790863,0.763177159590044
1772,0.006518826006790863,0.7632686676427526
1773,0.006523863739408167,0.7632686676427526
1774,0.006523863739408167,0.7634516837481699
1775,0.006528901472025471,0.7634516837481699
1776,0.006528901472025471,0.7636346998535871
1777,0.006549052402494685,0.7636346998535871
1778,0.006549052402494685,0.7637262079062958
1779,0.006559127867729293,0.7637262079062958
1780,0.006559127867729293,0.7638177159590044
1781,0.0065792787981985065,0.7638177159590044
1782,0.0065792787981985065,0.763909224011713
1783,0.00658431653081581,0.763909224011713
1784,0.00658431653081581,0.7640007320644217
1785,0.006604467461285025,0.7640007320644217
1786,0.006604467461285025,0.7640922401171303
1787,0.006614542926519632,0.7640922401171303
1788,0.006614542926519632,0.7641837481698389
1789,0.006619580659136936,0.7641837481698389
1790,0.006619580659136936,0.7643667642752562
1791,0.006634693856988847,0.7643667642752562
1792,0.006634693856988847,0.7647327964860908
1793,0.00663973158960615,0.7647327964860908
1794,0.00663973158960615,0.7648243045387995
1795,0.0066598825200753645,0.7648243045387995
1796,0.0066598825200753645,0.7650988286969254
1797,0.006680033450544579,0.7650988286969254
1798,0.006680033450544579,0.765190336749634
1799,0.006685071183161882,0.765190336749634
1800,0.006685071183161882,0.7652818448023426
1801,0.006700184381013793,0.7652818448023426
1802,0.006700184381013793,0.7656478770131772
1803,0.006705222113631097,0.7656478770131772
1804,0.006705222113631097,0.7658308931185944
1805,0.006735448509334919,0.7658308931185944
1806,0.006735448509334919,0.766196925329429
1807,0.006745523974569526,0.766196925329429
1808,0.006745523974569526,0.7662884333821376
1809,0.0067505617071868295,0.7662884333821376
1810,0.0067505617071868295,0.7664714494875549
1811,0.006755599439804133,0.7664714494875549
1812,0.006755599439804133,0.7665629575402635
1813,0.006775750370273347,0.7665629575402635
1814,0.006775750370273347,0.7667459736456809
1815,0.006780788102890651,0.7667459736456809
1816,0.006780788102890651,0.7669289897510981
1817,0.006790863568125258,0.7669289897510981
1818,0.006790863568125258,0.7671120058565154
1819,0.006795901300742562,0.7671120058565154
1820,0.006795901300742562,0.7673865300146413
1821,0.006800939033359865,0.7673865300146413
1822,0.006800939033359865,0.7674780380673499
1823,0.006805976765977169,0.7674780380673499
1824,0.006805976765977169,0.7675695461200586
1825,0.006816052231211776,0.7675695461200586
1826,0.006816052231211776,0.7677525622254758
1827,0.00682108996382908,0.7677525622254758
1828,0.00682108996382908,0.7680270863836017
1829,0.006831165429063687,0.7680270863836017
1830,0.006831165429063687,0.7681185944363104
1831,0.0068362031616809905,0.7681185944363104
1832,0.0068362031616809905,0.7683016105417276
1833,0.0068412408942982944,0.7683016105417276
1834,0.0068412408942982944,0.7683931185944363
1835,0.006851316359532901,0.7683931185944363
1836,0.006851316359532901,0.7686676427525623
1837,0.006866429557384812,0.7686676427525623
1838,0.006866429557384812,0.7687591508052709
1839,0.006886580487854027,0.7687591508052709
1840,0.006886580487854027,0.7688506588579795
1841,0.006896655953088634,0.7688506588579795
1842,0.006896655953088634,0.7689421669106882
1843,0.006911769150940545,0.7689421669106882
1844,0.006911769150940545,0.7693997071742313
1845,0.0069268823487924555,0.7693997071742313
1846,0.0069268823487924555,0.76949121522694
1847,0.0069369578140270624,0.76949121522694
1848,0.0069369578140270624,0.7696742313323572
1849,0.006941995546644366,0.7696742313323572
1850,0.006941995546644366,0.7698572474377745
1851,0.006952071011878973,0.7698572474377745
1852,0.006952071011878973,0.7699487554904831
1853,0.006962146477113581,0.7699487554904831
1854,0.006962146477113581,0.7700402635431918
1855,0.006972221942348188,0.7700402635431918
1856,0.006972221942348188,0.7701317715959004
1857,0.006997410605434706,0.7701317715959004
1858,0.006997410605434706,0.770223279648609
1859,0.007012523803286617,0.770223279648609
1860,0.007012523803286617,0.7705893118594437
1861,0.007037712466373135,0.7705893118594437
1862,0.007037712466373135,0.7706808199121523
1863,0.007047787931607742,0.7706808199121523
1864,0.007047787931607742,0.7708638360175696
1865,0.007052825664225045,0.7708638360175696
1866,0.007052825664225045,0.7709553440702782
1867,0.007057863396842349,0.7709553440702782
1868,0.007057863396842349,0.7711383601756955
1869,0.007062901129459653,0.7711383601756955
1870,0.007062901129459653,0.7714128843338214
1871,0.007088089792546171,0.7714128843338214
1872,0.007088089792546171,0.7716874084919473
1873,0.007093127525163475,0.7716874084919473
1874,0.007093127525163475,0.7717789165446559
1875,0.0071132784556326885,0.7717789165446559
1876,0.0071132784556326885,0.7720534407027818
1877,0.007118316188249992,0.7720534407027818
1878,0.007118316188249992,0.7721449487554904
1879,0.007123353920867296,0.7721449487554904
1880,0.007123353920867296,0.7724194729136163
1881,0.007128391653484599,0.7724194729136163
1882,0.007128391653484599,0.7729685212298683
1883,0.00714350485133651,0.7729685212298683
1884,0.00714350485133651,0.7730600292825769
1885,0.007148542583953814,0.7730600292825769
1886,0.007148542583953814,0.7732430453879942
1887,0.007168693514423029,0.7732430453879942
1888,0.007168693514423029,0.7736090775988287
1889,0.007178768979657636,0.7736090775988287
1890,0.007178768979657636,0.7737005856515373
1891,0.007188844444892243,0.7737005856515373
1892,0.007188844444892243,0.773792093704246
1893,0.0072039576427441535,0.773792093704246
1894,0.0072039576427441535,0.7739751098096632
1895,0.007219070840596064,0.7739751098096632
1896,0.007219070840596064,0.7740666178623719
1897,0.007229146305830672,0.7740666178623719
1898,0.007229146305830672,0.7741581259150805
1899,0.007234184038447975,0.7741581259150805
1900,0.007234184038447975,0.7742496339677891
1901,0.007239221771065279,0.7742496339677891
1902,0.007239221771065279,0.7743411420204978
1903,0.007244259503682583,0.7743411420204978
1904,0.007244259503682583,0.7746156661786238
1905,0.007269448166769101,0.7746156661786238
1906,0.007269448166769101,0.774798682284041
1907,0.007334938690794047,0.774798682284041
1908,0.007334938690794047,0.7748901903367497
1909,0.007350051888645958,0.7748901903367497
1910,0.007350051888645958,0.7750732064421669
1911,0.007360127353880566,0.7750732064421669
1912,0.007360127353880566,0.7751647144948756
1913,0.007365165086497869,0.7751647144948756
1914,0.007365165086497869,0.7756222547584187
1915,0.0073752405517324765,0.7756222547584187
1916,0.0073752405517324765,0.7758967789165446
1917,0.007385316016967083,0.7758967789165446
1918,0.007385316016967083,0.7759882869692533
1919,0.007390353749584387,0.7759882869692533
1920,0.007390353749584387,0.7761713030746705
1921,0.00739539148220169,0.7761713030746705
1922,0.00739539148220169,0.7765373352855052
1923,0.007400429214818994,0.7765373352855052
1924,0.007400429214818994,0.7767203513909224
1925,0.007410504680053601,0.7767203513909224
1926,0.007410504680053601,0.7768118594436311
1927,0.007420580145288209,0.7768118594436311
1928,0.007420580145288209,0.7772693997071742
1929,0.007425617877905512,0.7772693997071742
1930,0.007425617877905512,0.7773609077598829
1931,0.007440731075757423,0.7773609077598829
1932,0.007440731075757423,0.7775439238653001
1933,0.007481032936695852,0.7775439238653001
1934,0.007481032936695852,0.7776354319180088
1935,0.007486070669313155,0.7776354319180088
1936,0.007486070669313155,0.7777269399707174
1937,0.007496146134547763,0.7777269399707174
1938,0.007496146134547763,0.7779099560761347
1939,0.007526372530251585,0.7779099560761347
1940,0.007526372530251585,0.7780929721815519
1941,0.007531410262868888,0.7780929721815519
1942,0.007531410262868888,0.7781844802342606
1943,0.007536447995486192,0.7781844802342606
1944,0.007536447995486192,0.7782759882869692
1945,0.007541485728103496,0.7782759882869692
1946,0.007541485728103496,0.7784590043923866
1947,0.007556598925955406,0.7784590043923866
1948,0.007556598925955406,0.7790080527086384
1949,0.0075616366585727094,0.7790080527086384
1950,0.0075616366585727094,0.779099560761347
1951,0.007566674391190013,0.779099560761347
1952,0.007566674391190013,0.7791910688140556
1953,0.00757674985642462,0.7791910688140556
1954,0.00757674985642462,0.7794655929721815
1955,0.007581787589041924,0.7794655929721815
1956,0.007581787589041924,0.7797401171303074
1957,0.007586825321659227,0.7797401171303074
1958,0.007586825321659227,0.7800146412884333
1959,0.007596900786893835,0.7800146412884333
1960,0.007596900786893835,0.780106149341142
1961,0.007601938519511138,0.780106149341142
1962,0.007601938519511138,0.780380673499268
1963,0.007606976252128442,0.780380673499268
1964,0.007606976252128442,0.7808382137628112
1965,0.007637202647832264,0.7808382137628112
1966,0.007637202647832264,0.7809297218155198
1967,0.007657353578301478,0.7809297218155198
1968,0.007657353578301478,0.7812042459736457
1969,0.007672466776153389,0.7812042459736457
1970,0.007672466776153389,0.7812957540263543
1971,0.007677504508770692,0.7812957540263543
1972,0.007677504508770692,0.781387262079063
1973,0.007702693171857211,0.781387262079063
1974,0.007702693171857211,0.7815702781844802
1975,0.007707730904474514,0.7815702781844802
1976,0.007707730904474514,0.7816617862371888
1977,0.007712768637091818,0.7816617862371888
1978,0.007712768637091818,0.7820278184480234
1979,0.0077329195675610325,0.7820278184480234
1980,0.0077329195675610325,0.782119326500732
1981,0.0077379573001783355,0.782119326500732
1982,0.0077379573001783355,0.7822108345534406
1983,0.007742995032795639,0.7822108345534406
1984,0.007742995032795639,0.7823023426061494
1985,0.007768183695882157,0.7823023426061494
1986,0.007768183695882157,0.7825768667642753
1987,0.007773221428499461,0.7825768667642753
1988,0.007773221428499461,0.7826683748169839
1989,0.007778259161116765,0.7826683748169839
1990,0.007778259161116765,0.7827598828696926
1991,0.007783296893734068,0.7827598828696926
1992,0.007783296893734068,0.7833089311859444
1993,0.007788334626351372,0.7833089311859444
1994,0.007788334626351372,0.783400439238653
1995,0.007793372358968676,0.783400439238653
1996,0.007793372358968676,0.7834919472913616
1997,0.007798410091585979,0.7834919472913616
1998,0.007798410091585979,0.7835834553440703
1999,0.007803447824203283,0.7835834553440703
2000,0.007803447824203283,0.7836749633967789
2001,0.00781352328943789,0.7836749633967789
2002,0.00781352328943789,0.7839494875549048
2003,0.0078286364872898,0.7839494875549048
2004,0.0078286364872898,0.7842240117130308
2005,0.007843749685141711,0.7842240117130308
2006,0.007843749685141711,0.7844985358711567
2007,0.007853825150376319,0.7844985358711567
2008,0.007853825150376319,0.7845900439238653
2009,0.00786893834822823,0.7845900439238653
2010,0.00786893834822823,0.7847730600292826
2011,0.007879013813462836,0.7847730600292826
2012,0.007879013813462836,0.7850475841874085
2013,0.00788405154608014,0.7850475841874085
2014,0.00788405154608014,0.7851390922401171
2015,0.007894127011314747,0.7851390922401171
2016,0.007894127011314747,0.7852306002928258
2017,0.007904202476549355,0.7852306002928258
2018,0.007904202476549355,0.7853221083455344
2019,0.007919315674401265,0.7853221083455344
2020,0.007919315674401265,0.785413616398243
2021,0.007929391139635873,0.785413616398243
2022,0.007929391139635873,0.7855051244509517
2023,0.007934428872253176,0.7855051244509517
2024,0.007934428872253176,0.7855966325036603
2025,0.007949542070105087,0.7855966325036603
2026,0.007949542070105087,0.7857796486090776
2027,0.007964655267956998,0.7857796486090776
2028,0.007964655267956998,0.7858711566617862
2029,0.007979768465808909,0.7858711566617862
2030,0.007979768465808909,0.7859626647144948
2031,0.007984806198426212,0.7859626647144948
2032,0.007984806198426212,0.7860541727672035
2033,0.008025108059364641,0.7860541727672035
2034,0.008025108059364641,0.7862371888726208
2035,0.008030145791981944,0.7862371888726208
2036,0.008030145791981944,0.786694729136164
2037,0.008035183524599249,0.786694729136164
2038,0.008035183524599249,0.7868777452415813
2039,0.008040221257216552,0.7868777452415813
2040,0.008040221257216552,0.7869692532942899
2041,0.008060372187685766,0.7869692532942899
2042,0.008060372187685766,0.7870607613469985
2043,0.008070447652920374,0.7870607613469985
2044,0.008080523118154982,0.7870607613469985
2045,0.008085560850772285,0.7870607613469985
2046,0.008085560850772285,0.7871522693997072
2047,0.008090598583389588,0.7871522693997072
2048,0.008090598583389588,0.7872437774524158
2049,0.008095636316006892,0.7872437774524158
2050,0.008095636316006892,0.7875183016105417
2051,0.008105711781241498,0.7875183016105417
2052,0.008105711781241498,0.7876098096632503
2053,0.008110749513858803,0.7876098096632503
2054,0.008110749513858803,0.787701317715959
2055,0.00812082497909341,0.787701317715959
2056,0.00812082497909341,0.7878843338213762
2057,0.008125862711710714,0.7878843338213762
2058,0.008125862711710714,0.7879758418740849
2059,0.008130900444328017,0.7879758418740849
2060,0.008130900444328017,0.7880673499267935
2061,0.00813593817694532,0.7880673499267935
2062,0.00813593817694532,0.7882503660322109
2063,0.008151051374797231,0.7882503660322109
2064,0.008151051374797231,0.7883418740849195
2065,0.008156089107414536,0.7883418740849195
2066,0.008156089107414536,0.7884333821376281
2067,0.008166164572649142,0.7884333821376281
2068,0.008166164572649142,0.7886163982430454
2069,0.008171202305266446,0.7886163982430454
2070,0.008171202305266446,0.7890739385065886
2071,0.00817624003788375,0.7890739385065886
2072,0.00817624003788375,0.7892569546120058
2073,0.008196390968352963,0.7892569546120058
2074,0.008196390968352963,0.7893484626647145
2075,0.008201428700970268,0.7893484626647145
2076,0.008201428700970268,0.7895314787701317
2077,0.008211504166204874,0.7895314787701317
2078,0.008211504166204874,0.7896229868228404
2079,0.008221579631439482,0.7896229868228404
2080,0.008221579631439482,0.789714494875549
2081,0.00823165509667409,0.789714494875549
2082,0.00823165509667409,0.7898060029282576
2083,0.008241730561908696,0.7898060029282576
2084,0.008241730561908696,0.7898975109809663
2085,0.008246768294525999,0.7898975109809663
2086,0.008246768294525999,0.7901720351390923
2087,0.00826188149237791,0.7901720351390923
2088,0.00826188149237791,0.7902635431918009
2089,0.008266919224995214,0.7902635431918009
2090,0.008266919224995214,0.7903550512445096
2091,0.00827699469022982,0.7903550512445096
2092,0.00827699469022982,0.7905380673499268
2093,0.008282032422847125,0.7905380673499268
2094,0.008282032422847125,0.7907210834553441
2095,0.008292107888081731,0.7907210834553441
2096,0.008292107888081731,0.7908125915080527
2097,0.00830218335331634,0.7908125915080527
2098,0.00830218335331634,0.7909040995607614
2099,0.008307221085933642,0.7909040995607614
2100,0.008307221085933642,0.7911786237188873
2101,0.00833240974902016,0.7911786237188873
2102,0.00833240974902016,0.7912701317715959
2103,0.008352560679489375,0.7912701317715959
2104,0.008352560679489375,0.7913616398243045
2105,0.00835759841210668,0.7913616398243045
2106,0.00835759841210668,0.7916361639824304
2107,0.008362636144723982,0.7916361639824304
2108,0.008362636144723982,0.7918191800878477
2109,0.008382787075193196,0.7918191800878477
2110,0.008382787075193196,0.7920021961932651
2111,0.008407975738279715,0.7920021961932651
2112,0.008407975738279715,0.7920937042459737
2113,0.008413013470897018,0.7920937042459737
2114,0.008413013470897018,0.7921852122986823
2115,0.008418051203514323,0.7921852122986823
2116,0.008418051203514323,0.7925512445095169
2117,0.008433164401366234,0.7925512445095169
2118,0.008433164401366234,0.7928257686676428
2119,0.008438202133983537,0.7928257686676428
2120,0.008438202133983537,0.79300878477306
2121,0.00845835306445275,0.79300878477306
2122,0.00845835306445275,0.7931002928257687
2123,0.008473466262304661,0.7931002928257687
2124,0.008473466262304661,0.7932833089311859
2125,0.008483541727539269,0.7932833089311859
2126,0.008483541727539269,0.7934663250366032
2127,0.008503692658008483,0.7934663250366032
2128,0.008503692658008483,0.7936493411420205
2129,0.00851376812324309,0.7936493411420205
2130,0.00851376812324309,0.7937408491947291
2131,0.008533919053712305,0.7937408491947291
2132,0.008533919053712305,0.7940153733528551
2133,0.00855406998418152,0.7940153733528551
2134,0.00855406998418152,0.7941068814055637
2135,0.008584296379885342,0.7941068814055637
2136,0.008584296379885342,0.794289897510981
2137,0.008614522775589164,0.794289897510981
2138,0.008614522775589164,0.7943814055636896
2139,0.00862459824082377,0.7943814055636896
2140,0.00862459824082377,0.7944729136163983
2141,0.008659862369144896,0.7944729136163983
2142,0.008659862369144896,0.7945644216691069
2143,0.008664900101762199,0.7945644216691069
2144,0.008664900101762199,0.7946559297218155
2145,0.008685051032231413,0.7946559297218155
2146,0.008685051032231413,0.7947474377745242
2147,0.008705201962700629,0.7947474377745242
2148,0.008705201962700629,0.7948389458272328
2149,0.008715277427935235,0.7948389458272328
2150,0.008715277427935235,0.7949304538799414
2151,0.008725352893169842,0.7949304538799414
2152,0.008725352893169842,0.7950219619326501
2153,0.008730390625787145,0.7950219619326501
2154,0.008730390625787145,0.7951134699853587
2155,0.008745503823639056,0.7951134699853587
2156,0.008745503823639056,0.7952049780380673
2157,0.008750541556256361,0.7952049780380673
2158,0.008750541556256361,0.795296486090776
2159,0.008755579288873664,0.795296486090776
2160,0.008755579288873664,0.7954795021961932
2161,0.008770692486725575,0.7954795021961932
2162,0.008770692486725575,0.7956625183016105
2163,0.008775730219342878,0.7956625183016105
2164,0.008775730219342878,0.7957540263543191
2165,0.008810994347664003,0.7957540263543191
2166,0.008810994347664003,0.7959370424597365
2167,0.008816032080281307,0.7959370424597365
2168,0.008816032080281307,0.7961200585651538
2169,0.00882106981289861,0.7961200585651538
2170,0.00882106981289861,0.7962115666178624
2171,0.008826107545515913,0.7962115666178624
2172,0.008826107545515913,0.796303074670571
2173,0.008831145278133218,0.796303074670571
2174,0.008831145278133218,0.7963945827232797
2175,0.008841220743367824,0.7963945827232797
2176,0.008841220743367824,0.7965775988286969
2177,0.008851296208602432,0.7965775988286969
2178,0.008851296208602432,0.7966691068814056
2179,0.00886137167383704,0.7966691068814056
2180,0.00886137167383704,0.7969436310395315
2181,0.008906711267392772,0.7969436310395315
2182,0.008906711267392772,0.7970351390922401
2183,0.008911749000010075,0.7970351390922401
2184,0.008911749000010075,0.7974926793557833
2185,0.008926862197861986,0.7974926793557833
2186,0.008926862197861986,0.7975841874084919
2187,0.00893189993047929,0.7975841874084919
2188,0.00893189993047929,0.7976756954612005
2189,0.0089470131283312,0.7976756954612005
2190,0.0089470131283312,0.7979502196193266
2191,0.008957088593565808,0.7979502196193266
2192,0.008957088593565808,0.7981332357247438
2193,0.008977239524035022,0.7981332357247438
2194,0.008977239524035022,0.7982247437774525
2195,0.008992352721886933,0.7982247437774525
2196,0.008992352721886933,0.7984077598828697
2197,0.009007465919738843,0.7984077598828697
2198,0.009007465919738843,0.798590775988287
2199,0.009017541384973451,0.798590775988287
2200,0.009017541384973451,0.7986822840409956
2201,0.009027616850208059,0.7986822840409956
2202,0.009027616850208059,0.7987737920937042
2203,0.009032654582825362,0.7987737920937042
2204,0.009032654582825362,0.7988653001464129
2205,0.00904273004805997,0.7988653001464129
2206,0.00904273004805997,0.7989568081991215
2207,0.009052805513294576,0.7989568081991215
2208,0.009052805513294576,0.7990483162518301
2209,0.009067918711146487,0.7990483162518301
2210,0.009067918711146487,0.7991398243045388
2211,0.009072956443763791,0.7991398243045388
2212,0.009072956443763791,0.7992313323572474
2213,0.009088069641615702,0.7992313323572474
2214,0.009088069641615702,0.799322840409956
2215,0.009093107374233005,0.799322840409956
2216,0.009093107374233005,0.7994143484626647
2217,0.009098145106850308,0.7994143484626647
2218,0.009098145106850308,0.7995058565153733
2219,0.00911325830470222,0.7995058565153733
2220,0.00911325830470222,0.799597364568082
2221,0.009118296037319524,0.799597364568082
2222,0.009118296037319524,0.7996888726207906
2223,0.00912837150255413,0.7996888726207906
2224,0.00912837150255413,0.7997803806734992
2225,0.009138446967788738,0.7997803806734992
2226,0.009138446967788738,0.8000549048316252
2227,0.009153560165640649,0.8000549048316252
2228,0.009153560165640649,0.8001464128843339
2229,0.009158597898257952,0.8001464128843339
2230,0.009158597898257952,0.8002379209370425
2231,0.009163635630875256,0.8002379209370425
2232,0.009163635630875256,0.8003294289897511
2233,0.00916867336349256,0.8003294289897511
2234,0.00916867336349256,0.8004209370424598
2235,0.009173711096109862,0.8004209370424598
2236,0.009173711096109862,0.800603953147877
2237,0.009193862026579078,0.800603953147877
2238,0.009193862026579078,0.8007869692532943
2239,0.009203937491813684,0.8007869692532943
2240,0.009203937491813684,0.8009699853587116
2241,0.009219050689665595,0.8009699853587116
2242,0.009219050689665595,0.8011530014641288
2243,0.009254314817986721,0.8011530014641288
2244,0.009254314817986721,0.8014275256222547
2245,0.009264390283221327,0.8014275256222547
2246,0.009264390283221327,0.801610541727672
2247,0.009274465748455935,0.801610541727672
2248,0.009274465748455935,0.8017020497803806
2249,0.009279503481073238,0.8017020497803806
2250,0.009279503481073238,0.8017935578330894
2251,0.009284541213690543,0.8017935578330894
2252,0.009284541213690543,0.801885065885798
2253,0.009289578946307846,0.801885065885798
2254,0.009289578946307846,0.8019765739385066
2255,0.009299654411542452,0.8019765739385066
2256,0.009299654411542452,0.8021595900439239
2257,0.00930972987677706,0.8021595900439239
2258,0.00930972987677706,0.8023426061493412
2259,0.009344994005098185,0.8023426061493412
2260,0.009344994005098185,0.8024341142020498
2261,0.009355069470332792,0.8024341142020498
2262,0.009355069470332792,0.8025256222547584
2263,0.009380258133419311,0.8025256222547584
2264,0.009380258133419311,0.8026171303074671
2265,0.009385295866036614,0.8026171303074671
2266,0.009385295866036614,0.8028001464128843
2267,0.009390333598653917,0.8028001464128843
2268,0.009390333598653917,0.802891654465593
2269,0.009405446796505828,0.802891654465593
2270,0.009405446796505828,0.8031661786237189
2271,0.009420559994357739,0.8031661786237189
2272,0.009420559994357739,0.8032576866764275
2273,0.00943567319220965,0.8032576866764275
2274,0.00943567319220965,0.8033491947291361
2275,0.009455824122678865,0.8033491947291361
2276,0.009455824122678865,0.8035322108345534
2277,0.009470937320530776,0.8035322108345534
2278,0.009470937320530776,0.803623718887262
2279,0.009475975053148079,0.803623718887262
2280,0.009475975053148079,0.8037152269399708
2281,0.009486050518382687,0.8037152269399708
2282,0.009486050518382687,0.803898243045388
2283,0.0095062014488519,0.803898243045388
2284,0.0095062014488519,0.8041727672035139
2285,0.009516276914086508,0.8041727672035139
2286,0.009516276914086508,0.8043557833089312
2287,0.009536427844555722,0.8043557833089312
2288,0.009536427844555722,0.8046303074670571
2289,0.009541465577173025,0.8046303074670571
2290,0.009541465577173025,0.804904831625183
2291,0.009556578775024936,0.804904831625183
2292,0.009556578775024936,0.8049963396778916
2293,0.009561616507642241,0.8049963396778916
2294,0.009561616507642241,0.8050878477306003
2295,0.009566654240259544,0.8050878477306003
2296,0.009566654240259544,0.8051793557833089
2297,0.009596880635963366,0.8051793557833089
2298,0.009596880635963366,0.8052708638360175
2299,0.009601918368580669,0.8052708638360175
2300,0.009601918368580669,0.8053623718887262
2301,0.009622069299049884,0.8053623718887262
2302,0.009622069299049884,0.8054538799414348
2303,0.009642220229519098,0.8054538799414348
2304,0.009642220229519098,0.8056368960468521
2305,0.009667408892605617,0.8056368960468521
2306,0.009667408892605617,0.8058199121522694
2307,0.00967244662522292,0.8058199121522694
2308,0.00967244662522292,0.8059114202049781
2309,0.009697635288309438,0.8059114202049781
2310,0.009697635288309438,0.8060029282576867
2311,0.009707710753544044,0.8060029282576867
2312,0.009707710753544044,0.806185944363104
2313,0.00971274848616135,0.806185944363104
2314,0.00971274848616135,0.8062774524158126
2315,0.009717786218778652,0.8062774524158126
2316,0.009717786218778652,0.8064604685212299
2317,0.009732899416630563,0.8064604685212299
2318,0.009732899416630563,0.8065519765739385
2319,0.009758088079717082,0.8065519765739385
2320,0.009758088079717082,0.8067349926793558
2321,0.009768163544951688,0.8067349926793558
2322,0.009768163544951688,0.8068265007320644
2323,0.009773201277568993,0.8068265007320644
2324,0.009773201277568993,0.806918008784773
2325,0.009788314475420903,0.806918008784773
2326,0.009788314475420903,0.8070095168374817
2327,0.009803427673272814,0.8070095168374817
2328,0.009803427673272814,0.8071010248901903
2329,0.009828616336359331,0.8071010248901903
2330,0.009828616336359331,0.8071925329428989
2331,0.009833654068976634,0.8071925329428989
2332,0.009833654068976634,0.8072840409956076
2333,0.009843729534211242,0.8072840409956076
2334,0.009843729534211242,0.8075585651537335
2335,0.009863880464680456,0.8075585651537335
2336,0.009863880464680456,0.8078330893118595
2337,0.00986891819729776,0.8078330893118595
2338,0.00986891819729776,0.8080161054172768
2339,0.009899144593001582,0.8080161054172768
2340,0.009899144593001582,0.8081076134699854
2341,0.009904182325618885,0.8081076134699854
2342,0.009904182325618885,0.8082906295754027
2343,0.009914257790853493,0.8082906295754027
2344,0.009914257790853493,0.8083821376281113
2345,0.009919295523470796,0.8083821376281113
2346,0.009919295523470796,0.8084736456808199
2347,0.009924333256088099,0.8084736456808199
2348,0.009924333256088099,0.8085651537335286
2349,0.009934408721322707,0.8085651537335286
2350,0.009934408721322707,0.8086566617862372
2351,0.00995455965179192,0.8086566617862372
2352,0.00995455965179192,0.8087481698389458
2353,0.009989823780113047,0.8087481698389458
2354,0.009989823780113047,0.8088396778916545
2355,0.010004936977964958,0.8088396778916545
2356,0.010004936977964958,0.8089311859443631
2357,0.010009974710582261,0.8089311859443631
2358,0.010009974710582261,0.8090226939970717
2359,0.010025087908434172,0.8090226939970717
2360,0.010025087908434172,0.8091142020497804
2361,0.010040201106286083,0.8091142020497804
2362,0.010040201106286083,0.809205710102489
2363,0.010075465234607207,0.809205710102489
2364,0.010075465234607207,0.8092972181551976
2365,0.010080502967224512,0.8092972181551976
2366,0.010080502967224512,0.8094802342606149
2367,0.010085540699841815,0.8094802342606149
2368,0.010085540699841815,0.8095717423133236
2369,0.010095616165076423,0.8095717423133236
2370,0.010095616165076423,0.8099377745241582
2371,0.010100653897693726,0.8099377745241582
2372,0.010100653897693726,0.8100292825768668
2373,0.010115767095545637,0.8100292825768668
2374,0.010115767095545637,0.8101207906295754
2375,0.010130880293397548,0.8101207906295754
2376,0.010130880293397548,0.8102122986822841
2377,0.010145993491249458,0.8102122986822841
2378,0.010145993491249458,0.8103038067349927
2379,0.010156068956484066,0.8103038067349927
2380,0.010156068956484066,0.8103953147877013
2381,0.01016110668910137,0.8103953147877013
2382,0.01016110668910137,0.8106698389458272
2383,0.01017621988695328,0.8106698389458272
2384,0.01017621988695328,0.8107613469985359
2385,0.010181257619570583,0.8107613469985359
2386,0.010181257619570583,0.8109443631039531
2387,0.010191333084805191,0.8109443631039531
2388,0.010191333084805191,0.8111273792093704
2389,0.01021652174789171,0.8111273792093704
2390,0.01021652174789171,0.811218887262079
2391,0.010236672678360923,0.811218887262079
2392,0.010236672678360923,0.8113103953147877
2393,0.010256823608830137,0.8113103953147877
2394,0.010256823608830137,0.8114019033674963
2395,0.010261861341447442,0.8114019033674963
2396,0.010261861341447442,0.8115849194729137
2397,0.010282012271916656,0.8115849194729137
2398,0.010282012271916656,0.8116764275256223
2399,0.010287050004533959,0.8116764275256223
2400,0.010287050004533959,0.8118594436310396
2401,0.010297125469768567,0.8118594436310396
2402,0.010297125469768567,0.8120424597364568
2403,0.010307200935003175,0.8120424597364568
2404,0.010307200935003175,0.8121339677891655
2405,0.010327351865472388,0.8121339677891655
2406,0.010327351865472388,0.8125915080527086
2407,0.010332389598089691,0.8125915080527086
2408,0.010332389598089691,0.8126830161054173
2409,0.0103424650633243,0.8126830161054173
2410,0.0103424650633243,0.8127745241581259
2411,0.010347502795941602,0.8127745241581259
2412,0.010347502795941602,0.8128660322108345
2413,0.010352540528558907,0.8128660322108345
2414,0.010352540528558907,0.8131405563689604
2415,0.01035757826117621,0.8131405563689604
2416,0.01035757826117621,0.8132320644216691
2417,0.010402917854731943,0.8132320644216691
2418,0.010402917854731943,0.8133235724743777
2419,0.010407955587349246,0.8133235724743777
2420,0.010407955587349246,0.8134150805270863
2421,0.010453295180904978,0.8134150805270863
2422,0.010453295180904978,0.8135065885797951
2423,0.010468408378756889,0.8135065885797951
2424,0.010468408378756889,0.8135980966325037
2425,0.01049863477446071,0.8135980966325037
2426,0.01049863477446071,0.8136896046852123
2427,0.010503672507078014,0.8136896046852123
2428,0.010503672507078014,0.813781112737921
2429,0.010513747972312621,0.813781112737921
2430,0.010513747972312621,0.8139641288433382
2431,0.010518785704929924,0.8139641288433382
2432,0.010518785704929924,0.8140556368960469
2433,0.01055404983325105,0.8140556368960469
2434,0.01055404983325105,0.8141471449487555
2435,0.010564125298485657,0.8141471449487555
2436,0.010564125298485657,0.8142386530014641
2437,0.010574200763720265,0.8142386530014641
2438,0.010574200763720265,0.8143301610541728
2439,0.010579238496337568,0.8143301610541728
2440,0.010579238496337568,0.81451317715959
2441,0.01060946489204139,0.81451317715959
2442,0.01060946489204139,0.8146046852122987
2443,0.010619540357275997,0.8146046852122987
2444,0.010619540357275997,0.8146961932650073
2445,0.0106245780898933,0.8146961932650073
2446,0.0106245780898933,0.8147877013177159
2447,0.010639691287745211,0.8147877013177159
2448,0.010639691287745211,0.8148792093704246
2449,0.010644729020362516,0.8148792093704246
2450,0.010644729020362516,0.8149707174231332
2451,0.010654804485597122,0.8149707174231332
2452,0.010654804485597122,0.8150622254758418
2453,0.01066487995083173,0.8150622254758418
2454,0.01066487995083173,0.8151537335285505
2455,0.010685030881300944,0.8151537335285505
2456,0.010685030881300944,0.8152452415812591
2457,0.01070518181177016,0.8152452415812591
2458,0.01070518181177016,0.8153367496339677
2459,0.010710219544387462,0.8153367496339677
2460,0.010710219544387462,0.8154282576866764
2461,0.010715257277004765,0.8154282576866764
2462,0.010715257277004765,0.8155197657393851
2463,0.010725332742239373,0.8155197657393851
2464,0.010725332742239373,0.8157027818448024
2465,0.01073540820747398,0.8157027818448024
2466,0.01073540820747398,0.8160688140556369
2467,0.010775710068412409,0.8160688140556369
2468,0.010775710068412409,0.8161603221083455
2469,0.010816011929350838,0.8161603221083455
2470,0.010816011929350838,0.8162518301610542
2471,0.010876464720758481,0.8162518301610542
2472,0.010876464720758481,0.8166178623718887
2473,0.010891577918610392,0.8166178623718887
2474,0.010891577918610392,0.8167093704245973
2475,0.010901653383844998,0.8167093704245973
2476,0.010901653383844998,0.816800878477306
2477,0.010906691116462303,0.816800878477306
2478,0.010906691116462303,0.8168923865300146
2479,0.010916766581696909,0.8168923865300146
2480,0.010916766581696909,0.8170754026354319
2481,0.010941955244783428,0.8170754026354319
2482,0.010941955244783428,0.8171669106881405
2483,0.01094699297740073,0.8171669106881405
2484,0.01094699297740073,0.8174414348462665
2485,0.010952030710018035,0.8174414348462665
2486,0.010952030710018035,0.8175329428989752
2487,0.010957068442635338,0.8175329428989752
2488,0.010957068442635338,0.8176244509516838
2489,0.010962106175252641,0.8176244509516838
2490,0.010962106175252641,0.8177159590043924
2491,0.010967143907869946,0.8177159590043924
2492,0.010967143907869946,0.8178074670571011
2493,0.010982257105721857,0.8178074670571011
2494,0.010982257105721857,0.8178989751098097
2495,0.01102759669927759,0.8178989751098097
2496,0.01102759669927759,0.8179904831625183
2497,0.0110427098971295,0.8179904831625183
2498,0.0110427098971295,0.8181734992679356
2499,0.011047747629746803,0.8181734992679356
2500,0.011047747629746803,0.8183565153733529
2501,0.011052785362364106,0.8183565153733529
2502,0.011052785362364106,0.8184480234260615
2503,0.011062860827598714,0.8184480234260615
2504,0.011062860827598714,0.8185395314787701
2505,0.011088049490685233,0.8185395314787701
2506,0.011088049490685233,0.8186310395314788
2507,0.011093087223302536,0.8186310395314788
2508,0.011093087223302536,0.818814055636896
2509,0.011108200421154447,0.818814055636896
2510,0.011108200421154447,0.8190885797950219
2511,0.01111323815377175,0.8190885797950219
2512,0.01111323815377175,0.8191800878477306
2513,0.011118275886389055,0.8191800878477306
2514,0.011118275886389055,0.8192715959004392
2515,0.011133389084240965,0.8192715959004392
2516,0.011133389084240965,0.8193631039531479
2517,0.011148502282092876,0.8193631039531479
2518,0.011148502282092876,0.8194546120058566
2519,0.011158577747327482,0.8194546120058566
2520,0.011158577747327482,0.8196376281112738
2521,0.011163615479944787,0.8196376281112738
2522,0.011163615479944787,0.8197291361639825
2523,0.01116865321256209,0.8197291361639825
2524,0.01116865321256209,0.8198206442166911
2525,0.011173690945179393,0.8198206442166911
2526,0.011173690945179393,0.8199121522693997
2527,0.011183766410414001,0.8199121522693997
2528,0.011183766410414001,0.8200036603221084
2529,0.011203917340883215,0.8200036603221084
2530,0.011203917340883215,0.820095168374817
2531,0.011234143736587036,0.820095168374817
2532,0.011234143736587036,0.8203696925329429
2533,0.011244219201821644,0.8203696925329429
2534,0.011244219201821644,0.8207357247437774
2535,0.011249256934438947,0.8207357247437774
2536,0.011249256934438947,0.8208272327964861
2537,0.011264370132290858,0.8208272327964861
2538,0.011264370132290858,0.8209187408491947
2539,0.011269407864908163,0.8209187408491947
2540,0.011269407864908163,0.8210102489019033
2541,0.011274445597525466,0.8210102489019033
2542,0.011274445597525466,0.821101756954612
2543,0.011289558795377377,0.821101756954612
2544,0.011289558795377377,0.8211932650073206
2545,0.011304671993229288,0.8211932650073206
2546,0.011304671993229288,0.8212847730600292
2547,0.01130970972584659,0.8212847730600292
2548,0.01130970972584659,0.8214677891654466
2549,0.011314747458463895,0.8214677891654466
2550,0.011314747458463895,0.8215592972181552
2551,0.011319785191081198,0.8215592972181552
2552,0.011319785191081198,0.8216508052708639
2553,0.011344973854167717,0.8216508052708639
2554,0.011344973854167717,0.8217423133235725
2555,0.01136512478463693,0.8217423133235725
2556,0.01136512478463693,0.8218338213762811
2557,0.011370162517254234,0.8218338213762811
2558,0.011370162517254234,0.8219253294289898
2559,0.011375200249871539,0.8219253294289898
2560,0.011375200249871539,0.8220168374816984
2561,0.011385275715106145,0.8220168374816984
2562,0.011385275715106145,0.822108345534407
2563,0.01139031344772345,0.822108345534407
2564,0.01139031344772345,0.8221998535871157
2565,0.011400388912958056,0.8221998535871157
2566,0.011400388912958056,0.8223828696925329
2567,0.011465879436983002,0.8223828696925329
2568,0.011465879436983002,0.8224743777452416
2569,0.011470917169600307,0.8224743777452416
2570,0.011470917169600307,0.8225658857979502
2571,0.011480992634834913,0.8225658857979502
2572,0.011480992634834913,0.8226573938506588
2573,0.01149106810006952,0.8226573938506588
2574,0.01149106810006952,0.8228404099560761
2575,0.011521294495773342,0.8228404099560761
2576,0.011521294495773342,0.8230234260614934
2577,0.011526332228390645,0.8230234260614934
2578,0.011526332228390645,0.823114934114202
2579,0.01153136996100795,0.823114934114202
2580,0.01153136996100795,0.8232979502196194
2581,0.011581747287180985,0.8232979502196194
2582,0.011581747287180985,0.823389458272328
2583,0.011586785019798288,0.823389458272328
2584,0.011586785019798288,0.8234809663250366
2585,0.0116018982176502,0.8234809663250366
2586,0.0116018982176502,0.8235724743777453
2587,0.011606935950267504,0.8235724743777453
2588,0.011606935950267504,0.8236639824304539
2589,0.011637162345971326,0.8236639824304539
2590,0.011637162345971326,0.8238469985358712
2591,0.01165731327644054,0.8238469985358712
2592,0.01165731327644054,0.8239385065885798
2593,0.011662351009057843,0.8239385065885798
2594,0.011662351009057843,0.8240300146412884
2595,0.011667388741675147,0.8240300146412884
2596,0.011667388741675147,0.8241215226939971
2597,0.011677464206909753,0.8241215226939971
2598,0.011677464206909753,0.8243045387994143
2599,0.011687539672144361,0.8243045387994143
2600,0.011687539672144361,0.8244875549048316
2601,0.011697615137378969,0.8244875549048316
2602,0.011697615137378969,0.8248535871156661
2603,0.011702652869996272,0.8248535871156661
2604,0.011702652869996272,0.8252196193265008
2605,0.011707690602613575,0.8252196193265008
2606,0.011707690602613575,0.8253111273792094
2607,0.01171272833523088,0.8253111273792094
2608,0.01171272833523088,0.8254941434846267
2609,0.011732879265700094,0.8254941434846267
2610,0.011732879265700094,0.8255856515373353
2611,0.011742954730934702,0.8255856515373353
2612,0.011742954730934702,0.825677159590044
2613,0.011758067928786612,0.825677159590044
2614,0.011758067928786612,0.8257686676427526
2615,0.011778218859255826,0.8257686676427526
2616,0.011778218859255826,0.8258601756954612
2617,0.011833633918046167,0.8258601756954612
2618,0.011833633918046167,0.8260431918008785
2619,0.011863860313749988,0.8260431918008785
2620,0.011863860313749988,0.8261346998535871
2621,0.011884011244219202,0.8261346998535871
2622,0.011884011244219202,0.8262262079062958
2623,0.01189408670945381,0.8262262079062958
2624,0.01189408670945381,0.826409224011713
2625,0.011904162174688416,0.826409224011713
2626,0.011904162174688416,0.8265922401171303
2627,0.01190919990730572,0.8265922401171303
2628,0.01190919990730572,0.8269582723279648
2629,0.011919275372540327,0.8269582723279648
2630,0.011919275372540327,0.8270497803806734
2631,0.011949501768244148,0.8270497803806734
2632,0.011949501768244148,0.8271412884333821
2633,0.011954539500861453,0.8271412884333821
2634,0.011954539500861453,0.8273243045387995
2635,0.01196461496609606,0.8273243045387995
2636,0.01196461496609606,0.8274158125915081
2637,0.011974690431330667,0.8274158125915081
2638,0.011974690431330667,0.8275073206442167
2639,0.01199484136179988,0.8275073206442167
2640,0.01199484136179988,0.8275988286969254
2641,0.012050256420590221,0.8275988286969254
2642,0.012050256420590221,0.827690336749634
2643,0.012055294153207524,0.827690336749634
2644,0.012055294153207524,0.8278733528550513
2645,0.012070407351059435,0.8278733528550513
2646,0.012070407351059435,0.8279648609077599
2647,0.012085520548911346,0.8279648609077599
2648,0.012085520548911346,0.8281478770131772
2649,0.012090558281528649,0.8281478770131772
2650,0.012090558281528649,0.8283308931185944
2651,0.012095596014145954,0.8283308931185944
2652,0.012095596014145954,0.8284224011713031
2653,0.012130860142467078,0.8284224011713031
2654,0.012130860142467078,0.8285139092240117
2655,0.012135897875084381,0.8285139092240117
2656,0.012135897875084381,0.8286054172767203
2657,0.012140935607701686,0.8286054172767203
2658,0.012140935607701686,0.8287884333821376
2659,0.012151011072936292,0.8287884333821376
2660,0.012151011072936292,0.8288799414348462
2661,0.012211463864343935,0.8288799414348462
2662,0.012211463864343935,0.8290629575402635
2663,0.012236652527430454,0.8290629575402635
2664,0.012236652527430454,0.8291544655929722
2665,0.012246727992665062,0.8291544655929722
2666,0.012246727992665062,0.8292459736456809
2667,0.012251765725282365,0.8292459736456809
2668,0.012251765725282365,0.8293374816983895
2669,0.012292067586220794,0.8293374816983895
2670,0.012292067586220794,0.8295204978038068
2671,0.012347482645011133,0.8295204978038068
2672,0.012347482645011133,0.829703513909224
2673,0.01235755811024574,0.829703513909224
2674,0.01235755811024574,0.8298865300146413
2675,0.01239785997118417,0.8298865300146413
2676,0.01239785997118417,0.8301610541727672
