,fpr,tpr
0,0.0,0.0
1,0.0,0.0006944444444444445
2,0.0,0.001388888888888889
3,1.6518004625041296e-05,0.001388888888888889
4,1.6518004625041296e-05,0.015277777777777777
5,3.303600925008259e-05,0.015277777777777777
6,3.303600925008259e-05,0.016666666666666666
7,4.955401387512388e-05,0.016666666666666666
8,4.955401387512388e-05,0.06736111111111111
9,6.607201850016519e-05,0.06736111111111111
10,6.607201850016519e-05,0.07708333333333334
11,8.259002312520647e-05,0.07708333333333334
12,8.259002312520647e-05,0.11388888888888889
13,0.00011562603237528906,0.11388888888888889
14,0.00011562603237528906,0.11527777777777778
15,0.00013214403700033037,0.11527777777777778
16,0.00013214403700033037,0.12430555555555556
17,0.00014866204162537167,0.12430555555555556
18,0.00014866204162537167,0.13055555555555556
19,0.00016518004625041294,0.13055555555555556
20,0.00016518004625041294,0.14097222222222222
21,0.00018169805087545423,0.14097222222222222
22,0.00018169805087545423,0.16319444444444445
23,0.00019821605550049553,0.16319444444444445
24,0.00019821605550049553,0.16458333333333333
25,0.00021473406012553683,0.16458333333333333
26,0.00021473406012553683,0.16597222222222222
27,0.00021473406012553683,0.1673611111111111
28,0.00021473406012553683,0.16805555555555557
29,0.00023125206475057812,0.16805555555555557
30,0.00023125206475057812,0.17291666666666666
31,0.00026428807400066074,0.17291666666666666
32,0.00026428807400066074,0.17430555555555555
33,0.000280806078625702,0.17430555555555555
34,0.000280806078625702,0.1840277777777778
35,0.000280806078625702,0.18541666666666667
36,0.000280806078625702,0.19166666666666668
37,0.00029732408325074334,0.19166666666666668
38,0.00029732408325074334,0.19583333333333333
39,0.0003138420878757846,0.19583333333333333
40,0.0003138420878757846,0.2
41,0.0003303600925008259,0.2
42,0.0003303600925008259,0.20069444444444445
43,0.0003303600925008259,0.20208333333333334
44,0.0003303600925008259,0.20277777777777778
45,0.0003468780971258672,0.20277777777777778
46,0.0003468780971258672,0.20833333333333334
47,0.00036339610175090847,0.20833333333333334
48,0.00036339610175090847,0.21319444444444444
49,0.0003799141063759498,0.21319444444444444
50,0.0003799141063759498,0.22013888888888888
51,0.0004129501156260324,0.22013888888888888
52,0.0004129501156260324,0.23055555555555557
53,0.0004129501156260324,0.23194444444444445
54,0.0004129501156260324,0.24722222222222223
55,0.0004129501156260324,0.24861111111111112
56,0.0004129501156260324,0.25416666666666665
57,0.00042946812025107365,0.25416666666666665
58,0.00042946812025107365,0.2569444444444444
59,0.000445986124876115,0.2569444444444444
60,0.000445986124876115,0.2659722222222222
61,0.0004955401387512388,0.2659722222222222
62,0.0004955401387512388,0.2722222222222222
63,0.0005120581433762802,0.2722222222222222
64,0.0005120581433762802,0.27361111111111114
65,0.0005120581433762802,0.275
66,0.0005120581433762802,0.2833333333333333
67,0.0005285761480013215,0.2833333333333333
68,0.0005285761480013215,0.2875
69,0.0005450941526263627,0.2875
70,0.0005450941526263627,0.29305555555555557
71,0.000561612157251404,0.29305555555555557
72,0.000561612157251404,0.2951388888888889
73,0.0005781301618764453,0.2951388888888889
74,0.0005781301618764453,0.2972222222222222
75,0.0005946481665014867,0.2972222222222222
76,0.0005946481665014867,0.30694444444444446
77,0.0006111661711265279,0.30694444444444446
78,0.0006111661711265279,0.3138888888888889
79,0.0006276841757515692,0.3138888888888889
80,0.0006276841757515692,0.3173611111111111
81,0.0006442021803766105,0.3173611111111111
82,0.0006442021803766105,0.3229166666666667
83,0.0006607201850016518,0.3229166666666667
84,0.0006607201850016518,0.3236111111111111
85,0.0006772381896266931,0.3236111111111111
86,0.0006772381896266931,0.32708333333333334
87,0.0006937561942517344,0.32708333333333334
88,0.0006937561942517344,0.3277777777777778
89,0.0007102741988767757,0.3277777777777778
90,0.0007102741988767757,0.3326388888888889
91,0.0007433102081268583,0.3326388888888889
92,0.0007433102081268583,0.3333333333333333
93,0.0007433102081268583,0.3347222222222222
94,0.0007433102081268583,0.34305555555555556
95,0.0007598282127518996,0.34375
96,0.0007598282127518996,0.3458333333333333
97,0.0007763462173769409,0.3458333333333333
98,0.0007763462173769409,0.34791666666666665
99,0.0007928642220019821,0.34791666666666665
100,0.0007928642220019821,0.35
101,0.0008093822266270234,0.35
102,0.0008093822266270234,0.35138888888888886
103,0.0008259002312520648,0.35138888888888886
104,0.0008259002312520648,0.3625
105,0.0008424182358771061,0.3625
106,0.0008424182358771061,0.36319444444444443
107,0.0008754542451271886,0.36319444444444443
108,0.0008754542451271886,0.3763888888888889
109,0.0009250082590023125,0.3763888888888889
110,0.0009250082590023125,0.37777777777777777
111,0.0009415262636273538,0.37777777777777777
112,0.0009415262636273538,0.38680555555555557
113,0.0009580442682523951,0.38680555555555557
114,0.0009580442682523951,0.3923611111111111
115,0.0009745622728774364,0.3923611111111111
116,0.0009745622728774364,0.39791666666666664
117,0.0009910802775024777,0.39791666666666664
118,0.0009910802775024777,0.40347222222222223
119,0.001007598282127519,0.40347222222222223
120,0.001007598282127519,0.4048611111111111
121,0.0010241162867525603,0.4048611111111111
122,0.0010241162867525603,0.4125
123,0.001057152296002643,0.4125
124,0.001057152296002643,0.41458333333333336
125,0.001073670300627684,0.41458333333333336
126,0.001073670300627684,0.4152777777777778
127,0.0011067063098777667,0.4152777777777778
128,0.0011067063098777667,0.41875
129,0.001123224314502808,0.41875
130,0.001123224314502808,0.4201388888888889
131,0.001123224314502808,0.42083333333333334
132,0.0011397423191278494,0.42083333333333334
133,0.0011397423191278494,0.4236111111111111
134,0.0011562603237528907,0.4236111111111111
135,0.0011562603237528907,0.425
136,0.0011562603237528907,0.43125
137,0.001172778328377932,0.43125
138,0.001172778328377932,0.4465277777777778
139,0.0012058143376280145,0.4465277777777778
140,0.0012058143376280145,0.44722222222222224
141,0.001238850346878097,0.44722222222222224
142,0.001238850346878097,0.4479166666666667
143,0.0012553683515031384,0.4479166666666667
144,0.0012553683515031384,0.4486111111111111
145,0.0012718863561281797,0.4486111111111111
146,0.0012718863561281797,0.45069444444444445
147,0.001288404360753221,0.45069444444444445
148,0.001288404360753221,0.45625
149,0.0013049223653782624,0.45625
150,0.0013049223653782624,0.45694444444444443
151,0.0013214403700033035,0.45694444444444443
152,0.0013214403700033035,0.4583333333333333
153,0.0013214403700033035,0.4597222222222222
154,0.0013214403700033035,0.46041666666666664
155,0.0013379583746283448,0.46041666666666664
156,0.0013379583746283448,0.46319444444444446
157,0.0013544763792533861,0.46319444444444446
158,0.0013544763792533861,0.4638888888888889
159,0.0013709943838784275,0.4638888888888889
160,0.0013709943838784275,0.46597222222222223
161,0.0013875123885034688,0.46597222222222223
162,0.0013875123885034688,0.4708333333333333
163,0.0014040303931285101,0.4708333333333333
164,0.0014040303931285101,0.4736111111111111
165,0.0014370664023785928,0.4736111111111111
166,0.0014370664023785928,0.47430555555555554
167,0.0014535844070036339,0.47430555555555554
168,0.0014701024116286752,0.475
169,0.0014866204162537165,0.475
170,0.0014866204162537165,0.4756944444444444
171,0.0015031384208787578,0.4756944444444444
172,0.0015031384208787578,0.4798611111111111
173,0.0015196564255037992,0.4798611111111111
174,0.0015196564255037992,0.48125
175,0.0015361744301288405,0.48125
176,0.0015361744301288405,0.48194444444444445
177,0.0015526924347538818,0.48194444444444445
178,0.0015857284440039642,0.48194444444444445
179,0.0016022464486290056,0.48194444444444445
180,0.0016022464486290056,0.48333333333333334
181,0.001618764453254047,0.48333333333333334
182,0.001618764453254047,0.4847222222222222
183,0.001618764453254047,0.4861111111111111
184,0.0016518004625041295,0.4861111111111111
185,0.0016518004625041295,0.4875
186,0.0016848364717542122,0.4875
187,0.0016848364717542122,0.48819444444444443
188,0.0017013544763792533,0.48819444444444443
189,0.0017013544763792533,0.4888888888888889
190,0.001734390485629336,0.4888888888888889
191,0.001734390485629336,0.49166666666666664
192,0.0017674264948794186,0.49166666666666664
193,0.0017674264948794186,0.4930555555555556
194,0.00178394449950446,0.4930555555555556
195,0.00178394449950446,0.49375
196,0.0018004625041295012,0.49375
197,0.0018004625041295012,0.4951388888888889
198,0.0018169805087545426,0.4951388888888889
199,0.0018169805087545426,0.49583333333333335
200,0.0018334985133795837,0.49583333333333335
201,0.0018334985133795837,0.4986111111111111
202,0.001850016518004625,0.4986111111111111
203,0.001850016518004625,0.49930555555555556
204,0.0018665345226296663,0.49930555555555556
205,0.0018665345226296663,0.5020833333333333
206,0.0018830525272547076,0.5020833333333333
207,0.0018830525272547076,0.5034722222222222
208,0.0019160885365047903,0.5034722222222222
209,0.0019160885365047903,0.5041666666666667
210,0.0019326065411298316,0.5041666666666667
211,0.0019326065411298316,0.5048611111111111
212,0.001965642550379914,0.5048611111111111
213,0.001965642550379914,0.50625
214,0.0019986785596299967,0.50625
215,0.0019986785596299967,0.5069444444444444
216,0.002015196564255038,0.5069444444444444
217,0.002015196564255038,0.5090277777777777
218,0.0020317145688800793,0.5090277777777777
219,0.0020317145688800793,0.5118055555555555
220,0.0020482325735051207,0.5118055555555555
221,0.0020482325735051207,0.5194444444444445
222,0.002064750578130162,0.5194444444444445
223,0.0020977865873802446,0.5194444444444445
224,0.0020977865873802446,0.5229166666666667
225,0.002114304592005286,0.5229166666666667
226,0.002114304592005286,0.5236111111111111
227,0.0021638586058804095,0.5236111111111111
228,0.0021638586058804095,0.5243055555555556
229,0.002180376610505451,0.5243055555555556
230,0.002180376610505451,0.525
231,0.002196894615130492,0.525
232,0.002196894615130492,0.5256944444444445
233,0.0022134126197555335,0.5256944444444445
234,0.0022134126197555335,0.5277777777777778
235,0.0022299306243805748,0.5277777777777778
236,0.0022299306243805748,0.5298611111111111
237,0.0022629666336306574,0.5298611111111111
238,0.0022629666336306574,0.5305555555555556
239,0.00229600264288074,0.5305555555555556
240,0.00229600264288074,0.5326388888888889
241,0.0023125206475057814,0.5326388888888889
242,0.0023125206475057814,0.5333333333333333
243,0.002345556656755864,0.5333333333333333
244,0.002345556656755864,0.5368055555555555
245,0.0023620746613809054,0.5368055555555555
246,0.0023620746613809054,0.5416666666666666
247,0.0023785926660059467,0.5416666666666666
248,0.0023785926660059467,0.5465277777777777
249,0.0023951106706309876,0.5465277777777777
250,0.0023951106706309876,0.5472222222222223
251,0.002411628675256029,0.5472222222222223
252,0.002411628675256029,0.5479166666666667
253,0.0024281466798810702,0.5479166666666667
254,0.0024281466798810702,0.55
255,0.0025437727122563595,0.55
256,0.0025437727122563595,0.5520833333333334
257,0.002560290716881401,0.5520833333333334
258,0.002560290716881401,0.5534722222222223
259,0.002576808721506442,0.5534722222222223
260,0.002576808721506442,0.5541666666666667
261,0.002609844730756525,0.5541666666666667
262,0.002609844730756525,0.55625
263,0.002741988767756855,0.55625
264,0.002741988767756855,0.5604166666666667
265,0.0027585067723818963,0.5604166666666667
266,0.0027585067723818963,0.5638888888888889
267,0.002791542781631979,0.5638888888888889
268,0.002791542781631979,0.5652777777777778
269,0.0028245787908820616,0.5652777777777778
270,0.0028245787908820616,0.5659722222222222
271,0.002841096795507103,0.5659722222222222
272,0.002841096795507103,0.5666666666666667
273,0.002973240832507433,0.5666666666666667
274,0.002973240832507433,0.5673611111111111
275,0.0029897588371324744,0.5673611111111111
276,0.0029897588371324744,0.56875
277,0.0030062768417575157,0.56875
278,0.0030062768417575157,0.5701388888888889
279,0.0030393128510075983,0.5701388888888889
280,0.0030393128510075983,0.5708333333333333
281,0.003121902874132805,0.5708333333333333
282,0.003121902874132805,0.5715277777777777
283,0.003138420878757846,0.5715277777777777
284,0.003138420878757846,0.5729166666666666
285,0.003138420878757846,0.5736111111111111
286,0.003154938883382887,0.5736111111111111
287,0.003154938883382887,0.575
288,0.003204492897258011,0.575
289,0.003204492897258011,0.5756944444444444
290,0.003254046911133135,0.5756944444444444
291,0.003254046911133135,0.5770833333333333
292,0.0032870829203832178,0.5770833333333333
293,0.0032870829203832178,0.5798611111111112
294,0.003303600925008259,0.5798611111111112
295,0.003303600925008259,0.5819444444444445
296,0.0033201189296333004,0.5819444444444445
297,0.0033201189296333004,0.5826388888888889
298,0.0033366369342583417,0.5826388888888889
299,0.0033366369342583417,0.5861111111111111
300,0.003353154938883383,0.5861111111111111
301,0.003353154938883383,0.5868055555555556
302,0.0033696729435084244,0.5868055555555556
303,0.0033696729435084244,0.5881944444444445
304,0.0034027089527585066,0.5881944444444445
305,0.0034027089527585066,0.5909722222222222
306,0.003419226957383548,0.5909722222222222
307,0.003419226957383548,0.5916666666666667
308,0.0034357449620085892,0.5916666666666667
309,0.0034357449620085892,0.59375
310,0.003468780971258672,0.59375
311,0.003468780971258672,0.5944444444444444
312,0.003485298975883713,0.5944444444444444
313,0.003485298975883713,0.5951388888888889
314,0.003518334985133796,0.5951388888888889
315,0.003518334985133796,0.5958333333333333
316,0.003534852989758837,0.5958333333333333
317,0.003534852989758837,0.5965277777777778
318,0.0035513709943838785,0.5965277777777778
319,0.0035513709943838785,0.5986111111111111
320,0.003584407003633961,0.5986111111111111
321,0.003584407003633961,0.6013888888888889
322,0.0036009250082590025,0.6013888888888889
323,0.0036009250082590025,0.6027777777777777
324,0.003617443012884044,0.6027777777777777
325,0.003617443012884044,0.6041666666666666
326,0.003633961017509085,0.6041666666666666
327,0.003633961017509085,0.6055555555555555
328,0.003650479022134126,0.6055555555555555
329,0.003650479022134126,0.60625
330,0.0036669970267591673,0.60625
331,0.0036669970267591673,0.6083333333333333
332,0.0036835150313842087,0.6083333333333333
333,0.0036835150313842087,0.6090277777777777
334,0.00370003303600925,0.6090277777777777
335,0.00370003303600925,0.6118055555555556
336,0.0037165510406342913,0.6118055555555556
337,0.0037165510406342913,0.6131944444444445
338,0.0037661050545094153,0.6131944444444445
339,0.0037661050545094153,0.6138888888888889
340,0.0037826230591344566,0.6138888888888889
341,0.0037826230591344566,0.6152777777777778
342,0.003799141063759498,0.6152777777777778
343,0.003799141063759498,0.6159722222222223
344,0.0038156590683845392,0.6159722222222223
345,0.0038156590683845392,0.6166666666666667
346,0.0038321770730095806,0.6166666666666667
347,0.0038321770730095806,0.6173611111111111
348,0.003848695077634622,0.6173611111111111
349,0.003848695077634622,0.61875
350,0.0038817310868847045,0.61875
351,0.0038817310868847045,0.6194444444444445
352,0.003914767096134787,0.6194444444444445
353,0.003914767096134787,0.6201388888888889
354,0.00394780310538487,0.6201388888888889
355,0.00394780310538487,0.6222222222222222
356,0.0039808391146349525,0.6222222222222222
357,0.0039808391146349525,0.6229166666666667
358,0.003997357119259993,0.6229166666666667
359,0.003997357119259993,0.6236111111111111
360,0.004013875123885034,0.6236111111111111
361,0.004013875123885034,0.6243055555555556
362,0.004063429137760159,0.6243055555555556
363,0.004063429137760159,0.6263888888888889
364,0.004112983151635282,0.6263888888888889
365,0.004112983151635282,0.6270833333333333
366,0.004129501156260324,0.6270833333333333
367,0.004129501156260324,0.6291666666666667
368,0.004294681202510736,0.6291666666666667
369,0.004294681202510736,0.6298611111111111
370,0.004360753221010902,0.6298611111111111
371,0.004360753221010902,0.63125
372,0.004377271225635943,0.63125
373,0.004377271225635943,0.6319444444444444
374,0.004393789230260984,0.6319444444444444
375,0.004393789230260984,0.6368055555555555
376,0.004426825239511067,0.6368055555555555
377,0.004426825239511067,0.6375
378,0.004443343244136109,0.6375
379,0.004443343244136109,0.6381944444444444
380,0.004476379253386191,0.6381944444444444
381,0.004476379253386191,0.6388888888888888
382,0.004492897258011232,0.6388888888888888
383,0.004492897258011232,0.6395833333333333
384,0.004509415262636274,0.6395833333333333
385,0.004509415262636274,0.6402777777777777
386,0.004525933267261315,0.6402777777777777
387,0.004525933267261315,0.6416666666666667
388,0.004575487281136438,0.6416666666666667
389,0.004575487281136438,0.6423611111111112
390,0.004641559299636604,0.6423611111111112
391,0.004641559299636604,0.6430555555555556
392,0.004674595308886686,0.6430555555555556
393,0.004674595308886686,0.64375
394,0.004724149322761811,0.64375
395,0.004724149322761811,0.6444444444444445
396,0.0048397753551371,0.6444444444444445
397,0.0048397753551371,0.6451388888888889
398,0.004905847373637265,0.6451388888888889
399,0.004905847373637265,0.6458333333333334
400,0.0049388833828873475,0.6458333333333334
401,0.0049388833828873475,0.6465277777777778
402,0.00497191939213743,0.6465277777777778
403,0.00497191939213743,0.6472222222222223
404,0.005021473406012554,0.6472222222222223
405,0.005021473406012554,0.6479166666666667
406,0.0051370994383878425,0.6479166666666667
407,0.0051370994383878425,0.6493055555555556
408,0.005285761480013214,0.6493055555555556
409,0.005285761480013214,0.65
410,0.005351833498513379,0.65
411,0.005351833498513379,0.6506944444444445
412,0.005500495540138752,0.6506944444444445
413,0.005500495540138752,0.6520833333333333
414,0.0055170135447637925,0.6520833333333333
415,0.0055170135447637925,0.6534722222222222
416,0.005533531549388833,0.6534722222222222
417,0.005533531549388833,0.6541666666666667
418,0.005550049554013875,0.6541666666666667
419,0.005550049554013875,0.6548611111111111
420,0.005566567558638916,0.6548611111111111
421,0.005566567558638916,0.6555555555555556
422,0.005682193591014206,0.6555555555555556
423,0.005682193591014206,0.65625
424,0.005764783614139412,0.65625
425,0.005764783614139412,0.6569444444444444
426,0.0058143376280145355,0.6569444444444444
427,0.0058143376280145355,0.6583333333333333
428,0.0058143376280145355,0.6590277777777778
429,0.00586389164188966,0.6590277777777778
430,0.00586389164188966,0.6597222222222222
431,0.005962999669639908,0.6597222222222222
432,0.005962999669639908,0.6604166666666667
433,0.006045589692765114,0.6604166666666667
434,0.006045589692765114,0.6618055555555555
435,0.006062107697390155,0.6618055555555555
436,0.006062107697390155,0.6638888888888889
437,0.006078625702015197,0.6638888888888889
438,0.006078625702015197,0.6652777777777777
439,0.006161215725140403,0.6652777777777777
440,0.006161215725140403,0.6659722222222222
441,0.006177733729765445,0.6659722222222222
442,0.006177733729765445,0.6666666666666666
443,0.0061942517343904855,0.6666666666666666
444,0.0061942517343904855,0.6673611111111111
445,0.006227287743640568,0.6673611111111111
446,0.006227287743640568,0.6680555555555555
447,0.006276841757515692,0.6680555555555555
448,0.006276841757515692,0.66875
449,0.006342913776015857,0.66875
450,0.006342913776015857,0.6694444444444444
451,0.0067723818962669305,0.6694444444444444
452,0.0067723818962669305,0.6708333333333333
453,0.006788899900891972,0.6708333333333333
454,0.006788899900891972,0.6715277777777777
455,0.006821935910142055,0.6715277777777777
456,0.006821935910142055,0.6729166666666667
457,0.006838453914767096,0.6729166666666667
458,0.006838453914767096,0.6736111111111112
459,0.0068714899240171785,0.6736111111111112
460,0.0068714899240171785,0.6763888888888889
461,0.00688800792864222,0.6763888888888889
462,0.00688800792864222,0.6770833333333334
463,0.006937561942517344,0.6770833333333334
464,0.006970597951767426,0.6770833333333334
465,0.007102741988767757,0.6770833333333334
466,0.007102741988767757,0.6777777777777778
467,0.007119259993392798,0.6777777777777778
468,0.007119259993392798,0.6784722222222223
469,0.007234886025768088,0.6784722222222223
470,0.007234886025768088,0.6791666666666667
471,0.00726792203501817,0.6791666666666667
472,0.00726792203501817,0.6805555555555556
473,0.007284440039643211,0.6805555555555556
474,0.007284440039643211,0.68125
475,0.007350512058143376,0.68125
476,0.007350512058143376,0.6819444444444445
477,0.007466138090518665,0.6819444444444445
478,0.007466138090518665,0.6826388888888889
479,0.007565246118268913,0.6826388888888889
480,0.007565246118268913,0.6840277777777778
481,0.0076313181367690785,0.6840277777777778
482,0.0076313181367690785,0.6854166666666667
483,0.007647836141394119,0.6854166666666667
484,0.007647836141394119,0.6861111111111111
485,0.007697390155269244,0.6861111111111111
486,0.007697390155269244,0.6875
487,0.007730426164519326,0.6875
488,0.007730426164519326,0.6881944444444444
489,0.007763462173769409,0.6881944444444444
490,0.007763462173769409,0.6888888888888889
491,0.00777998017839445,0.6888888888888889
492,0.00777998017839445,0.6902777777777778
493,0.007796498183019491,0.6902777777777778
494,0.007796498183019491,0.6916666666666667
495,0.007813016187644533,0.6916666666666667
496,0.007813016187644533,0.6951388888888889
497,0.007862570201519656,0.6951388888888889
498,0.007862570201519656,0.6958333333333333
499,0.007879088206144698,0.6958333333333333
500,0.007879088206144698,0.6965277777777777
501,0.00791212421539478,0.6965277777777777
502,0.00791212421539478,0.6979166666666666
503,0.007928642220019821,0.6979166666666666
504,0.007928642220019821,0.6993055555555555
505,0.008060786257020152,0.6993055555555555
506,0.008060786257020152,0.7006944444444444
507,0.008126858275520317,0.7006944444444444
508,0.008126858275520317,0.7013888888888888
509,0.008192930294020483,0.7013888888888888
510,0.008192930294020483,0.7027777777777777
511,0.008391146349520979,0.7027777777777777
512,0.008391146349520979,0.7041666666666667
513,0.00842418235877106,0.7041666666666667
514,0.00842418235877106,0.70625
515,0.008440700363396102,0.70625
516,0.008473736372646184,0.70625
517,0.00880409646514701,0.70625
518,0.00880409646514701,0.7069444444444445
519,0.008853650479022134,0.7069444444444445
520,0.008853650479022134,0.7076388888888889
521,0.008870168483647176,0.7076388888888889
522,0.008870168483647176,0.7083333333333334
523,0.008886686488272217,0.7083333333333334
524,0.008886686488272217,0.7090277777777778
525,0.008903204492897257,0.7090277777777778
526,0.008903204492897257,0.7104166666666667
527,0.008952758506772383,0.7104166666666667
528,0.008952758506772383,0.7111111111111111
529,0.009035348529897588,0.7111111111111111
530,0.009035348529897588,0.7125
531,0.009068384539147671,0.7125
532,0.009068384539147671,0.7131944444444445
533,0.009117938553022795,0.7131944444444445
534,0.009117938553022795,0.7138888888888889
535,0.009150974562272877,0.7138888888888889
536,0.009150974562272877,0.7145833333333333
537,0.009250082590023126,0.7145833333333333
538,0.009250082590023126,0.7173611111111111
539,0.009299636603898249,0.7173611111111111
540,0.009299636603898249,0.7180555555555556
541,0.009316154608523291,0.7180555555555556
542,0.009316154608523291,0.7201388888888889
543,0.00958044268252395,0.7201388888888889
544,0.00958044268252395,0.7208333333333333
545,0.009778658738024446,0.7208333333333333
546,0.009778658738024446,0.7215277777777778
547,0.009795176742649488,0.7215277777777778
548,0.009795176742649488,0.7222222222222222
549,0.009844730756524612,0.7222222222222222
550,0.009844730756524612,0.7229166666666667
551,0.009861248761149653,0.7229166666666667
552,0.009861248761149653,0.7243055555555555
553,0.009894284770399735,0.7243055555555555
554,0.009894284770399735,0.7256944444444444
555,0.009993392798149984,0.7256944444444444
556,0.009993392798149984,0.7263888888888889
557,0.010257680872150645,0.7263888888888889
558,0.010257680872150645,0.7277777777777777
559,0.010422860918401057,0.7277777777777777
560,0.010422860918401057,0.7298611111111111
561,0.01058804096465147,0.7298611111111111
562,0.01058804096465147,0.7305555555555555
563,0.01083581103402709,0.7305555555555555
564,0.01083581103402709,0.7326388888888888
565,0.010918401057152296,0.7326388888888888
566,0.010918401057152296,0.7333333333333333
567,0.01110009910802775,0.7333333333333333
568,0.01110009910802775,0.7340277777777777
569,0.011199207135777997,0.7340277777777777
570,0.011199207135777997,0.7361111111111112
571,0.011248761149653123,0.7361111111111112
572,0.011248761149653123,0.7368055555555556
573,0.011546085232903866,0.7368055555555556
574,0.011546085232903866,0.7375
575,0.01159563924677899,0.7375
576,0.01159563924677899,0.7388888888888889
577,0.011612157251404031,0.7388888888888889
578,0.011612157251404031,0.7395833333333334
579,0.011645193260654113,0.7395833333333334
580,0.011645193260654113,0.7402777777777778
581,0.01172778328377932,0.7402777777777778
582,0.01172778328377932,0.7409722222222223
583,0.011777337297654443,0.7409722222222223
584,0.011777337297654443,0.7416666666666667
585,0.011909481334654774,0.7416666666666667
586,0.011909481334654774,0.7423611111111111
587,0.011925999339279816,0.7423611111111111
588,0.011925999339279816,0.7430555555555556
589,0.01197555335315494,0.7430555555555556
590,0.01197555335315494,0.74375
591,0.01212421539478031,0.74375
592,0.01212421539478031,0.7458333333333333
593,0.01235546745953089,0.7458333333333333
594,0.01235546745953089,0.7465277777777778
595,0.012603237528906509,0.7465277777777778
596,0.012603237528906509,0.7472222222222222
597,0.012619755533531549,0.7472222222222222
598,0.012619755533531549,0.7479166666666667
599,0.012652791542781632,0.7479166666666667
600,0.012652791542781632,0.7486111111111111
601,0.012669309547406674,0.7486111111111111
602,0.012669309547406674,0.7493055555555556
603,0.012851007598282128,0.7493055555555556
604,0.012851007598282128,0.7506944444444444
605,0.01288404360753221,0.7506944444444444
606,0.01288404360753221,0.7513888888888889
607,0.012900561612157252,0.7513888888888889
608,0.012900561612157252,0.7520833333333333
609,0.012999669639907499,0.7520833333333333
610,0.012999669639907499,0.7527777777777778
611,0.01301618764453254,0.7527777777777778
612,0.01301618764453254,0.7534722222222222
613,0.013181367690782953,0.7534722222222222
614,0.013181367690782953,0.7541666666666667
615,0.013230921704658078,0.7541666666666667
616,0.01326395771390816,0.7541666666666667
617,0.01326395771390816,0.7548611111111111
618,0.013296993723158242,0.7548611111111111
619,0.013296993723158242,0.7555555555555555
620,0.01339610175090849,0.7555555555555555
621,0.01339610175090849,0.75625
622,0.013495209778658738,0.75625
623,0.013495209778658738,0.7576388888888889
624,0.013610835811034026,0.7576388888888889
625,0.013610835811034026,0.7583333333333333
626,0.013660389824909152,0.7583333333333333
627,0.013660389824909152,0.7590277777777777
628,0.013693425834159233,0.7590277777777777
629,0.013693425834159233,0.7604166666666666
630,0.013759497852659399,0.7604166666666666
631,0.013759497852659399,0.7611111111111111
632,0.01377601585728444,0.7611111111111111
633,0.01377601585728444,0.7618055555555555
634,0.013858605880409646,0.7618055555555555
635,0.013858605880409646,0.7625
636,0.013990749917409976,0.7625
637,0.013990749917409976,0.7638888888888888
638,0.014073339940535183,0.7638888888888888
639,0.014073339940535183,0.7645833333333333
640,0.014222001982160556,0.7645833333333333
641,0.014222001982160556,0.7652777777777777
642,0.01427155599603568,0.7652777777777777
643,0.01427155599603568,0.7659722222222223
644,0.014337628014535845,0.7659722222222223
645,0.014337628014535845,0.7666666666666667
646,0.014469772051536175,0.7666666666666667
647,0.014469772051536175,0.7673611111111112
648,0.014585398083911464,0.7673611111111112
649,0.014585398083911464,0.7680555555555556
650,0.014618434093161546,0.7680555555555556
651,0.014618434093161546,0.76875
652,0.014634952097786588,0.76875
653,0.014634952097786588,0.7694444444444445
654,0.014701024116286753,0.7694444444444445
655,0.014701024116286753,0.7708333333333334
656,0.014767096134786918,0.7708333333333334
657,0.014767096134786918,0.7715277777777778
658,0.014816650148662042,0.7715277777777778
659,0.014849686157912123,0.7715277777777778
660,0.015113974231912785,0.7715277777777778
661,0.015113974231912785,0.7722222222222223
662,0.015328708292038322,0.7722222222222223
663,0.015328708292038322,0.7729166666666667
664,0.015361744301288404,0.7729166666666667
665,0.015361744301288404,0.7736111111111111
666,0.015526924347538818,0.7736111111111111
667,0.015526924347538818,0.7743055555555556
668,0.015626032375289065,0.7743055555555556
669,0.015626032375289065,0.7756944444444445
670,0.01567558638916419,0.7756944444444445
671,0.01567558638916419,0.7770833333333333
672,0.015758176412289396,0.7770833333333333
673,0.015758176412289396,0.7777777777777778
674,0.015774694416914436,0.7777777777777778
675,0.015774694416914436,0.7784722222222222
676,0.015857284440039643,0.7784722222222222
677,0.015857284440039643,0.7791666666666667
678,0.016055500495540137,0.7791666666666667
679,0.016055500495540137,0.7798611111111111
680,0.01620416253716551,0.7798611111111111
681,0.01620416253716551,0.7805555555555556
682,0.016270234555665675,0.7805555555555556
683,0.016270234555665675,0.78125
684,0.016319788569540798,0.78125
685,0.016319788569540798,0.7819444444444444
686,0.01633630657416584,0.7819444444444444
687,0.01633630657416584,0.7826388888888889
688,0.016749256689791873,0.7826388888888889
689,0.016749256689791873,0.7833333333333333
690,0.017046580773042618,0.7833333333333333
691,0.017046580773042618,0.7840277777777778
692,0.017079616782292698,0.7840277777777778
693,0.017079616782292698,0.7847222222222222
694,0.017393458870168483,0.7847222222222222
695,0.017393458870168483,0.7854166666666667
696,0.01745953088866865,0.7854166666666667
697,0.01747604889329369,0.7861111111111111
698,0.017525602907168814,0.7861111111111111
699,0.017525602907168814,0.7868055555555555
700,0.017542120911793857,0.7868055555555555
701,0.017542120911793857,0.7875
702,0.01759167492566898,0.7875
703,0.01759167492566898,0.7881944444444444
704,0.017674264948794184,0.7881944444444444
705,0.017674264948794184,0.7888888888888889
706,0.017773372976544435,0.7888888888888889
707,0.017773372976544435,0.7895833333333333
708,0.017888999008919722,0.7895833333333333
709,0.017888999008919722,0.7902777777777777
710,0.017922035018169805,0.7902777777777777
711,0.01795507102741989,0.7902777777777777
712,0.018169805087545423,0.7902777777777777
713,0.018169805087545423,0.7909722222222222
714,0.018202841096795506,0.7909722222222222
715,0.018202841096795506,0.7916666666666666
716,0.01836802114304592,0.7916666666666666
717,0.01836802114304592,0.7923611111111111
718,0.018401057152296004,0.7923611111111111
719,0.018401057152296004,0.79375
720,0.018434093161546084,0.79375
721,0.018434093161546084,0.7944444444444444
722,0.018450611166171128,0.7944444444444444
723,0.018450611166171128,0.7958333333333333
724,0.018467129170796168,0.7958333333333333
725,0.018467129170796168,0.7965277777777777
726,0.018599273207796498,0.7965277777777777
727,0.018599273207796498,0.7972222222222223
728,0.01861579121242154,0.7972222222222223
729,0.018648827221671622,0.7972222222222223
730,0.018648827221671622,0.7979166666666667
731,0.018764453254046912,0.7979166666666667
732,0.018764453254046912,0.7986111111111112
733,0.018780971258671952,0.7986111111111112
734,0.018780971258671952,0.7993055555555556
735,0.018896597291047243,0.7993055555555556
736,0.018896597291047243,0.8006944444444445
737,0.019177403369672944,0.8006944444444445
738,0.019177403369672944,0.8013888888888889
739,0.019458209448298645,0.8013888888888889
740,0.019458209448298645,0.8027777777777778
741,0.019689461513049223,0.8027777777777778
742,0.019689461513049223,0.8034722222222223
743,0.019805087545424514,0.8034722222222223
744,0.019838123554674594,0.8034722222222223
745,0.019937231582424844,0.8034722222222223
746,0.019937231582424844,0.8041666666666667
747,0.020697059795176744,0.8041666666666667
748,0.020697059795176744,0.8048611111111111
749,0.020845721836802115,0.8048611111111111
750,0.0208787578460522,0.8048611111111111
751,0.021093491906177732,0.8048611111111111
752,0.021093491906177732,0.8055555555555556
753,0.02117608192930294,0.8055555555555556
754,0.02117608192930294,0.80625
755,0.02142385199867856,0.80625
756,0.02142385199867856,0.8069444444444445
757,0.02145688800792864,0.8069444444444445
758,0.021489924017178724,0.8069444444444445
759,0.021688140072679222,0.8069444444444445
760,0.021688140072679222,0.8076388888888889
761,0.021836802114304592,0.8076388888888889
762,0.021836802114304592,0.8083333333333333
763,0.02206805417905517,0.8083333333333333
764,0.02206805417905517,0.8090277777777778
765,0.022365378262305915,0.8090277777777778
766,0.022365378262305915,0.8097222222222222
767,0.022646184340931616,0.8097222222222222
768,0.022646184340931616,0.8104166666666667
769,0.022794846382556987,0.8104166666666667
770,0.022794846382556987,0.8111111111111111
771,0.02319127849355798,0.8111111111111111
772,0.02319127849355798,0.8118055555555556
773,0.023372976544433433,0.8118055555555556
774,0.023406012553683516,0.8118055555555556
775,0.023653782623059134,0.8118055555555556
776,0.023653782623059134,0.8125
777,0.023934588701684835,0.8125
778,0.023934588701684835,0.8131944444444444
779,0.024264948794185663,0.8131944444444444
780,0.024281466798810703,0.8138888888888889
781,0.02462834489593657,0.8138888888888889
782,0.02462834489593657,0.8145833333333333
783,0.024777006937561942,0.8145833333333333
784,0.024777006937561942,0.8152777777777778
785,0.02487611496531219,0.8152777777777778
786,0.02487611496531219,0.8159722222222222
787,0.025057813016187643,0.8159722222222222
788,0.025057813016187643,0.8166666666666667
789,0.025553353154938882,0.8166666666666667
790,0.025553353154938882,0.8173611111111111
791,0.025569871159563926,0.8173611111111111
792,0.025569871159563926,0.81875
793,0.02561942517343905,0.81875
794,0.02561942517343905,0.8194444444444444
795,0.025867195242814667,0.8194444444444444
796,0.025867195242814667,0.8201388888888889
797,0.02590023125206475,0.8201388888888889
798,0.02590023125206475,0.8208333333333333
799,0.025999339279814997,0.8208333333333333
800,0.025999339279814997,0.8222222222222222
801,0.02604889329369012,0.8222222222222222
802,0.02604889329369012,0.8229166666666666
803,0.026131483316815328,0.8229166666666666
804,0.026131483316815328,0.8236111111111111
805,0.026197555335315495,0.8236111111111111
806,0.026230591344565575,0.8236111111111111
807,0.02652791542781632,0.8236111111111111
808,0.02652791542781632,0.8243055555555555
809,0.026610505450941527,0.8243055555555555
810,0.026610505450941527,0.825
811,0.026709613478691774,0.825
812,0.026709613478691774,0.8256944444444444
813,0.026907829534192268,0.8256944444444444
814,0.026907829534192268,0.8263888888888888
815,0.027403369672943507,0.8263888888888888
816,0.027403369672943507,0.8270833333333333
817,0.02743640568219359,0.8270833333333333
818,0.02743640568219359,0.8277777777777777
819,0.027535513709943837,0.8277777777777777
820,0.027535513709943837,0.8284722222222223
821,0.027948463825569873,0.8284722222222223
822,0.027948463825569873,0.8291666666666667
823,0.02804757185332012,0.8291666666666667
824,0.02804757185332012,0.8305555555555556
825,0.028410967955071028,0.8305555555555556
826,0.028410967955071028,0.83125
827,0.028427485959696068,0.83125
828,0.028427485959696068,0.8319444444444445
829,0.028592666005946482,0.8319444444444445
830,0.028592666005946482,0.8326388888888889
831,0.028774364056821936,0.8326388888888889
832,0.028774364056821936,0.8333333333333334
833,0.029154278163197885,0.8333333333333334
834,0.029154278163197885,0.8340277777777778
835,0.029286422200198215,0.8340277777777778
836,0.0293194582094483,0.8340277777777778
837,0.029418566237198546,0.8340277777777778
838,0.029418566237198546,0.8354166666666667
839,0.029600264288074,0.8354166666666667
840,0.029600264288074,0.8361111111111111
841,0.029616782292699043,0.8361111111111111
842,0.029616782292699043,0.8368055555555556
843,0.029699372315824247,0.8368055555555556
844,0.029699372315824247,0.8375
845,0.02999669639907499,0.8375
846,0.02999669639907499,0.8381944444444445
847,0.030459200528576147,0.8381944444444445
848,0.030459200528576147,0.8388888888888889
849,0.03047571853320119,0.8388888888888889
850,0.03050875454245127,0.8388888888888889
851,0.030591344565576477,0.8388888888888889
852,0.030591344565576477,0.8395833333333333
853,0.03085563263957714,0.8395833333333333
854,0.03085563263957714,0.8402777777777778
855,0.031565906838453915,0.8402777777777778
856,0.031598942847703995,0.8402777777777778
857,0.03184671291707962,0.8402777777777778
858,0.03184671291707962,0.8409722222222222
859,0.03192930294020482,0.8409722222222222
860,0.0319623389494549,0.8409722222222222
861,0.03229269904195573,0.8409722222222222
862,0.03229269904195573,0.8416666666666667
863,0.032457879088206146,0.8416666666666667
864,0.032490915097456226,0.8416666666666667
865,0.03268913115295672,0.8416666666666667
866,0.03268913115295672,0.8423611111111111
867,0.03270564915758176,0.8423611111111111
868,0.03270564915758176,0.8430555555555556
869,0.032821275189957054,0.8430555555555556
870,0.032821275189957054,0.8444444444444444
871,0.03330029732408325,0.8444444444444444
872,0.03333333333333333,0.8444444444444444
873,0.03377931945820945,0.8444444444444444
874,0.03377931945820945,0.8451388888888889
875,0.03391146349520978,0.8451388888888889
876,0.03391146349520978,0.8458333333333333
877,0.03417575156921044,0.8458333333333333
878,0.03417575156921044,0.8465277777777778
879,0.03419226957383548,0.8465277777777778
880,0.03419226957383548,0.8472222222222222
881,0.03435744962008589,0.8472222222222222
882,0.03435744962008589,0.8479166666666667
883,0.03457218368021143,0.8479166666666667
884,0.03457218368021143,0.8486111111111111
885,0.03462173769408655,0.8486111111111111
886,0.03462173769408655,0.8493055555555555
887,0.035711925999339277,0.8493055555555555
888,0.035711925999339277,0.85
889,0.03622398414271556,0.85
890,0.03622398414271556,0.8506944444444444
891,0.036273538156590686,0.8506944444444444
892,0.036273538156590686,0.8513888888888889
893,0.03629005616121572,0.8513888888888889
894,0.03629005616121572,0.8520833333333333
895,0.03653782623059135,0.8520833333333333
896,0.03653782623059135,0.8527777777777777
897,0.03676907829534192,0.8527777777777777
898,0.03676907829534192,0.8534722222222222
899,0.037049884373967626,0.8534722222222222
900,0.037049884373967626,0.8541666666666666
901,0.03731417244796829,0.8541666666666666
902,0.03731417244796829,0.8548611111111111
903,0.037793194582094486,0.8548611111111111
904,0.037826230591344566,0.8548611111111111
905,0.037859266600594646,0.8548611111111111
906,0.037859266600594646,0.8555555555555555
907,0.03787578460521969,0.8555555555555555
908,0.03787578460521969,0.85625
909,0.03792533861909481,0.85625
910,0.03792533861909481,0.8569444444444444
911,0.03795837462834489,0.8569444444444444
912,0.03795837462834489,0.8576388888888888
913,0.03799141063759498,0.8576388888888888
914,0.03802444664684506,0.8576388888888888
915,0.0382391807069706,0.8576388888888888
916,0.03827221671622068,0.8576388888888888
917,0.038371324743970925,0.8576388888888888
918,0.038371324743970925,0.8583333333333333
919,0.03840436075322101,0.8583333333333333
920,0.03840436075322101,0.8590277777777777
921,0.038420878757846055,0.8590277777777777
922,0.038453914767096135,0.8590277777777777
923,0.038486950776346215,0.8590277777777777
924,0.0385199867855963,0.8590277777777777
925,0.03894945490584737,0.8590277777777777
926,0.03894945490584737,0.8597222222222223
927,0.0392798149983482,0.8597222222222223
928,0.0392798149983482,0.8604166666666667
929,0.03979187314172448,0.8604166666666667
930,0.03979187314172448,0.8611111111111112
931,0.03992401717872481,0.8611111111111112
932,0.03995705318797489,0.8611111111111112
933,0.0400396432111001,0.8611111111111112
934,0.0400396432111001,0.8618055555555556
935,0.04028741328047572,0.8618055555555556
936,0.04028741328047572,0.8631944444444445
937,0.041113313511727784,0.8631944444444445
938,0.041113313511727784,0.8638888888888889
939,0.041559299636603896,0.8638888888888889
940,0.041559299636603896,0.8645833333333334
941,0.04160885365047902,0.8645833333333334
942,0.04160885365047902,0.8652777777777778
943,0.04187314172447968,0.8652777777777778
944,0.04187314172447968,0.8659722222222223
945,0.04208787578460522,0.8659722222222223
946,0.04208787578460522,0.8666666666666667
947,0.04273207796498183,0.8666666666666667
948,0.04273207796498183,0.8673611111111111
949,0.04284770399735712,0.8673611111111111
950,0.04284770399735712,0.8680555555555556
951,0.043045920052857616,0.8680555555555556
952,0.043045920052857616,0.86875
953,0.04309547406673274,0.86875
954,0.04312851007598282,0.86875
955,0.04321110009910803,0.86875
956,0.04321110009910803,0.8694444444444445
957,0.04350842418235877,0.8694444444444445
958,0.04350842418235877,0.8701388888888889
959,0.043789230260984476,0.8701388888888889
960,0.04380574826560951,0.8708333333333333
961,0.043822266270234556,0.8708333333333333
962,0.043822266270234556,0.8715277777777778
963,0.04451602246448629,0.8715277777777778
964,0.04451602246448629,0.8722222222222222
965,0.0451602246448629,0.8722222222222222
966,0.0451602246448629,0.8729166666666667
967,0.0454410307234886,0.8729166666666667
968,0.0454410307234886,0.8736111111111111
969,0.04634952097786588,0.8736111111111111
970,0.04634952097786588,0.8743055555555556
971,0.046514701024116284,0.8743055555555556
972,0.046514701024116284,0.875
973,0.046597291047241494,0.875
974,0.046597291047241494,0.8756944444444444
975,0.04664684506111662,0.8756944444444444
976,0.04664684506111662,0.8763888888888889
977,0.046861579121242156,0.8763888888888889
978,0.046861579121242156,0.8770833333333333
979,0.0469606871489924,0.8770833333333333
980,0.0469606871489924,0.8777777777777778
981,0.047010241162867526,0.8777777777777778
982,0.047010241162867526,0.8784722222222222
983,0.04753881731086885,0.8784722222222222
984,0.04753881731086885,0.8791666666666667
985,0.047637925338619096,0.8791666666666667
986,0.047637925338619096,0.8798611111111111
987,0.04805087545424513,0.8798611111111111
988,0.04805087545424513,0.8805555555555555
989,0.048298645523620745,0.8805555555555555
990,0.048298645523620745,0.88125
991,0.04854641559299636,0.88125
992,0.04854641559299636,0.8819444444444444
993,0.048744631648496864,0.8819444444444444
994,0.048744631648496864,0.8826388888888889
995,0.04882722167162207,0.8826388888888889
996,0.04882722167162207,0.8833333333333333
997,0.04902543772712256,0.8833333333333333
998,0.04902543772712256,0.8847222222222222
999,0.04912454575487281,0.8847222222222222
1000,0.04912454575487281,0.8854166666666666
1001,0.04948794185662372,0.8854166666666666
1002,0.049520977865873804,0.8854166666666666
1003,0.049554013875123884,0.8854166666666666
1004,0.049554013875123884,0.8861111111111111
1005,0.049851337958374625,0.8861111111111111
1006,0.049851337958374625,0.8868055555555555
1007,0.050049554013875126,0.8868055555555555
1008,0.050049554013875126,0.8881944444444444
1009,0.050479022134126195,0.8881944444444444
1010,0.050479022134126195,0.8888888888888888
1011,0.0507598282127519,0.8888888888888888
1012,0.0507598282127519,0.8895833333333333
1013,0.05079286422200198,0.8895833333333333
1014,0.05079286422200198,0.8902777777777777
1015,0.050858936240502146,0.8902777777777777
1016,0.050858936240502146,0.8909722222222223
1017,0.051106706309877764,0.8909722222222223
1018,0.05112322431450281,0.8916666666666667
1019,0.05143706640237859,0.8916666666666667
1020,0.05143706640237859,0.8923611111111112
1021,0.051734390485629334,0.8923611111111112
1022,0.05176742649487942,0.8923611111111112
1023,0.05189957053187975,0.8923611111111112
1024,0.05189957053187975,0.8930555555555556
1025,0.051998678559629995,0.8930555555555556
1026,0.05203171456888008,0.8930555555555556
1027,0.052147340601255365,0.8930555555555556
1028,0.052147340601255365,0.89375
1029,0.05239511067063099,0.89375
1030,0.05239511067063099,0.8944444444444445
1031,0.05335315493888338,0.8944444444444445
1032,0.05335315493888338,0.8951388888888889
1033,0.053518334985133795,0.8951388888888889
1034,0.053518334985133795,0.8958333333333334
1035,0.05376610505450941,0.8958333333333334
1036,0.05376610505450941,0.8965277777777778
1037,0.0537991410637595,0.8965277777777778
1038,0.0537991410637595,0.8972222222222223
1039,0.053931285100759827,0.8972222222222223
1040,0.053931285100759827,0.8979166666666667
1041,0.054294681202510735,0.8979166666666667
1042,0.054294681202510735,0.8986111111111111
1043,0.05431119920713578,0.8986111111111111
1044,0.05431119920713578,0.8993055555555556
1045,0.05439378923026098,0.8993055555555556
1046,0.05439378923026098,0.9
1047,0.05450941526263627,0.9
1048,0.05450941526263627,0.9006944444444445
1049,0.055269243475388176,0.9006944444444445
1050,0.055269243475388176,0.9013888888888889
1051,0.05556656755863892,0.9013888888888889
1052,0.05556656755863892,0.9020833333333333
1053,0.05576478361413941,0.9020833333333333
1054,0.05576478361413941,0.9027777777777778
1055,0.056524611826891315,0.9027777777777778
1056,0.056524611826891315,0.9034722222222222
1057,0.05660720185001652,0.9034722222222222
1058,0.05660720185001652,0.9041666666666667
1059,0.05665675586389164,0.9041666666666667
1060,0.05668979187314172,0.9041666666666667
1061,0.05690452593326726,0.9041666666666667
1062,0.05690452593326726,0.9048611111111111
1063,0.057218368021143044,0.9048611111111111
1064,0.057218368021143044,0.9055555555555556
1065,0.05746613809051866,0.9055555555555556
1066,0.05746613809051866,0.90625
1067,0.05754872811364387,0.90625
1068,0.05754872811364387,0.9069444444444444
1069,0.05774694416914437,0.9069444444444444
1070,0.05774694416914437,0.9076388888888889
1071,0.05791212421539478,0.9076388888888889
1072,0.05791212421539478,0.9083333333333333
1073,0.05906838453914767,0.9083333333333333
1074,0.05910142054839775,0.9083333333333333
1075,0.059200528576148,0.9083333333333333
1076,0.059200528576148,0.9090277777777778
1077,0.05956392467789891,0.9090277777777778
1078,0.05956392467789891,0.9097222222222222
1079,0.060852329038652134,0.9097222222222222
1080,0.060852329038652134,0.9111111111111111
1081,0.06182689131152957,0.9111111111111111
1082,0.06182689131152957,0.9118055555555555
1083,0.06304922365378263,0.9118055555555555
1084,0.06304922365378263,0.9125
1085,0.0634786917740337,0.9125
1086,0.0634786917740337,0.9131944444444444
1087,0.06362735381565907,0.9131944444444444
1088,0.06362735381565907,0.9138888888888889
1089,0.06410637594978527,0.9138888888888889
1090,0.06413941195903534,0.9138888888888889
1091,0.06506442021803766,0.9138888888888889
1092,0.06509745622728774,0.9138888888888889
1093,0.06529567228278824,0.9138888888888889
1094,0.06529567228278824,0.9145833333333333
1095,0.06531219028741328,0.9145833333333333
1096,0.06534522629666337,0.9145833333333333
1097,0.06539478031053848,0.9145833333333333
1098,0.06539478031053848,0.9152777777777777
1099,0.06547737033366369,0.9152777777777777
1100,0.06547737033366369,0.9159722222222222
1101,0.0655599603567889,0.9159722222222222
1102,0.0655599603567889,0.9173611111111111
1103,0.0656755863891642,0.9173611111111111
1104,0.0656755863891642,0.9180555555555555
1105,0.06602246448629005,0.9180555555555555
1106,0.06602246448629005,0.91875
1107,0.06643541460191608,0.91875
1108,0.06643541460191608,0.9194444444444444
1109,0.066798810703667,0.9194444444444444
1110,0.06683184671291707,0.9194444444444444
1111,0.06704658077304261,0.9194444444444444
1112,0.06704658077304261,0.9201388888888888
1113,0.06727783283779319,0.9201388888888888
1114,0.06731086884704328,0.9201388888888888
1115,0.06752560290716882,0.9201388888888888
1116,0.06752560290716882,0.9208333333333333
1117,0.06886356128179716,0.9208333333333333
1118,0.0688800792864222,0.9215277777777777
1119,0.0690782953419227,0.9215277777777777
1120,0.0690782953419227,0.9222222222222223
1121,0.06922695738354807,0.9222222222222223
1122,0.06922695738354807,0.9229166666666667
1123,0.0698381235546746,0.9229166666666667
1124,0.0698381235546746,0.9236111111111112
1125,0.07000330360092501,0.9236111111111112
1126,0.07000330360092501,0.9243055555555556
1127,0.07056491575817642,0.9243055555555556
1128,0.07056491575817642,0.925
1129,0.07129170796167823,0.925
1130,0.07129170796167823,0.9263888888888889
1131,0.07162206805417906,0.9263888888888889
1132,0.07162206805417906,0.9270833333333334
1133,0.07210109018830525,0.9270833333333334
1134,0.07210109018830525,0.9277777777777778
1135,0.07226627023455566,0.9277777777777778
1136,0.07229930624380575,0.9277777777777778
1137,0.07258011232243144,0.9277777777777778
1138,0.07261314833168153,0.9277777777777778
1139,0.07271225635943178,0.9277777777777778
1140,0.07271225635943178,0.9284722222222223
1141,0.07291047241493227,0.9284722222222223
1142,0.07294350842418236,0.9284722222222223
1143,0.07471093491906178,0.9284722222222223
1144,0.07471093491906178,0.9291666666666667
1145,0.07477700693756194,0.9291666666666667
1146,0.07481004294681202,0.9291666666666667
1147,0.07525602907168814,0.9291666666666667
1148,0.07525602907168814,0.9298611111111111
1149,0.07578460521968947,0.9298611111111111
1150,0.07578460521968947,0.9305555555555556
1151,0.07649487941856624,0.9305555555555556
1152,0.07652791542781633,0.9305555555555556
1153,0.07672613148331682,0.9305555555555556
1154,0.07672613148331682,0.93125
1155,0.0774033696729435,0.93125
1156,0.0774364056821936,0.93125
1157,0.07775024777006938,0.93125
1158,0.07778328377931946,0.93125
1159,0.07799801783944499,0.93125
1160,0.07799801783944499,0.9319444444444445
1161,0.07834489593657086,0.9319444444444445
1162,0.07834489593657086,0.9326388888888889
1163,0.07984803435744962,0.9326388888888889
1164,0.07984803435744962,0.9333333333333333
1165,0.08009580442682523,0.9333333333333333
1166,0.08009580442682523,0.9340277777777778
1167,0.08080607862570202,0.9340277777777778
1168,0.08080607862570202,0.9347222222222222
1169,0.08145028080607862,0.9347222222222222
1170,0.08145028080607862,0.9354166666666667
1171,0.08174760488932938,0.9354166666666667
1172,0.08174760488932938,0.9368055555555556
1173,0.08211100099108028,0.9368055555555556
1174,0.08211100099108028,0.9375
1175,0.08372976544433433,0.9375
1176,0.08372976544433433,0.9381944444444444
1177,0.08452262966633631,0.9381944444444444
1178,0.08452262966633631,0.9388888888888889
1179,0.0862405021473406,0.9388888888888889
1180,0.08627353815659068,0.9388888888888889
1181,0.08723158242484308,0.9388888888888889
1182,0.08726461843409317,0.9388888888888889
1183,0.08733069045259333,0.9388888888888889
1184,0.08733069045259333,0.9395833333333333
1185,0.08814007267922035,0.9395833333333333
1186,0.08814007267922035,0.9402777777777778
1187,0.08876775685497192,0.9402777777777778
1188,0.08876775685497192,0.9409722222222222
1189,0.0889164188965973,0.9409722222222222
1190,0.0889164188965973,0.9416666666666667
1191,0.08921374297984803,0.9416666666666667
1192,0.08921374297984803,0.9423611111111111
1193,0.08941195903534853,0.9423611111111111
1194,0.08941195903534853,0.9430555555555555
1195,0.09037000330360093,0.9430555555555555
1196,0.09037000330360093,0.9444444444444444
1197,0.09046911133135117,0.9444444444444444
1198,0.09046911133135117,0.9451388888888889
1199,0.09076643541460191,0.9451388888888889
1200,0.09076643541460191,0.9458333333333333
1201,0.09081598942847705,0.9458333333333333
1202,0.09081598942847705,0.9465277777777777
1203,0.09132804757185332,0.9465277777777777
1204,0.09132804757185332,0.9472222222222222
1205,0.0913610835811034,0.9472222222222222
1206,0.0913610835811034,0.9479166666666666
1207,0.09141063759497853,0.9479166666666666
1208,0.09144367360422861,0.9479166666666666
1209,0.09150974562272877,0.9479166666666666
1210,0.09150974562272877,0.9486111111111111
1211,0.09289725801123225,0.9486111111111111
1212,0.09293029402048232,0.9486111111111111
1213,0.09311199207135779,0.9486111111111111
1214,0.09314502808060786,0.9486111111111111
1215,0.09364056821935911,0.9486111111111111
1216,0.09367360422860918,0.9486111111111111
1217,0.09408655434423521,0.9486111111111111
1218,0.0941195903534853,0.9486111111111111
1219,0.09453254046911133,0.9486111111111111
1220,0.09453254046911133,0.9493055555555555
1221,0.0950776346217377,0.9493055555555555
1222,0.0950776346217377,0.95
1223,0.09558969276511398,0.95
1224,0.09562272877436406,0.95
1225,0.09567228278823918,0.95
1226,0.09570531879748927,0.95
1227,0.09578790882061447,0.95
1228,0.09578790882061447,0.9506944444444444
1229,0.0966798810703667,0.9506944444444444
1230,0.0966798810703667,0.9513888888888888
1231,0.09795176742649488,0.9513888888888888
1232,0.09795176742649488,0.9520833333333333
1233,0.09884373967624711,0.9520833333333333
1234,0.09884373967624711,0.9527777777777777
1235,0.10003303600925008,0.9527777777777777
1236,0.10003303600925008,0.9534722222222223
1237,0.10006607201850017,0.9534722222222223
1238,0.10009910802775025,0.9534722222222223
1239,0.10051205814337628,0.9534722222222223
1240,0.10054509415262636,0.9534722222222223
1241,0.10206475057813016,0.9534722222222223
1242,0.10209778658738024,0.9534722222222223
1243,0.10262636273538156,0.9534722222222223
1244,0.10265939874463165,0.9534722222222223
1245,0.10322101090188306,0.9534722222222223
1246,0.10322101090188306,0.9541666666666667
1247,0.10414601916088537,0.9541666666666667
1248,0.10414601916088537,0.9548611111111112
1249,0.1043607532210109,0.9548611111111112
1250,0.10439378923026098,0.9548611111111112
1251,0.10452593326726131,0.9548611111111112
1252,0.10452593326726131,0.9555555555555556
1253,0.10475718533201189,0.9555555555555556
1254,0.10475718533201189,0.95625
1255,0.10505450941526263,0.95625
1256,0.10505450941526263,0.9569444444444445
1257,0.10558308556326396,0.9569444444444445
1258,0.10558308556326396,0.9576388888888889
1259,0.10743310208126858,0.9576388888888889
1260,0.10746613809051866,0.9576388888888889
1261,0.10766435414601916,0.9576388888888889
1262,0.10766435414601916,0.9583333333333334
1263,0.10867195242814667,0.9583333333333334
1264,0.10870498843739676,0.9583333333333334
1265,0.10953088866864882,0.9583333333333334
1266,0.10953088866864882,0.9590277777777778
1267,0.10986124876114965,0.9590277777777778
1268,0.10989428477039974,0.9590277777777778
1269,0.11058804096465147,0.9590277777777778
1270,0.11058804096465147,0.9597222222222223
1271,0.11068714899240172,0.9597222222222223
1272,0.11068714899240172,0.9604166666666667
1273,0.1110835811034027,0.9604166666666667
1274,0.11111661711265279,0.9604166666666667
1275,0.11124876114965312,0.9604166666666667
1276,0.1112817971589032,0.9604166666666667
1277,0.11139742319127849,0.9604166666666667
1278,0.11139742319127849,0.9611111111111111
1279,0.1122398414271556,0.9611111111111111
1280,0.1122398414271556,0.9618055555555556
1281,0.11382556987115956,0.9618055555555556
1282,0.11382556987115956,0.9625
1283,0.11506442021803766,0.9625
1284,0.11506442021803766,0.9631944444444445
1285,0.11572514040303931,0.9631944444444445
1286,0.1157581764122894,0.9631944444444445
1287,0.11636934258341593,0.9631944444444445
1288,0.116402378592666,0.9631944444444445
1289,0.11653452262966633,0.9631944444444445
1290,0.11653452262966633,0.9638888888888889
1291,0.11694747274529237,0.9638888888888889
1292,0.11698050875454245,0.9638888888888889
1293,0.11925999339279815,0.9638888888888889
1294,0.11925999339279815,0.9645833333333333
1295,0.12005285761480013,0.9645833333333333
1296,0.12008589362405021,0.9645833333333333
1297,0.12059795176742649,0.9645833333333333
1298,0.12059795176742649,0.9652777777777778
1299,0.12291047241493228,0.9652777777777778
1300,0.12294350842418236,0.9652777777777778
1301,0.1250412950115626,0.9652777777777778
1302,0.1250743310208127,0.9652777777777778
1303,0.12510736703006275,0.9652777777777778
1304,0.12510736703006275,0.9659722222222222
1305,0.125602907168814,0.9659722222222222
1306,0.1256359431780641,0.9659722222222222
1307,0.12623059134456557,0.9659722222222222
1308,0.12626362735381566,0.9659722222222222
1309,0.1278493557978196,0.9659722222222222
1310,0.1278493557978196,0.9666666666666667
1311,0.12851007598282127,0.9666666666666667
1312,0.12851007598282127,0.9673611111111111
1313,0.12890650809382226,0.9673611111111111
1314,0.12893954410307235,0.9673611111111111
1315,0.13060786257020152,0.9673611111111111
1316,0.1306408985794516,0.9673611111111111
1317,0.1310042946812025,0.9673611111111111
1318,0.1310373306904526,0.9673611111111111
1319,0.13169805087545425,0.9673611111111111
1320,0.13173108688470433,0.9673611111111111
1321,0.13232573505120582,0.9673611111111111
1322,0.13232573505120582,0.9680555555555556
1323,0.1326395771390816,0.9680555555555556
1324,0.1326395771390816,0.96875
1325,0.13296993723158243,0.96875
1326,0.13300297324083252,0.96875
1327,0.13425834159233566,0.96875
1328,0.13429137760158572,0.96875
1329,0.13521638586058804,0.96875
1330,0.13524942186983813,0.96875
1331,0.13761149653121904,0.96875
1332,0.13761149653121904,0.9694444444444444
1333,0.13837132474397093,0.9694444444444444
1334,0.13840436075322102,0.9694444444444444
1335,0.13878427485959696,0.9694444444444444
1336,0.13881731086884705,0.9694444444444444
1337,0.13886686488272218,0.9694444444444444
1338,0.13886686488272218,0.9701388888888889
1339,0.1400726792203502,0.9701388888888889
1340,0.1400726792203502,0.9708333333333333
1341,0.14345887016848366,0.9708333333333333
1342,0.14349190617773372,0.9708333333333333
1343,0.14370664023785926,0.9708333333333333
1344,0.14373967624710934,0.9708333333333333
1345,0.14469772051536176,0.9708333333333333
1346,0.14473075652461181,0.9708333333333333
1347,0.1454740667327387,0.9708333333333333
1348,0.14550710274198878,0.9708333333333333
1349,0.1462834489593657,0.9708333333333333
1350,0.1463164849686158,0.9708333333333333
1351,0.14760488932936902,0.9708333333333333
1352,0.14760488932936902,0.9715277777777778
1353,0.1481169474727453,0.9715277777777778
1354,0.14814998348199537,0.9715277777777778
1355,0.14814998348199537,0.9722222222222222
1356,0.14831516352824578,0.9722222222222222
1357,0.14834819953749587,0.9722222222222222
1358,0.14905847373637265,0.9722222222222222
1359,0.14909150974562274,0.9722222222222222
1360,0.1495209778658738,0.9722222222222222
1361,0.1495209778658738,0.9729166666666667
1362,0.15034687809712588,0.9729166666666667
1363,0.15037991410637594,0.9729166666666667
1364,0.15130492236537826,0.9729166666666667
1365,0.15133795837462835,0.9729166666666667
1366,0.15241162867525604,0.9729166666666667
1367,0.1524446646845061,0.9729166666666667
1368,0.1554839775355137,0.9729166666666667
1369,0.1555170135447638,0.9729166666666667
1370,0.1558804096465147,0.9729166666666667
1371,0.1559134456557648,0.9729166666666667
1372,0.15642550379914105,0.9729166666666667
1373,0.15642550379914105,0.9736111111111111
1374,0.15774694416914437,0.9736111111111111
1375,0.15777998017839445,0.9736111111111111
1376,0.15806078625702016,0.9736111111111111
1377,0.15809382226627022,0.9736111111111111
1378,0.1612817971589032,0.9736111111111111
1379,0.1612817971589032,0.9743055555555555
1380,0.16442021803766105,0.9743055555555555
1381,0.16445325404691113,0.9743055555555555
1382,0.16559299636603897,0.9743055555555555
1383,0.16559299636603897,0.975
1384,0.166005946481665,0.975
1385,0.1660389824909151,0.975
1386,0.16617112652791544,0.975
1387,0.16617112652791544,0.9756944444444444
1388,0.16658407664354147,0.9756944444444444
1389,0.16661711265279155,0.9756944444444444
1390,0.1667162206805418,0.9756944444444444
1391,0.16674925668979187,0.9756944444444444
1392,0.16721176081929304,0.9756944444444444
1393,0.16721176081929304,0.9763888888888889
1394,0.16942517343904856,0.9763888888888889
1395,0.16945820944829865,0.9763888888888889
1396,0.170796167822927,0.9763888888888889
1397,0.170796167822927,0.9770833333333333
1398,0.17190287413280475,0.9770833333333333
1399,0.17193591014205484,0.9770833333333333
1400,0.17365378262305914,0.9770833333333333
1401,0.17365378262305914,0.9777777777777777
1402,0.17492566897918732,0.9777777777777777
1403,0.1749587049884374,0.9777777777777777
1404,0.17527254707631318,0.9777777777777777
1405,0.17530558308556327,0.9777777777777777
1406,0.17679220350181699,0.9777777777777777
1407,0.17682523951106707,0.9777777777777777
1408,0.17694086554344235,0.9777777777777777
1409,0.17697390155269244,0.9777777777777777
1410,0.17750247770069374,0.9777777777777777
1411,0.17753551370994383,0.9777777777777777
1412,0.17758506772381896,0.9777777777777777
1413,0.17758506772381896,0.9784722222222222
1414,0.177998017839445,0.9784722222222222
1415,0.177998017839445,0.9791666666666666
1416,0.17869177403369674,0.9791666666666666
1417,0.17869177403369674,0.9798611111111111
1418,0.17994714238519988,0.9798611111111111
1419,0.17998017839444996,0.9798611111111111
1420,0.1809547406673274,0.9798611111111111
1421,0.18098777667657748,0.9798611111111111
1422,0.18151635282457879,0.9798611111111111
1423,0.18154938883382887,0.9798611111111111
1424,0.18206144697720517,0.9798611111111111
1425,0.18209448298645523,0.9798611111111111
1426,0.18254046911133134,0.9798611111111111
1427,0.18257350512058143,0.9798611111111111
1428,0.18285431119920714,0.9798611111111111
1429,0.18285431119920714,0.9805555555555555
1430,0.18338288734720845,0.9805555555555555
1431,0.18341592335645854,0.9805555555555555
1432,0.18496861579121243,0.9805555555555555
1433,0.18503468780971258,0.9805555555555555
1434,0.1859596960687149,0.9805555555555555
1435,0.185992732077965,0.9805555555555555
1436,0.18602576808721508,0.9805555555555555
1437,0.18605880409646514,0.9805555555555555
1438,0.18645523620746615,0.9805555555555555
1439,0.1864882722167162,0.9805555555555555
1440,0.18746283448959367,0.9805555555555555
1441,0.18749587049884375,0.9805555555555555
1442,0.18754542451271886,0.9805555555555555
1443,0.18754542451271886,0.98125
1444,0.1899240171787248,0.98125
1445,0.1899570531879749,0.98125
1446,0.18997357119259994,0.98125
1447,0.19000660720185,0.98125
1448,0.19020482325735052,0.98125
1449,0.19023785926660058,0.98125
1450,0.1906012553683515,0.98125
1451,0.19063429137760157,0.98125
1452,0.19111331351172778,0.98125
1453,0.19114634952097787,0.98125
1454,0.19222001982160555,0.98125
1455,0.19222001982160555,0.9819444444444444
1456,0.19251734390485628,0.9819444444444444
1457,0.19255037991410637,0.9819444444444444
1458,0.19373967624710936,0.9819444444444444
1459,0.19377271225635942,0.9819444444444444
1460,0.1948794185662372,0.9819444444444444
1461,0.19491245457548728,0.9819444444444444
1462,0.1986785596299967,0.9819444444444444
1463,0.19869507763462174,0.9826388888888888
1464,0.2001156260323753,0.9826388888888888
1465,0.20014866204162537,0.9826388888888888
1466,0.20181698050875455,0.9826388888888888
1467,0.20185001651800463,0.9826388888888888
1468,0.20262636273538157,0.9826388888888888
1469,0.20265939874463165,0.9826388888888888
1470,0.20452593326726132,0.9826388888888888
1471,0.2045589692765114,0.9826388888888888
1472,0.2051205814337628,0.9826388888888888
1473,0.2051536174430129,0.9826388888888888
1474,0.20728444003964322,0.9826388888888888
1475,0.2073174760488933,0.9826388888888888
1476,0.20862239841427155,0.9826388888888888
1477,0.20865543442352164,0.9826388888888888
1478,0.21029071688140072,0.9826388888888888
1479,0.21029071688140072,0.9833333333333333
1480,0.21078625702015197,0.9833333333333333
1481,0.21078625702015197,0.9840277777777777
1482,0.21235546745953088,0.9840277777777777
1483,0.21238850346878096,0.9840277777777777
1484,0.21324743970928312,0.9840277777777777
1485,0.2132804757185332,0.9840277777777777
1486,0.21394119590353486,0.9840277777777777
1487,0.21397423191278495,0.9840277777777777
1488,0.21542781631978858,0.9840277777777777
1489,0.21546085232903867,0.9840277777777777
1490,0.2162041625371655,0.9840277777777777
1491,0.2162371985464156,0.9840277777777777
1492,0.21706309877766766,0.9840277777777777
1493,0.21709613478691775,0.9840277777777777
1494,0.21778989098116946,0.9840277777777777
1495,0.21782292699041955,0.9840277777777777
1496,0.21891311529567228,0.9840277777777777
1497,0.21894615130492237,0.9840277777777777
1498,0.220796167822927,0.9840277777777777
1499,0.22082920383217708,0.9840277777777777
1500,0.221605550049554,0.9840277777777777
1501,0.2216385860588041,0.9840277777777777
1502,0.2223653782623059,0.9840277777777777
1503,0.222398414271556,0.9840277777777777
1504,0.22367030062768417,0.9840277777777777
1505,0.22370333663693426,0.9840277777777777
1506,0.2242814667988107,0.9840277777777777
1507,0.2242814667988107,0.9847222222222223
1508,0.2256359431780641,0.9847222222222223
1509,0.22566897918731418,0.9847222222222223
1510,0.22649487941856625,0.9847222222222223
1511,0.2265279154278163,0.9847222222222223
1512,0.22708952758506773,0.9847222222222223
1513,0.22712256359431782,0.9847222222222223
1514,0.22745292368681863,0.9847222222222223
1515,0.22748595969606872,0.9847222222222223
1516,0.227601585728444,0.9847222222222223
1517,0.22763462173769408,0.9847222222222223
1518,0.22870829203832177,0.9847222222222223
1519,0.22874132804757186,0.9847222222222223
1520,0.22930294020482325,0.9847222222222223
1521,0.22933597621407334,0.9847222222222223
1522,0.22938553022794847,0.9847222222222223
1523,0.22941856623719856,0.9847222222222223
1524,0.23024446646845062,0.9847222222222223
1525,0.2302775024777007,0.9847222222222223
1526,0.23225966303270565,0.9847222222222223
1527,0.23225966303270565,0.9854166666666667
1528,0.2327552031714569,0.9854166666666667
1529,0.23278823918070696,0.9854166666666667
1530,0.2329534192269574,0.9854166666666667
1531,0.23298645523620748,0.9854166666666667
1532,0.2343244136108358,0.9854166666666667
1533,0.2343574496200859,0.9854166666666667
1534,0.23789230260984473,0.9854166666666667
1535,0.23789230260984473,0.9861111111111112
1536,0.23825569871159563,0.9861111111111112
1537,0.23828873472084572,0.9861111111111112
1538,0.2391641889659729,0.9861111111111112
1539,0.239197224975223,0.9861111111111112
1540,0.24061777337297655,0.9861111111111112
1541,0.24065080938222663,0.9861111111111112
1542,0.24084902543772713,0.9861111111111112
1543,0.2408820614469772,0.9861111111111112
1544,0.2409976874793525,0.9861111111111112
1545,0.24103072348860258,0.9861111111111112
1546,0.24152626362735383,0.9861111111111112
1547,0.24152626362735383,0.9868055555555556
1548,0.24217046580773044,0.9868055555555556
1549,0.2422035018169805,0.9868055555555556
1550,0.24283118599273207,0.9868055555555556
1551,0.24286422200198216,0.9868055555555556
1552,0.24296333002973242,0.9868055555555556
1553,0.2429963660389825,0.9868055555555556
1554,0.24360753221010903,0.9868055555555556
1555,0.2436405682193591,0.9868055555555556
1556,0.2438883382887347,0.9868055555555556
1557,0.2439213742979848,0.9868055555555556
1558,0.24400396432111002,0.9868055555555556
1559,0.24400396432111002,0.9875
1560,0.24425173439048564,0.9875
1561,0.2442847703997357,0.9875
1562,0.2443178064089858,0.9875
1563,0.24435084241823588,0.9875
1564,0.24588701684836473,0.9875
1565,0.2459200528576148,0.9875
1566,0.24653121902874134,0.9875
1567,0.2465642550379914,0.9875
1568,0.2475222993062438,0.9875
1569,0.2475553353154939,0.9875
1570,0.2560786257020152,0.9875
1571,0.25611166171126526,0.9875
1572,0.2561942517343905,0.9875
1573,0.25626032375289065,0.9875
1574,0.25702015196564254,0.9875
1575,0.2570531879748926,0.9875
1576,0.2570862239841427,0.9875
1577,0.2571192599933928,0.9875
1578,0.25716881400726793,0.9875
1579,0.257201850016518,0.9875
1580,0.25954740667327386,0.9875
1581,0.25958044268252395,0.9875
1582,0.2608688470432772,0.9875
1583,0.26090188305252726,0.9875
1584,0.2613974231912785,0.9875
1585,0.2614304592005286,0.9875
1586,0.2621902874132805,0.9875
1587,0.2622233234225306,0.9875
1588,0.26298315163528246,0.9875
1589,0.26301618764453255,0.9875
1590,0.26313181367690786,0.9875
1591,0.2631648496861579,0.9875
1592,0.2639081598942848,0.9875
1593,0.2639081598942848,0.9881944444444445
1594,0.26650148662041623,0.9881944444444445
1595,0.2665345226296663,0.9881944444444445
1596,0.26734390485629334,0.9881944444444445
1597,0.2673769408655434,0.9881944444444445
1598,0.2694086554344235,0.9881944444444445
1599,0.2694416914436736,0.9881944444444445
1600,0.2700858936240502,0.9881944444444445
1601,0.2700858936240502,0.9888888888888889
1602,0.2702510736703006,0.9888888888888889
1603,0.2702841096795507,0.9888888888888889
1604,0.27122563594317806,0.9888888888888889
1605,0.27125867195242814,0.9888888888888889
1606,0.27229930624380577,0.9888888888888889
1607,0.2723323422530558,0.9888888888888889
1608,0.27618103733069044,0.9888888888888889
1609,0.2762140733399405,0.9888888888888889
1610,0.2775685497191939,0.9888888888888889
1611,0.2775685497191939,0.9895833333333334
1612,0.2801618764453254,0.9895833333333334
1613,0.2801949124545755,0.9895833333333334
1614,0.28158242484307894,0.9895833333333334
1615,0.281615460852329,0.9895833333333334
1616,0.28609184010571526,0.9895833333333334
1617,0.28609184010571526,0.9902777777777778
1618,0.28625702015196564,0.9902777777777778
1619,0.2862900561612157,0.9902777777777778
1620,0.28630657416584077,0.9902777777777778
1621,0.28633961017509085,0.9902777777777778
1622,0.2882556987115956,0.9902777777777778
1623,0.2882556987115956,0.9909722222222223
1624,0.291212421539478,0.9909722222222223
1625,0.2912454575487281,0.9909722222222223
1626,0.29312851007598284,0.9909722222222223
1627,0.2931615460852329,0.9909722222222223
1628,0.29345887016848365,0.9909722222222223
1629,0.29349190617773374,0.9909722222222223
1630,0.2935084241823588,0.9909722222222223
1631,0.29354146019160887,0.9909722222222223
1632,0.2937727122563594,0.9909722222222223
1633,0.2938057482656095,0.9909722222222223
1634,0.2939048562933598,0.9909722222222223
1635,0.29397092831185995,0.9909722222222223
1636,0.29686157912124217,0.9909722222222223
1637,0.29689461513049226,0.9909722222222223
1638,0.29753881731086884,0.9909722222222223
1639,0.29757185332011893,0.9909722222222223
1640,0.29790221341261974,0.9909722222222223
1641,0.29793524942186983,0.9909722222222223
1642,0.3007267922035018,0.9909722222222223
1643,0.3007598282127519,0.9909722222222223
1644,0.3012884043607532,0.9909722222222223
1645,0.3013214403700033,0.9909722222222223
1646,0.30158572844400394,0.9909722222222223
1647,0.30161876445325403,0.9909722222222223
1648,0.30333663693425833,0.9909722222222223
1649,0.3033696729435084,0.9909722222222223
1650,0.3035513709943839,0.9909722222222223
1651,0.303584407003634,0.9909722222222223
1652,0.3042781631978857,0.9909722222222223
1653,0.3043111992071358,0.9909722222222223
1654,0.30444334324413613,0.9909722222222223
1655,0.30444334324413613,0.9916666666666667
1656,0.30749917409976874,0.9916666666666667
1657,0.3075322101090188,0.9916666666666667
1658,0.30882061446977205,0.9916666666666667
1659,0.30885365047902213,0.9916666666666667
1660,0.31029071688140075,0.9916666666666667
1661,0.3103237528906508,0.9916666666666667
1662,0.3107036669970268,0.9916666666666667
1663,0.3107367030062768,0.9916666666666667
1664,0.31207466138090517,0.9916666666666667
1665,0.31210769739015526,0.9916666666666667
1666,0.3124380574826561,0.9916666666666667
1667,0.31247109349190616,0.9916666666666667
1668,0.31331351172778327,0.9916666666666667
1669,0.31334654773703335,0.9916666666666667
1670,0.31349520977865875,0.9916666666666667
1671,0.31352824578790883,0.9916666666666667
1672,0.31370994383878426,0.9916666666666667
1673,0.31374297984803434,0.9916666666666667
1674,0.31470102411628675,0.9916666666666667
1675,0.31473406012553684,0.9916666666666667
1676,0.31681532870829204,0.9916666666666667
1677,0.31684836471754213,0.9916666666666667
1678,0.31805417905517014,0.9916666666666667
1679,0.31805417905517014,0.9923611111111111
1680,0.3189626693095474,0.9923611111111111
1681,0.3189957053187975,0.9923611111111111
1682,0.32101090188305254,0.9923611111111111
1683,0.3210439378923026,0.9923611111111111
1684,0.3217707300958044,0.9923611111111111
1685,0.3218037661050545,0.9923611111111111
1686,0.3223158242484308,0.9923611111111111
1687,0.3223488602576809,0.9923611111111111
1688,0.322381896266931,0.9923611111111111
1689,0.322414932276181,0.9923611111111111
1690,0.32444664684506114,0.9923611111111111
1691,0.32444664684506114,0.9930555555555556
1692,0.32573505120581436,0.9930555555555556
1693,0.3257680872150644,0.9930555555555556
1694,0.3270399735711926,0.9930555555555556
1695,0.3270399735711926,0.99375
1696,0.32722167162206806,0.99375
1697,0.32725470763131814,0.99375
1698,0.32746944169144365,0.99375
1699,0.32750247770069374,0.99375
1700,0.3317145688800793,0.99375
1701,0.33174760488932936,0.99375
1702,0.3324909150974562,0.99375
1703,0.3325239511067063,0.99375
1704,0.3360422860918401,0.99375
1705,0.3360753221010902,0.99375
1706,0.3369838123554675,0.99375
1707,0.33701684836471757,0.99375
1708,0.33918070697059793,0.99375
1709,0.339213742979848,0.99375
1710,0.3409316154608523,0.99375
1711,0.3409646514701024,0.99375
1712,0.34309547406673274,0.99375
1713,0.34312851007598283,0.99375
1714,0.34400396432111,0.99375
1715,0.3440370003303601,0.99375
1716,0.3456392467789891,0.99375
1717,0.3456722827882392,0.99375
1718,0.34813346547737034,0.99375
1719,0.3481665014866204,0.99375
1720,0.3485464155929964,0.99375
1721,0.34857945160224646,0.99375
1722,0.3500825900231252,0.99375
1723,0.3501156260323753,0.99375
1724,0.3514866204162537,0.99375
1725,0.3515196564255038,0.99375
1726,0.3542120911793855,0.99375
1727,0.3542451271886356,0.99375
1728,0.3555170135447638,0.99375
1729,0.35555004955401387,0.99375
1730,0.35705318797489266,0.99375
1731,0.3570862239841427,0.99375
1732,0.3577964981830195,0.99375
1733,0.3578295341922696,0.99375
1734,0.35949785265939876,0.99375
1735,0.35953088866864885,0.99375
1736,0.3595639246778989,0.99375
1737,0.35959696068714897,0.99375
1738,0.3598282127518996,0.99375
1739,0.35986124876114967,0.99375
1740,0.3608853650479022,0.99375
1741,0.3609184010571523,0.99375
1742,0.3629005616121572,0.99375
1743,0.3629335976214073,0.99375
1744,0.3652461182689131,0.99375
1745,0.3652791542781632,0.99375
1746,0.365592996366039,0.99375
1747,0.36562603237528907,0.99375
1748,0.3658572844400396,0.99375
1749,0.3658903204492897,0.99375
1750,0.36901222332342254,0.99375
1751,0.3690452593326726,0.99375
1752,0.37153947803105386,0.99375
1753,0.37157251404030395,0.99375
1754,0.3718037661050545,0.99375
1755,0.3718368021143046,0.99375
1756,0.3722001982160555,0.99375
1757,0.3722332342253056,0.99375
1758,0.3728774364056822,0.99375
1759,0.3729104724149323,0.99375
1760,0.3729600264288074,0.99375
1761,0.37299306243805747,0.99375
1762,0.37325735051205816,0.99375
1763,0.37329038652130825,0.99375
1764,0.374793524942187,0.99375
1765,0.37482656095143707,0.99375
1766,0.37517343904856293,0.99375
1767,0.375206475057813,0.99375
1768,0.3755533531549389,0.99375
1769,0.37558638916418896,0.99375
1770,0.3773207796498183,0.99375
1771,0.3773538156590684,0.99375
1772,0.37938553022794846,0.99375
1773,0.37941856623719855,0.99375
1774,0.38141724479682854,0.99375
1775,0.3814502808060786,0.99375
1776,0.3825239511067063,0.99375
1777,0.38255698711595637,0.99375
1778,0.3853154938883383,0.99375
1779,0.3853154938883383,0.9944444444444445
1780,0.38686818632309217,0.9944444444444445
1781,0.38690122233234225,0.9944444444444445
1782,0.38723158242484307,0.9944444444444445
1783,0.38726461843409316,0.9944444444444445
1784,0.3878262305913446,0.9944444444444445
1785,0.38785926660059467,0.9944444444444445
1786,0.3904360753221011,0.9944444444444445
1787,0.39046911133135115,0.9944444444444445
1788,0.39055170135447637,0.9944444444444445
1789,0.39058473736372645,0.9944444444444445
1790,0.3909316154608523,0.9944444444444445
1791,0.3909646514701024,0.9944444444444445
1792,0.39170796167822924,0.9944444444444445
1793,0.39174099768747933,0.9944444444444445
1794,0.3955566567558639,0.9944444444444445
1795,0.39558969276511396,0.9944444444444445
1796,0.3984803435744962,0.9944444444444445
1797,0.3985133795837463,0.9944444444444445
1798,0.4007102741988768,0.9944444444444445
1799,0.40074331020812687,0.9944444444444445
1800,0.4039147670961348,0.9944444444444445
1801,0.40394780310538486,0.9944444444444445
1802,0.4111166171126528,0.9944444444444445
1803,0.4111166171126528,0.9951388888888889
1804,0.4115130492236538,0.9951388888888889
1805,0.41154608523290387,0.9951388888888889
1806,0.4122398414271556,0.9951388888888889
1807,0.41227287743640567,0.9951388888888889
1808,0.4128344895936571,0.9951388888888889
1809,0.4128675256029072,0.9951388888888889
1810,0.414007267922035,0.9951388888888889
1811,0.4140403039312851,0.9951388888888889
1812,0.415609514370664,0.9951388888888889
1813,0.4156425503799141,0.9951388888888889
1814,0.41798810703667,0.9951388888888889
1815,0.41802114304592003,0.9951388888888889
1816,0.41927651139742317,0.9951388888888889
1817,0.41930954740667326,0.9951388888888889
1818,0.4198381235546746,0.9951388888888889
1819,0.4198711595639247,0.9951388888888889
1820,0.42135777998017837,0.9951388888888889
1821,0.42139081598942846,0.9951388888888889
1822,0.42292699041955734,0.9951388888888889
1823,0.4229600264288074,0.9951388888888889
1824,0.42566897918731417,0.9951388888888889
1825,0.42566897918731417,0.9958333333333333
1826,0.42594978526593985,0.9958333333333333
1827,0.42598282127518994,0.9958333333333333
1828,0.4265609514370664,0.9958333333333333
1829,0.4265939874463165,0.9958333333333333
1830,0.4287082920383218,0.9958333333333333
1831,0.42874132804757187,0.9958333333333333
1832,0.4297984803435745,0.9958333333333333
1833,0.42983151635282457,0.9958333333333333
1834,0.4302775024777007,0.9958333333333333
1835,0.4303105384869508,0.9958333333333333
1836,0.431598942847704,0.9958333333333333
1837,0.4316319788569541,0.9958333333333333
1838,0.432408325074331,0.9958333333333333
1839,0.4324413610835811,0.9958333333333333
1840,0.435596299966964,0.9958333333333333
1841,0.43562933597621406,0.9958333333333333
1842,0.436802114304592,0.9958333333333333
1843,0.43683515031384207,0.9958333333333333
1844,0.4384208787578461,0.9958333333333333
1845,0.4384539147670961,0.9958333333333333
1846,0.4397588371324744,0.9958333333333333
1847,0.43979187314172447,0.9958333333333333
1848,0.4405021473406013,0.9958333333333333
1849,0.4405351833498513,0.9958333333333333
1850,0.4415262636273538,0.9958333333333333
1851,0.4415592996366039,0.9958333333333333
1852,0.44238519986785596,0.9958333333333333
1853,0.44238519986785596,0.9965277777777778
1854,0.44245127188635613,0.9965277777777778
1855,0.4424843078956062,0.9965277777777778
1856,0.44365708622398414,0.9965277777777778
1857,0.44365708622398414,0.9972222222222222
1858,0.4455071027419888,0.9972222222222222
1859,0.4455401387512388,0.9972222222222222
1860,0.4471589032044929,0.9972222222222222
1861,0.447191939213743,0.9972222222222222
1862,0.4472910472414932,0.9972222222222222
1863,0.4473240832507433,0.9972222222222222
1864,0.44862900561612157,0.9972222222222222
1865,0.44866204162537165,0.9972222222222222
1866,0.45089197224975225,0.9972222222222222
1867,0.45092500825900234,0.9972222222222222
1868,0.4518830525272547,0.9972222222222222
1869,0.4519160885365048,0.9972222222222222
1870,0.45460852329038653,0.9972222222222222
1871,0.4546415592996366,0.9972222222222222
1872,0.4564420218037661,0.9972222222222222
1873,0.45647505781301617,0.9972222222222222
1874,0.4570697059795177,0.9972222222222222
1875,0.45710274198876777,0.9972222222222222
1876,0.45840766435414604,0.9972222222222222
1877,0.4584407003633961,0.9972222222222222
1878,0.45865543442352164,0.9972222222222222
1879,0.4586884704327717,0.9972222222222222
1880,0.4616782292699042,0.9972222222222222
1881,0.4617112652791543,0.9972222222222222
1882,0.4621572514040304,0.9972222222222222
1883,0.4621902874132805,0.9972222222222222
1884,0.4625867195242815,0.9972222222222222
1885,0.4626197555335316,0.9972222222222222
1886,0.4635612817971589,0.9972222222222222
1887,0.463594317806409,0.9972222222222222
1888,0.46417244796828544,0.9972222222222222
1889,0.4642054839775355,0.9972222222222222
1890,0.4647670961347869,0.9972222222222222
1891,0.464800132144037,0.9972222222222222
1892,0.4658738024446647,0.9972222222222222
1893,0.4659068384539148,0.9972222222222222
1894,0.4663032705649158,0.9972222222222222
1895,0.46633630657416586,0.9972222222222222
1896,0.4670300627684176,0.9972222222222222
1897,0.4670300627684176,0.9979166666666667
1898,0.46914436736042286,0.9979166666666667
1899,0.46917740336967295,0.9979166666666667
1900,0.4695573174760489,0.9979166666666667
1901,0.469590353485299,0.9979166666666667
1902,0.47018500165180044,0.9979166666666667
1903,0.4702180376610505,0.9979166666666667
1904,0.47066402378592664,0.9979166666666667
1905,0.47069705979517673,0.9979166666666667
1906,0.4735711925999339,0.9979166666666667
1907,0.473604228609184,0.9979166666666667
1908,0.4743640568219359,0.9979166666666667
1909,0.474397092831186,0.9979166666666667
1910,0.4753221010901883,0.9979166666666667
1911,0.4753551370994384,0.9979166666666667
1912,0.4754377271225636,0.9979166666666667
1913,0.4754707631318137,0.9979166666666667
1914,0.47674264948794187,0.9979166666666667
1915,0.47677568549719196,0.9979166666666667
1916,0.4772381896266931,0.9979166666666667
1917,0.47727122563594315,0.9979166666666667
1918,0.4779484638255699,0.9979166666666667
1919,0.47798149983481997,0.9979166666666667
1920,0.47902213412619754,0.9979166666666667
1921,0.4790551701354476,0.9979166666666667
1922,0.4806574165840766,0.9979166666666667
1923,0.4806904525933267,0.9979166666666667
1924,0.4818797489263297,0.9979166666666667
1925,0.48191278493557976,0.9979166666666667
1926,0.4857284440039643,0.9979166666666667
1927,0.4857614800132144,0.9979166666666667
1928,0.4862074661380905,0.9979166666666667
1929,0.4862405021473406,0.9979166666666667
1930,0.48640568219359104,0.9979166666666667
1931,0.48643871820284107,0.9979166666666667
1932,0.491195903534853,0.9979166666666667
1933,0.49122893954410307,0.9979166666666667
1934,0.49150974562272876,0.9979166666666667
1935,0.49154278163197884,0.9979166666666667
1936,0.497588371324744,0.9979166666666667
1937,0.49762140733399407,0.9979166666666667
1938,0.4992401717872481,0.9979166666666667
1939,0.4992732077964982,0.9979166666666667
1940,0.49933927981499837,0.9979166666666667
1941,0.49937231582424846,0.9979166666666667
1942,0.49942186983812353,0.9979166666666667
1943,0.4994549058473736,0.9979166666666667
1944,0.5007267922035018,0.9979166666666667
1945,0.5007598282127519,0.9979166666666667
1946,0.5009910802775025,0.9979166666666667
1947,0.5010241162867526,0.9979166666666667
1948,0.5023620746613809,0.9979166666666667
1949,0.502395110670631,0.9979166666666667
1950,0.5035513709943839,0.9979166666666667
1951,0.5035844070036339,0.9979166666666667
1952,0.504806739345887,0.9979166666666667
1953,0.5048397753551371,0.9979166666666667
1954,0.5062603237528907,0.9979166666666667
1955,0.5062933597621407,0.9979166666666667
1956,0.5063098777667657,0.9979166666666667
1957,0.5063429137760158,0.9979166666666667
1958,0.5065576478361414,0.9979166666666667
1959,0.5065906838453915,0.9979166666666667
1960,0.508011232243145,0.9979166666666667
1961,0.5080442682523951,0.9979166666666667
1962,0.5089527585067724,0.9979166666666667
1963,0.5089857945160224,0.9979166666666667
1964,0.510802775024777,0.9979166666666667
1965,0.5108358110340271,0.9979166666666667
1966,0.5109844730756524,0.9979166666666667
1967,0.5110175090849025,0.9979166666666667
1968,0.5124545754872811,0.9979166666666667
1969,0.5124876114965312,0.9979166666666667
1970,0.5150974562272878,0.9979166666666667
1971,0.5151304922365378,0.9979166666666667
1972,0.5157746944169145,0.9979166666666667
1973,0.5158077304261646,0.9979166666666667
1974,0.5162867525602907,0.9979166666666667
1975,0.5163197885695407,0.9979166666666667
1976,0.5163858605880409,0.9979166666666667
1977,0.516418896597291,0.9979166666666667
1978,0.5175256029071689,0.9979166666666667
1979,0.5175586389164188,0.9979166666666667
1980,0.5181367690782953,0.9979166666666667
1981,0.5181698050875454,0.9979166666666667
1982,0.5185992732077965,0.9979166666666667
1983,0.5186323092170466,0.9979166666666667
1984,0.5204162537165511,0.9979166666666667
1985,0.5204492897258012,0.9979166666666667
1986,0.5218037661050545,0.9979166666666667
1987,0.5218368021143046,0.9979166666666667
1988,0.5221010901883053,0.9979166666666667
1989,0.5221341261975553,0.9979166666666667
1990,0.5266600594648166,0.9979166666666667
1991,0.5266930954740667,0.9979166666666667
1992,0.5277832837793195,0.9979166666666667
1993,0.5278163197885696,0.9979166666666667
1994,0.5289725801123224,0.9979166666666667
1995,0.5290056161215725,0.9979166666666667
1996,0.5294681202510737,0.9979166666666667
1997,0.5295011562603238,0.9979166666666667
1998,0.5301123224314502,0.9979166666666667
1999,0.5301453584407003,0.9979166666666667
2000,0.5312851007598283,0.9979166666666667
2001,0.5313181367690782,0.9979166666666667
2002,0.5326230591344565,0.9979166666666667
2003,0.5326560951437066,0.9979166666666667
2004,0.5334985133795838,0.9979166666666667
2005,0.5335315493888338,0.9979166666666667
2006,0.53800792864222,0.9979166666666667
2007,0.5380409646514701,0.9979166666666667
2008,0.5385199867855963,0.9979166666666667
2009,0.5385530227948464,0.9979166666666667
2010,0.54000660720185,0.9979166666666667
2011,0.5400396432111001,0.9979166666666667
2012,0.540403039312851,0.9979166666666667
2013,0.5404360753221011,0.9979166666666667
2014,0.5410802775024777,0.9979166666666667
2015,0.5411133135117278,0.9979166666666667
2016,0.5413610835811034,0.9979166666666667
2017,0.5413941195903534,0.9979166666666667
2018,0.5422365378262306,0.9979166666666667
2019,0.5422695738354807,0.9979166666666667
2020,0.5438883382887347,0.9979166666666667
2021,0.5439213742979848,0.9979166666666667
2022,0.543987446316485,0.9979166666666667
2023,0.5440204823257351,0.9979166666666667
2024,0.5476379253386191,0.9979166666666667
2025,0.5476709613478692,0.9979166666666667
2026,0.5486290056161216,0.9979166666666667
2027,0.5486620416253717,0.9979166666666667
2028,0.5497357119259993,0.9979166666666667
2029,0.5497687479352494,0.9979166666666667
2030,0.5498513379583746,0.9979166666666667
2031,0.5498843739676247,0.9979166666666667
2032,0.5504790221341263,0.9979166666666667
2033,0.5505120581433762,0.9979166666666667
2034,0.5510406342913776,0.9979166666666667
2035,0.5510736703006277,0.9979166666666667
2036,0.5512553683515031,0.9979166666666667
2037,0.5512884043607532,0.9979166666666667
2038,0.5514866204162537,0.9979166666666667
2039,0.5515196564255038,0.9979166666666667
2040,0.5527254707631318,0.9979166666666667
2041,0.5527585067723819,0.9979166666666667
2042,0.553584407003634,0.9979166666666667
2043,0.5536174430128841,0.9979166666666667
2044,0.5553353154938884,0.9979166666666667
2045,0.5553683515031385,0.9979166666666667
2046,0.5561446977205153,0.9979166666666667
2047,0.5561777337297654,0.9979166666666667
2048,0.5575487281136439,0.9979166666666667
2049,0.557581764122894,0.9979166666666667
2050,0.557631318136769,0.9979166666666667
2051,0.5576643541460191,0.9979166666666667
2052,0.5579616782292699,0.9979166666666667
2053,0.55799471423852,0.9979166666666667
2054,0.5595143706640238,0.9979166666666667
2055,0.5595474066732739,0.9979166666666667
2056,0.5598942847703997,0.9979166666666667
2057,0.5599273207796498,0.9979166666666667
2058,0.5604889329369013,0.9979166666666667
2059,0.5605219689461513,0.9979166666666667
2060,0.5634126197555336,0.9979166666666667
2061,0.5634456557647836,0.9979166666666667
2062,0.5654112983151636,0.9979166666666667
2063,0.5654443343244137,0.9979166666666667
2064,0.5697720515361744,0.9979166666666667
2065,0.5698050875454245,0.9979166666666667
2066,0.5718368021143045,0.9979166666666667
2067,0.5718698381235546,0.9979166666666667
2068,0.5737528906508094,0.9979166666666667
2069,0.5737859266600595,0.9979166666666667
2070,0.5741658407664354,0.9979166666666667
2071,0.5741988767756855,0.9979166666666667
2072,0.5761480013214404,0.9979166666666667
2073,0.5761480013214404,0.9986111111111111
2074,0.5766765774694417,0.9986111111111111
2075,0.5767096134786918,0.9986111111111111
2076,0.5767426494879418,0.9986111111111111
2077,0.5767756854971919,0.9986111111111111
2078,0.5769904195573174,0.9986111111111111
2079,0.5770234555665675,0.9986111111111111
2080,0.5779484638255699,0.9986111111111111
2081,0.57798149983482,0.9986111111111111
2082,0.5781631978856954,0.9986111111111111
2083,0.5781962338949455,0.9986111111111111
2084,0.5786091840105715,0.9986111111111111
2085,0.5786422200198216,0.9986111111111111
2086,0.5799471423851998,0.9986111111111111
2087,0.5799801783944499,0.9986111111111111
2088,0.5825900231252065,0.9986111111111111
2089,0.5826230591344566,0.9986111111111111
2090,0.5830855632639577,0.9986111111111111
2091,0.5831185992732077,0.9986111111111111
2092,0.5834159233564585,0.9986111111111111
2093,0.5834489593657086,0.9986111111111111
2094,0.586422200198216,0.9986111111111111
2095,0.5864552362074661,0.9986111111111111
2096,0.5868681863230921,0.9986111111111111
2097,0.5869012223323422,0.9986111111111111
2098,0.5873967624710935,0.9986111111111111
2099,0.5874297984803436,0.9986111111111111
2100,0.5877271225635943,0.9986111111111111
2101,0.5877601585728444,0.9986111111111111
2102,0.5917740336967294,0.9986111111111111
2103,0.5918070697059795,0.9986111111111111
2104,0.5945490584737364,0.9986111111111111
2105,0.5945820944829865,0.9986111111111111
2106,0.6006276841757515,0.9986111111111111
2107,0.6006607201850016,0.9986111111111111
2108,0.6018334985133796,0.9986111111111111
2109,0.6018334985133796,0.9993055555555556
2110,0.6027254707631318,0.9993055555555556
2111,0.6027585067723819,0.9993055555555556
2112,0.6029402048232574,0.9993055555555556
2113,0.6029732408325075,0.9993055555555556
2114,0.6032870829203832,0.9993055555555556
2115,0.6033201189296333,0.9993055555555556
2116,0.6045094152626362,0.9993055555555556
2117,0.6045424512718863,0.9993055555555556
2118,0.6053683515031384,0.9993055555555556
2119,0.6054013875123885,0.9993055555555556
2120,0.6061446977205154,0.9993055555555556
2121,0.6061777337297655,0.9993055555555556
2122,0.6091344565576479,0.9993055555555556
2123,0.609167492566898,0.9993055555555556
2124,0.6110340270895276,0.9993055555555556
2125,0.6110670630987777,0.9993055555555556
2126,0.6122068054179055,0.9993055555555556
2127,0.6122398414271556,0.9993055555555556
2128,0.6128510075982821,0.9993055555555556
2129,0.6128840436075322,0.9993055555555556
2130,0.6129005616121572,0.9993055555555556
2131,0.6129335976214073,0.9993055555555556
2132,0.6161215725140403,0.9993055555555556
2133,0.6161546085232904,0.9993055555555556
2134,0.6199867855962999,0.9993055555555556
2135,0.62001982160555,0.9993055555555556
2136,0.6204658077304261,0.9993055555555556
2137,0.6204988437396762,0.9993055555555556
2138,0.6207631318136769,0.9993055555555556
2139,0.620796167822927,0.9993055555555556
2140,0.6223488602576809,0.9993055555555556
2141,0.622381896266931,0.9993055555555556
2142,0.6226957383548067,0.9993055555555556
2143,0.6227287743640568,0.9993055555555556
2144,0.6237528906508094,0.9993055555555556
2145,0.6237859266600595,0.9993055555555556
2146,0.6262140733399405,0.9993055555555556
2147,0.6262471093491906,0.9993055555555556
2148,0.6268417575156922,0.9993055555555556
2149,0.6268747935249422,0.9993055555555556
2150,0.6269243475388173,0.9993055555555556
2151,0.6269573835480674,0.9993055555555556
2152,0.6273207796498182,0.9993055555555556
2153,0.6273538156590683,0.9993055555555556
2154,0.632028410967955,0.9993055555555556
2155,0.6320614469772051,0.9993055555555556
2156,0.6321440370003304,0.9993055555555556
2157,0.6321770730095805,0.9993055555555556
2158,0.6322596630327056,0.9993055555555556
2159,0.6322926990419557,0.9993055555555556
2160,0.6331351172778329,0.9993055555555556
2161,0.6331681532870829,0.9993055555555556
2162,0.6342748595969607,0.9993055555555556
2163,0.6343078956062108,0.9993055555555556
2164,0.6352989758837132,0.9993055555555556
2165,0.6353320118929633,0.9993055555555556
2166,0.6357119259993392,0.9993055555555556
2167,0.6357449620085893,0.9993055555555556
2168,0.6357614800132144,0.9993055555555556
2169,0.6357945160224645,0.9993055555555556
2170,0.6367525602907169,0.9993055555555556
2171,0.636785596299967,0.9993055555555556
2172,0.639593657086224,0.9993055555555556
2173,0.639626693095474,0.9993055555555556
2174,0.640782953419227,0.9993055555555556
2175,0.6408159894284771,0.9993055555555556
2176,0.6425173439048563,0.9993055555555556
2177,0.6425503799141064,0.9993055555555556
2178,0.6456722827882392,0.9993055555555556
2179,0.6457053187974893,0.9993055555555556
2180,0.6457879088206144,0.9993055555555556
2181,0.6458209448298645,0.9993055555555556
2182,0.6460521968946151,0.9993055555555556
2183,0.6460852329038652,0.9993055555555556
2184,0.647175421209118,0.9993055555555556
2185,0.6472084572183681,0.9993055555555556
2186,0.6478196233894945,0.9993055555555556
2187,0.6478526593987446,0.9993055555555556
2188,0.6479352494218699,0.9993055555555556
2189,0.64796828543112,0.9993055555555556
2190,0.6517343904856293,0.9993055555555556
2191,0.6517674264948794,0.9993055555555556
2192,0.652428146679881,0.9993055555555556
2193,0.6524611826891311,0.9993055555555556
2194,0.6526924347538817,0.9993055555555556
2195,0.6527585067723819,0.9993055555555556
2196,0.6555335315493889,0.9993055555555556
2197,0.655566567558639,0.9993055555555556
2198,0.6563429137760158,0.9993055555555556
2199,0.6563759497852659,0.9993055555555556
2200,0.6567063098777668,0.9993055555555556
2201,0.6567393458870169,0.9993055555555556
2202,0.6574826560951437,0.9993055555555556
2203,0.6575156921043938,0.9993055555555556
2204,0.6580938222662702,0.9993055555555556
2205,0.6581268582755203,0.9993055555555556
2206,0.6617443012884043,0.9993055555555556
2207,0.6617773372976544,0.9993055555555556
2208,0.6654773703336637,0.9993055555555556
2209,0.6655104063429138,0.9993055555555556
2210,0.6655269243475388,0.9993055555555556
2211,0.6655599603567889,0.9993055555555556
2212,0.6683515031384208,0.9993055555555556
2213,0.6683845391476709,0.9993055555555556
2214,0.6688470432771721,0.9993055555555556
2215,0.6688800792864222,0.9993055555555556
2216,0.6702180376610506,0.9993055555555556
2217,0.6702510736703007,0.9993055555555556
2218,0.6706640237859267,0.9993055555555556
2219,0.6706970597951768,0.9993055555555556
2220,0.6713247439709283,0.9993055555555556
2221,0.6713577799801784,0.9993055555555556
2222,0.6740502147340601,0.9993055555555556
2223,0.6740832507433102,0.9993055555555556
2224,0.674793524942187,0.9993055555555556
2225,0.6748265609514371,0.9993055555555556
2226,0.6756194251734391,0.9993055555555556
2227,0.6756854971919393,0.9993055555555556
2228,0.6759002312520648,0.9993055555555556
2229,0.6759332672613149,0.9993055555555556
2230,0.6761810373306905,0.9993055555555556
2231,0.6762140733399405,0.9993055555555556
2232,0.6775189957053188,0.9993055555555556
2233,0.6775520317145689,0.9993055555555556
2234,0.6778328377931946,0.9993055555555556
2235,0.6778658738024447,0.9993055555555556
2236,0.6789230260984473,0.9993055555555556
2237,0.6789560621076974,0.9993055555555556
2238,0.6794020482325736,0.9993055555555556
2239,0.6794350842418236,0.9993055555555556
2240,0.6806904525933267,0.9993055555555556
2241,0.6807565246118269,0.9993055555555556
2242,0.6812520647505781,0.9993055555555556
2243,0.6812851007598282,0.9993055555555556
2244,0.6816484968615791,0.9993055555555556
2245,0.6816815328708292,0.9993055555555556
2246,0.6829369012223323,0.9993055555555556
2247,0.6829699372315824,0.9993055555555556
2248,0.6843739676247109,0.9993055555555556
2249,0.684407003633961,0.9993055555555556
2250,0.684786917740337,0.9993055555555556
2251,0.684819953749587,0.9993055555555556
2252,0.6850842418235877,0.9993055555555556
2253,0.6851172778328378,0.9993055555555556
2254,0.6855137099438388,0.9993055555555556
2255,0.6855467459530888,0.9993055555555556
2256,0.6889990089197225,0.9993055555555556
2257,0.6890320449289726,0.9993055555555556
2258,0.6895606210769739,0.9993055555555556
2259,0.689593657086224,0.9993055555555556
2260,0.6914436736042286,0.9993055555555556
2261,0.6914767096134787,0.9993055555555556
2262,0.6918235877106046,0.9993055555555556
2263,0.6918566237198547,0.9993055555555556
2264,0.6930294020482326,0.9993055555555556
2265,0.6930624380574827,0.9993055555555556
2266,0.6934423521638586,0.9993055555555556
2267,0.6934753881731087,0.9993055555555556
2268,0.6953254046911134,0.9993055555555556
2269,0.6953584407003633,0.9993055555555556
2270,0.6955071027419888,0.9993055555555556
2271,0.695573174760489,0.9993055555555556
2272,0.695589692765114,0.9993055555555556
2273,0.695622728774364,0.9993055555555556
2274,0.6966303270564915,0.9993055555555556
2275,0.6966633630657416,0.9993055555555556
2276,0.6975388173108689,0.9993055555555556
2277,0.697571853320119,0.9993055555555556
2278,0.6978691774033696,0.9993055555555556
2279,0.6979022134126197,0.9993055555555556
2280,0.7004294681202511,0.9993055555555556
2281,0.7004625041295012,0.9993055555555556
2282,0.7007928642220019,0.9993055555555556
2283,0.700825900231252,0.9993055555555556
2284,0.7013544763792534,0.9993055555555556
2285,0.7013875123885035,0.9993055555555556
2286,0.7016352824578791,0.9993055555555556
2287,0.7016683184671292,0.9993055555555556
2288,0.7029897588371324,0.9993055555555556
2289,0.7029897588371324,1.0
2290,0.7047737033366369,1.0
2291,0.704806739345887,1.0
2292,0.7050545094152626,1.0
2293,0.7050875454245127,1.0
2294,0.7057152296002643,1.0
2295,0.7057482656095144,1.0
2296,0.7068880079286423,1.0
2297,0.7069210439378923,1.0
2298,0.7074331020812685,1.0
2299,0.7074661380905186,1.0
2300,0.7081433762801453,1.0
2301,0.7081764122893954,1.0
2302,0.7112487611496531,1.0
2303,0.7112817971589032,1.0
2304,0.713594317806409,1.0
2305,0.7136273538156591,1.0
2306,0.7145028080607863,1.0
2307,0.7145358440700363,1.0
2308,0.7158407664354146,1.0
2309,0.7159068384539148,1.0
2310,0.7167657746944169,1.0
2311,0.716798810703667,1.0
2312,0.7179385530227949,1.0
2313,0.7179715890320449,1.0
2314,0.7182358771060456,1.0
2315,0.7182689131152957,1.0
2316,0.7206805417905517,1.0
2317,0.7207135777998018,1.0
2318,0.7231747604889329,1.0
2319,0.723207796498183,1.0
2320,0.724000660720185,1.0
2321,0.7240336967294351,1.0
2322,0.7245953088866864,1.0
2323,0.7246283448959365,1.0
2324,0.7250082590023125,1.0
2325,0.7250412950115626,1.0
2326,0.726825239511067,1.0
2327,0.7268582755203171,1.0
2328,0.7288734720845722,1.0
2329,0.7289065080938223,1.0
2330,0.7289890981169475,1.0
2331,0.7290221341261975,1.0
2332,0.7292699041955731,1.0
2333,0.7293029402048232,1.0
2334,0.7339444995044598,1.0
2335,0.7339775355137099,1.0
2336,0.7344400396432111,1.0
2337,0.7344730756524612,1.0
2338,0.7350346878097126,1.0
2339,0.7350677238189627,1.0
2340,0.7369177403369673,1.0
2341,0.7369507763462174,1.0
2342,0.7395936570862239,1.0
2343,0.739626693095474,1.0
2344,0.7420052857614801,1.0
2345,0.7420383217707301,1.0
2346,0.7431285100759828,1.0
2347,0.7431615460852329,1.0
2348,0.7438553022794846,1.0
2349,0.7438883382887347,1.0
2350,0.7443012884043607,1.0
2351,0.7443343244136108,1.0
2352,0.7445820944829864,1.0
2353,0.7446151304922365,1.0
2354,0.7447307565246118,1.0
2355,0.7447637925338619,1.0
2356,0.7483316815328708,1.0
2357,0.7483647175421209,1.0
2358,0.7497522299306244,1.0
2359,0.7497852659398745,1.0
2360,0.7498843739676248,1.0
2361,0.7499174099768748,1.0
2362,0.7511232243145028,1.0
2363,0.7511562603237529,1.0
2364,0.7522464486290056,1.0
2365,0.7522794846382557,1.0
2366,0.7536339610175091,1.0
2367,0.7536669970267592,1.0
2368,0.7537661050545094,1.0
2369,0.7537991410637594,1.0
2370,0.7541955731747605,1.0
2371,0.7542616451932607,1.0
2372,0.7572183680211431,1.0
2373,0.7572514040303931,1.0
2374,0.7592666005946481,1.0
2375,0.7592996366038982,1.0
2376,0.7632804757185332,1.0
2377,0.7633135117277833,1.0
2378,0.7684836471754212,1.0
2379,0.7685166831846713,1.0
2380,0.7686157912124215,1.0
2381,0.7686488272216716,1.0
2382,0.7690452593326726,1.0
2383,0.7690782953419227,1.0
2384,0.769623389494549,1.0
2385,0.7696564255037991,1.0
2386,0.7712091179385531,1.0
2387,0.7712421539478032,1.0
2388,0.7723488602576809,1.0
2389,0.772381896266931,1.0
2390,0.7745292368681863,1.0
2391,0.7745622728774364,1.0
2392,0.7758506772381897,1.0
2393,0.7758837132474397,1.0
2394,0.7766435414601917,1.0
2395,0.7766765774694417,1.0
2396,0.7778823918070698,1.0
2397,0.7779154278163198,1.0
2398,0.7787248100429468,1.0
2399,0.7787578460521969,1.0
2400,0.7792533861909481,1.0
2401,0.7792864222001982,1.0
2402,0.7804426825239511,1.0
2403,0.7804757185332012,1.0
2404,0.7812190287413281,1.0
2405,0.7812520647505782,1.0
2406,0.7829864552362075,1.0
2407,0.7830194912454576,1.0
2408,0.7836636934258342,1.0
2409,0.7836967294350843,1.0
2410,0.7865708622398414,1.0
2411,0.7866038982490915,1.0
2412,0.7895110670630988,1.0
2413,0.7895441030723489,1.0
2414,0.7896597291047242,1.0
2415,0.7896927651139742,1.0
2416,0.7912784935579782,1.0
2417,0.7913115295672283,1.0
2418,0.7944995044598613,1.0
2419,0.7945325404691114,1.0
2420,0.7957879088206145,1.0
2421,0.7958209448298645,1.0
2422,0.796399074991741,1.0
2423,0.7964321110009911,1.0
2424,0.7979187314172448,1.0
2425,0.7979517674264949,1.0
2426,0.8006607201850017,1.0
2427,0.8006937561942518,1.0
2428,0.801222332342253,1.0
2429,0.8012553683515031,1.0
2430,0.8043111992071358,1.0
2431,0.8043442352163859,1.0
2432,0.804426825239511,1.0
2433,0.8044598612487611,1.0
2434,0.8046580773042616,1.0
2435,0.8046911133135117,1.0
2436,0.8086884704327717,1.0
2437,0.8087215064420218,1.0
2438,0.808771060455897,1.0
2439,0.8088040964651471,1.0
2440,0.8097951767426494,1.0
2441,0.8098282127518995,1.0
2442,0.8101585728444004,1.0
2443,0.8101916088536505,1.0
2444,0.8130657416584076,1.0
2445,0.8130987776676577,1.0
2446,0.8131152956722828,1.0
2447,0.8131483316815329,1.0
2448,0.8154112983151636,1.0
2449,0.8154443343244137,1.0
2450,0.8231747604889329,1.0
2451,0.823207796498183,1.0
2452,0.8309877766765774,1.0
2453,0.8310208126858275,1.0
2454,0.8321770730095804,1.0
2455,0.8322101090188305,1.0
2456,0.8348695077634621,1.0
2457,0.8349025437727122,1.0
2458,0.838387842748596,1.0
2459,0.8384208787578461,1.0
2460,0.8413115295672283,1.0
2461,0.8413445655764784,1.0
2462,0.8437892302609845,1.0
2463,0.8438222662702346,1.0
2464,0.8439048562933598,1.0
2465,0.8439378923026098,1.0
2466,0.8442517343904856,1.0
2467,0.8442847703997357,1.0
2468,0.8450941526263628,1.0
2469,0.8451271886356129,1.0
2470,0.8493227618103734,1.0
2471,0.8493557978196233,1.0
2472,0.8498843739676247,1.0
2473,0.8499174099768748,1.0
2474,0.8517509084902544,1.0
2475,0.8517839444995045,1.0
2476,0.8525602907168814,1.0
2477,0.8525933267261315,1.0
2478,0.8526098447307565,1.0
2479,0.8526428807400066,1.0
2480,0.8580938222662703,1.0
2481,0.8581268582755203,1.0
2482,0.8612817971589032,1.0
2483,0.8613148331681533,1.0
2484,0.8622893954410307,1.0
2485,0.8623224314502808,1.0
2486,0.8625206475057813,1.0
2487,0.8625536835150314,1.0
2488,0.8634126197555335,1.0
2489,0.8634456557647836,1.0
2490,0.8640898579451602,1.0
2491,0.8641228939544103,1.0
2492,0.8652626362735382,1.0
2493,0.8652956722827883,1.0
2494,0.8675586389164189,1.0
2495,0.867591674925669,1.0
2496,0.872398414271556,1.0
2497,0.872431450280806,1.0
2498,0.8734225305583085,1.0
2499,0.8734555665675586,1.0
2500,0.8734720845721837,1.0
2501,0.8735051205814338,1.0
2502,0.8735216385860588,1.0
2503,0.8735546745953089,1.0
2504,0.874413610835811,1.0
2505,0.8744466468450611,1.0
2506,0.8747604889329369,1.0
2507,0.874793524942187,1.0
2508,0.8759497852659399,1.0
2509,0.87598282127519,1.0
2510,0.8802114304592006,1.0
2511,0.8802444664684506,1.0
2512,0.8830360092500826,1.0
2513,0.8830690452593327,1.0
2514,0.8846217376940866,1.0
2515,0.8846547737033367,1.0
2516,0.8873306904525933,1.0
2517,0.8873637264618434,1.0
2518,0.8877106045589693,1.0
2519,0.8877436405682193,1.0
2520,0.8896432111000991,1.0
2521,0.8896762471093492,1.0
2522,0.8910142054839776,1.0
2523,0.8910472414932277,1.0
2524,0.8925834159233564,1.0
2525,0.8926164519326065,1.0
2526,0.8945325404691113,1.0
2527,0.8945655764783614,1.0
2528,0.89596960687149,1.0
2529,0.89600264288074,1.0
2530,0.8961843409316155,1.0
2531,0.8962173769408656,1.0
2532,0.901585728444004,1.0
2533,0.9016187644532541,1.0
2534,0.9022629666336307,1.0
2535,0.9022960026428808,1.0
2536,0.905566567558639,1.0
2537,0.905599603567889,1.0
2538,0.9081103402708953,1.0
2539,0.9081433762801454,1.0
2540,0.909613478691774,1.0
2541,0.9096465147010241,1.0
2542,0.9114469772051537,1.0
2543,0.9114800132144038,1.0
2544,0.9122893954410307,1.0
2545,0.9123224314502808,1.0
2546,0.9174264948794185,1.0
2547,0.9174595308886686,1.0
2548,0.9191278493557978,1.0
2549,0.9191608853650479,1.0
2550,0.9201850016518005,1.0
2551,0.9202180376610506,1.0
2552,0.9207631318136769,1.0
2553,0.920796167822927,1.0
2554,0.9229765444334325,1.0
2555,0.9230095804426826,1.0
2556,0.9354476379253386,1.0
2557,0.9354806739345887,1.0
2558,0.9387182028410967,1.0
2559,0.9387512388503468,1.0
2560,0.9397918731417245,1.0
2561,0.9398249091509746,1.0
2562,0.9622398414271556,1.0
2563,0.9622728774364057,1.0
2564,0.9662702345556656,1.0
2565,0.9663032705649157,1.0
2566,0.9664519326065412,1.0
2567,0.9664849686157913,1.0
2568,0.9674264948794186,1.0
2569,0.9674595308886687,1.0
2570,0.9681698050875455,1.0
2571,0.9682028410967956,1.0
2572,0.9718037661050545,1.0
2573,0.9718368021143046,1.0
2574,0.9718698381235547,1.0
2575,0.9719028741328047,1.0
2576,0.9737033366369343,1.0
2577,0.9737363726461843,1.0
2578,0.9755863891641889,1.0
2579,0.975619425173439,1.0
2580,0.9780640898579451,1.0
2581,0.9780971258671952,1.0
2582,0.9790882061446977,1.0
2583,0.9791212421539478,1.0
2584,0.9801618764453254,1.0
2585,0.9801949124545755,1.0
2586,0.9816319788569541,1.0
2587,0.9816650148662042,1.0
2588,0.9857284440039643,1.0
2589,0.9857614800132144,1.0
2590,0.9891641889659729,1.0
2591,0.989197224975223,1.0
2592,0.9913776015857284,1.0
2593,0.9914106375949785,1.0
2594,1.0,1.0
