,fpr,tpr
0,0.0,0.0
1,0.0,0.00018301610541727673
2,0.0,0.00036603221083455345
3,0.0,0.0019216691068814056
4,5.037732617303604e-06,0.0019216691068814056
5,5.037732617303604e-06,0.002562225475841874
6,1.0075465234607208e-05,0.002562225475841874
7,1.0075465234607208e-05,0.013360175695461201
8,1.5113197851910811e-05,0.013360175695461201
9,1.5113197851910811e-05,0.017569546120058566
10,1.5113197851910811e-05,0.017752562225475842
11,1.5113197851910811e-05,0.02855051244509517
12,1.5113197851910811e-05,0.028733528550512446
13,1.5113197851910811e-05,0.04145314787701318
14,1.5113197851910811e-05,0.04163616398243045
15,1.5113197851910811e-05,0.04310029282576867
16,2.0150930469214415e-05,0.04310029282576867
17,2.0150930469214415e-05,0.058199121522694
18,2.0150930469214415e-05,0.05838213762811127
19,2.0150930469214415e-05,0.06524524158125915
20,2.0150930469214415e-05,0.06542825768667643
21,2.0150930469214415e-05,0.06826500732064422
22,2.518866308651802e-05,0.06826500732064422
23,2.518866308651802e-05,0.07119326500732065
24,2.518866308651802e-05,0.07137628111273792
25,2.518866308651802e-05,0.08116764275256222
26,3.0226395703821623e-05,0.08116764275256222
27,3.0226395703821623e-05,0.09141654465592972
28,3.526412832112523e-05,0.09141654465592972
29,3.526412832112523e-05,0.0975475841874085
30,4.030186093842883e-05,0.0975475841874085
31,4.030186093842883e-05,0.10038433382137628
32,4.533959355573244e-05,0.10038433382137628
33,4.533959355573244e-05,0.10084187408491947
34,5.037732617303604e-05,0.10084187408491947
35,5.037732617303604e-05,0.1238103953147877
36,5.5415058790339646e-05,0.1238103953147877
37,5.5415058790339646e-05,0.13799414348462666
38,5.5415058790339646e-05,0.13817715959004392
39,5.5415058790339646e-05,0.1414714494875549
40,6.0452791407643246e-05,0.1414714494875549
41,6.0452791407643246e-05,0.15318448023426062
42,6.0452791407643246e-05,0.1533674963396779
43,6.0452791407643246e-05,0.15345900439238652
44,6.0452791407643246e-05,0.15364202049780382
45,6.0452791407643246e-05,0.16334187408491949
46,6.0452791407643246e-05,0.16352489019033675
47,6.0452791407643246e-05,0.17432284040995608
48,6.0452791407643246e-05,0.17450585651537334
49,6.0452791407643246e-05,0.19948755490483164
50,6.0452791407643246e-05,0.1996705710102489
51,6.0452791407643246e-05,0.20891288433382138
52,6.549052402494685e-05,0.20891288433382138
53,6.549052402494685e-05,0.20918740849194728
54,7.052825664225046e-05,0.20918740849194728
55,7.052825664225046e-05,0.21174963396778917
56,7.556598925955406e-05,0.21174963396778917
57,7.556598925955406e-05,0.2197108345534407
58,8.060372187685766e-05,0.2197108345534407
59,8.060372187685766e-05,0.22657393850658858
60,8.564145449416126e-05,0.22657393850658858
61,8.564145449416126e-05,0.23160688140556368
62,8.564145449416126e-05,0.23178989751098097
63,8.564145449416126e-05,0.2425878477306003
64,8.564145449416126e-05,0.24277086383601756
65,8.564145449416126e-05,0.2793740849194729
66,8.564145449416126e-05,0.2795571010248902
67,8.564145449416126e-05,0.2859626647144949
68,8.564145449416126e-05,0.28614568081991215
69,8.564145449416126e-05,0.29181918008784774
70,9.067918711146488e-05,0.29181918008784774
71,9.067918711146488e-05,0.30069546120058566
72,9.571691972876848e-05,0.30069546120058566
73,9.571691972876848e-05,0.30572840409956076
74,0.00010075465234607208,0.30572840409956076
75,0.00010075465234607208,0.31808199121522696
76,0.00010075465234607208,0.3182650073206442
77,0.00010075465234607208,0.3234809663250366
78,0.00010579238496337569,0.3234809663250366
79,0.00010579238496337569,0.32741581259150804
80,0.00011083011758067929,0.32741581259150804
81,0.00011083011758067929,0.32750732064421667
82,0.00011586785019798289,0.32750732064421667
83,0.00011586785019798289,0.3279648609077599
84,0.00012090558281528649,0.3279648609077599
85,0.00012090558281528649,0.3314421669106881
86,0.0001259433154325901,0.3314421669106881
87,0.0001259433154325901,0.33473645680819913
88,0.0001309810480498937,0.33473645680819913
89,0.0001309810480498937,0.3491032210834553
90,0.00013601878066719732,0.3491032210834553
91,0.00013601878066719732,0.361090775988287
92,0.00014105651328450092,0.361090775988287
93,0.00014105651328450092,0.3617313323572474
94,0.00014609424590180452,0.3617313323572474
95,0.00014609424590180452,0.3696010248901903
96,0.00015113197851910812,0.3696010248901903
97,0.00015113197851910812,0.37234626647144947
98,0.00015616971113641172,0.37234626647144947
99,0.00015616971113641172,0.3737188872620791
100,0.00016120744375371532,0.3737188872620791
101,0.00016120744375371532,0.3831442166910688
102,0.00016120744375371532,0.3833272327964861
103,0.00016120744375371532,0.3860724743777452
104,0.00016624517637101892,0.3860724743777452
105,0.00016624517637101892,0.38781112737920936
106,0.00017128290898832252,0.38781112737920936
107,0.00017128290898832252,0.3914714494875549
108,0.00017632064160562615,0.3914714494875549
109,0.00017632064160562615,0.39247803806734993
110,0.00018135837422292975,0.39247803806734993
111,0.00018135837422292975,0.3967789165446559
112,0.00018639610684023335,0.3967789165446559
113,0.00018639610684023335,0.39732796486090777
114,0.00019143383945753695,0.39732796486090777
115,0.00019143383945753695,0.4005307467057101
116,0.00019647157207484055,0.4005307467057101
117,0.00019647157207484055,0.4031844802342606
118,0.00020150930469214415,0.4031844802342606
119,0.00020150930469214415,0.40519765739385066
120,0.00020654703730944775,0.40519765739385066
121,0.00020654703730944775,0.4074853587115666
122,0.00021158476992675138,0.4074853587115666
123,0.00021158476992675138,0.4110541727672035
124,0.00021662250254405498,0.4110541727672035
125,0.00021662250254405498,0.4125183016105417
126,0.00022669796777866218,0.4125183016105417
127,0.00022669796777866218,0.4160871156661786
128,0.00023173570039596578,0.4160871156661786
129,0.00023173570039596578,0.42725109809663253
130,0.00023677343301326938,0.42725109809663253
131,0.00023677343301326938,0.42734260614934116
132,0.00024181116563057298,0.42734260614934116
133,0.00024181116563057298,0.43237554904831627
134,0.0002468488982478766,0.43237554904831627
135,0.0002468488982478766,0.43484626647144947
136,0.0002518866308651802,0.43484626647144947
137,0.0002518866308651802,0.43786603221083453
138,0.0002518866308651802,0.43804904831625185
139,0.0002518866308651802,0.4428989751098097
140,0.0002569243634824838,0.4428989751098097
141,0.0002569243634824838,0.4429904831625183
142,0.0002619620960997874,0.4429904831625183
143,0.0002619620960997874,0.44875549048316254
144,0.000266999828717091,0.44875549048316254
145,0.000266999828717091,0.44976207906295756
146,0.00027203756133439464,0.44976207906295756
147,0.00027203756133439464,0.450402635431918
148,0.0002770752939516982,0.450402635431918
149,0.0002770752939516982,0.4508601756954612
150,0.00028211302656900184,0.4508601756954612
151,0.00028211302656900184,0.45818081991215226
152,0.0002871507591863054,0.45818081991215226
153,0.0002871507591863054,0.463305270863836
154,0.00029218849180360904,0.463305270863836
155,0.00029218849180360904,0.4649524158125915
156,0.0002972262244209126,0.4649524158125915
157,0.0002972262244209126,0.46513543191800877
158,0.00030226395703821624,0.46513543191800877
159,0.00030226395703821624,0.465592972181552
160,0.0003073016896555198,0.465592972181552
161,0.0003073016896555198,0.4697108345534407
162,0.00031233942227282344,0.4697108345534407
163,0.00031233942227282344,0.4713579795021962
164,0.00031737715489012707,0.4713579795021962
165,0.00031737715489012707,0.4722730600292826
166,0.00032241488750743065,0.4722730600292826
167,0.00032241488750743065,0.4738286969253294
168,0.00032745262012473427,0.4738286969253294
169,0.00032745262012473427,0.4762994143484627
170,0.00033249035274203785,0.4762994143484627
171,0.00033249035274203785,0.47867862371888725
172,0.0003375280853593415,0.47867862371888725
173,0.0003375280853593415,0.4830710102489019
174,0.00034256581797664505,0.4830710102489019
175,0.00034256581797664505,0.4842606149341142
176,0.0003476035505939487,0.4842606149341142
177,0.0003476035505939487,0.4857247437774524
178,0.0003526412832112523,0.4857247437774524
179,0.0003526412832112523,0.4866398243045388
180,0.0003576790158285559,0.4866398243045388
181,0.0003576790158285559,0.487097364568082
182,0.0003627167484458595,0.487097364568082
183,0.0003627167484458595,0.48874450951683746
184,0.0003677544810631631,0.48874450951683746
185,0.0003677544810631631,0.4894765739385066
186,0.0003727922136804667,0.4894765739385066
187,0.0003727922136804667,0.4921303074670571
188,0.0003778299462977703,0.4921303074670571
189,0.0003778299462977703,0.49267935578330896
190,0.0003828676789150739,0.49267935578330896
191,0.0003828676789150739,0.495699121522694
192,0.00038790541153237753,0.495699121522694
193,0.00038790541153237753,0.4964311859443631
194,0.0003929431441496811,0.4964311859443631
195,0.0003929431441496811,0.4997254758418741
196,0.00039798087676698473,0.4997254758418741
197,0.00039798087676698473,0.49981698389458273
198,0.0004030186093842883,0.49981698389458273
199,0.0004030186093842883,0.50201317715959
200,0.00040805634200159193,0.50201317715959
201,0.00040805634200159193,0.5037518301610542
202,0.0004130940746188955,0.5037518301610542
203,0.0004130940746188955,0.5098828696925329
204,0.00042316953985350276,0.5098828696925329
205,0.00042316953985350276,0.5103404099560761
206,0.00043324500508810996,0.5103404099560761
207,0.00043324500508810996,0.5104319180087847
208,0.00043828273770541354,0.5104319180087847
209,0.00043828273770541354,0.5110724743777453
210,0.00044332047032271716,0.5110724743777453
211,0.00044332047032271716,0.512902635431918
212,0.00044835820294002074,0.512902635431918
213,0.00044835820294002074,0.5133601756954612
214,0.00045339593555732436,0.5133601756954612
215,0.00045339593555732436,0.5140007320644217
216,0.00045843366817462794,0.5140007320644217
217,0.00045843366817462794,0.5142752562225475
218,0.00046347140079193157,0.5142752562225475
219,0.00046347140079193157,0.5148243045387995
220,0.0004685091334092352,0.5148243045387995
221,0.0004685091334092352,0.5158308931185944
222,0.00047354686602653877,0.5158308931185944
223,0.00047354686602653877,0.5162884333821376
224,0.00048362233126114597,0.5162884333821376
225,0.00048362233126114597,0.5166544655929722
226,0.0004936977964957532,0.5166544655929722
227,0.0004936977964957532,0.5179355783308931
228,0.0004987355291130568,0.5179355783308931
229,0.0004987355291130568,0.5180270863836017
230,0.000508810994347664,0.5180270863836017
231,0.000508810994347664,0.520223279648609
232,0.0005138487269649676,0.520223279648609
233,0.0005138487269649676,0.5219619326500732
234,0.0005188864595822712,0.5219619326500732
235,0.0005188864595822712,0.5259882869692533
236,0.0005239241921995748,0.5259882869692533
237,0.0005239241921995748,0.5277269399707174
238,0.000533999657434182,0.5277269399707174
239,0.000533999657434182,0.5292825768667643
240,0.0005390373900514856,0.5292825768667643
241,0.0005390373900514856,0.5305636896046853
242,0.0005440751226687893,0.5305636896046853
243,0.0005440751226687893,0.531112737920937
244,0.0005491128552860929,0.531112737920937
245,0.0005491128552860929,0.532119326500732
246,0.0005541505879033964,0.532119326500732
247,0.0005541505879033964,0.5344985358711567
248,0.0005642260531380037,0.5344985358711567
249,0.0005642260531380037,0.534681551976574
250,0.0005692637857553073,0.534681551976574
251,0.0005692637857553073,0.535413616398243
252,0.0005743015183726108,0.535413616398243
253,0.0005743015183726108,0.5355051244509517
254,0.0005843769836072181,0.5355051244509517
255,0.0005843769836072181,0.5362371888726208
256,0.0005944524488418252,0.5362371888726208
257,0.0005944524488418252,0.5383418740849195
258,0.0005994901814591289,0.5383418740849195
259,0.0005994901814591289,0.5390739385065886
260,0.0006045279140764325,0.5390739385065886
261,0.0006045279140764325,0.5393484626647145
262,0.0006095656466937361,0.5393484626647145
263,0.0006095656466937361,0.5398975109809663
264,0.0006146033793110396,0.5398975109809663
265,0.0006146033793110396,0.5407210834553441
266,0.0006196411119283433,0.5407210834553441
267,0.0006196411119283433,0.5413616398243045
268,0.0006297165771629505,0.5413616398243045
269,0.0006297165771629505,0.5415446559297218
270,0.0006347543097802541,0.5415446559297218
271,0.0006347543097802541,0.541727672035139
272,0.0006397920423975577,0.541727672035139
273,0.0006397920423975577,0.5418191800878477
274,0.0006448297750148613,0.5418191800878477
275,0.0006448297750148613,0.5419106881405563
276,0.0006498675076321649,0.5419106881405563
277,0.0006498675076321649,0.5420021961932651
278,0.0006549052402494685,0.5420021961932651
279,0.0006549052402494685,0.5432833089311859
280,0.0006599429728667721,0.5432833089311859
281,0.0006599429728667721,0.5435578330893118
282,0.0006649807054840757,0.5435578330893118
283,0.0006649807054840757,0.545296486090776
284,0.0006700184381013794,0.545296486090776
285,0.0006700184381013794,0.5454795021961932
286,0.000675056170718683,0.5454795021961932
287,0.000675056170718683,0.5456625183016105
288,0.0006800939033359865,0.5456625183016105
289,0.0006800939033359865,0.546303074670571
290,0.0006851316359532901,0.546303074670571
291,0.0006851316359532901,0.5471266471449487
292,0.0006901693685705938,0.5471266471449487
293,0.0006901693685705938,0.5472181551976574
294,0.0007002448338052009,0.5472181551976574
295,0.0007002448338052009,0.5479502196193266
296,0.0007052825664225046,0.5479502196193266
297,0.0007052825664225046,0.5486822840409956
298,0.0007103202990398082,0.5486822840409956
299,0.0007103202990398082,0.5487737920937042
300,0.0007153580316571118,0.5487737920937042
301,0.0007153580316571118,0.5509699853587116
302,0.0007203957642744153,0.5509699853587116
303,0.0007203957642744153,0.5512445095168375
304,0.0007304712295090226,0.5512445095168375
305,0.0007304712295090226,0.5525256222547584
306,0.0007355089621263262,0.5525256222547584
307,0.0007355089621263262,0.5532576866764275
308,0.0007405466947436298,0.5532576866764275
309,0.0007405466947436298,0.5533491947291361
310,0.0007455844273609334,0.5533491947291361
311,0.0007455844273609334,0.5535322108345534
312,0.000750622159978237,0.5535322108345534
313,0.000750622159978237,0.5560944363103953
314,0.0007556598925955406,0.5560944363103953
315,0.0007556598925955406,0.5566434846266471
316,0.0007606976252128442,0.5566434846266471
317,0.0007606976252128442,0.5601207906295754
318,0.0007657353578301478,0.5601207906295754
319,0.0007657353578301478,0.5602122986822841
320,0.0007707730904474514,0.5602122986822841
321,0.0007707730904474514,0.5614934114202049
322,0.0007858862882993622,0.5614934114202049
323,0.0007858862882993622,0.5634150805270863
324,0.0007909240209166658,0.5634150805270863
325,0.0007909240209166658,0.5648792093704246
326,0.0007959617535339695,0.5648792093704246
327,0.0007959617535339695,0.5649707174231332
328,0.000800999486151273,0.5649707174231332
329,0.000800999486151273,0.5652452415812591
330,0.0008060372187685766,0.5652452415812591
331,0.0008060372187685766,0.5658857979502196
332,0.0008110749513858803,0.5658857979502196
333,0.0008110749513858803,0.5660688140556369
334,0.0008161126840031839,0.5660688140556369
335,0.0008161126840031839,0.5661603221083455
336,0.0008211504166204874,0.5661603221083455
337,0.0008211504166204874,0.5665263543191801
338,0.000826188149237791,0.5665263543191801
339,0.000826188149237791,0.5669838945827232
340,0.0008312258818550947,0.5669838945827232
341,0.0008312258818550947,0.5689055636896047
342,0.0008362636144723983,0.5689055636896047
343,0.0008362636144723983,0.5691800878477306
344,0.0008413013470897018,0.5691800878477306
345,0.0008413013470897018,0.5697291361639825
346,0.0008463390797070055,0.5697291361639825
347,0.0008463390797070055,0.5698206442166911
348,0.0008513768123243091,0.5698206442166911
349,0.0008513768123243091,0.5699121522693997
350,0.0008614522775589162,0.5699121522693997
351,0.0008614522775589162,0.5709187408491947
352,0.0008664900101762199,0.5709187408491947
353,0.0008664900101762199,0.5712847730600292
354,0.0008715277427935235,0.5712847730600292
355,0.0008715277427935235,0.571376281112738
356,0.0008765654754108271,0.571376281112738
357,0.0008765654754108271,0.5714677891654466
358,0.0008816032080281306,0.5714677891654466
359,0.0008816032080281306,0.5716508052708639
360,0.0008866409406454343,0.5716508052708639
361,0.0008866409406454343,0.5732979502196194
362,0.0008916786732627379,0.5732979502196194
363,0.0008916786732627379,0.573389458272328
364,0.0008967164058800415,0.573389458272328
365,0.0008967164058800415,0.5737554904831625
366,0.0009017541384973452,0.5737554904831625
367,0.0009017541384973452,0.574396046852123
368,0.0009118296037319523,0.574396046852123
369,0.0009118296037319523,0.5749450951683748
370,0.0009168673363492559,0.5749450951683748
371,0.0009168673363492559,0.575677159590044
372,0.0009219050689665596,0.575677159590044
373,0.0009219050689665596,0.5757686676427526
374,0.0009269428015838631,0.5757686676427526
375,0.0009269428015838631,0.5758601756954612
376,0.0009319805342011667,0.5758601756954612
377,0.0009319805342011667,0.5765007320644217
378,0.0009319805342011667,0.5766837481698389
379,0.0009319805342011667,0.5782393850658858
380,0.0009370182668184704,0.5782393850658858
381,0.0009370182668184704,0.5790629575402635
382,0.000942055999435774,0.5790629575402635
383,0.000942055999435774,0.5791544655929722
384,0.0009470937320530775,0.5791544655929722
385,0.0009470937320530775,0.5795204978038068
386,0.0009521314646703811,0.5795204978038068
387,0.0009521314646703811,0.5798865300146413
388,0.0009571691972876848,0.5798865300146413
389,0.0009571691972876848,0.5804355783308931
390,0.0009622069299049884,0.5804355783308931
391,0.0009622069299049884,0.5810761346998536
392,0.0009672446625222919,0.5810761346998536
393,0.0009672446625222919,0.5811676427525623
394,0.0009722823951395956,0.5811676427525623
395,0.0009722823951395956,0.5815336749633968
396,0.000977320127756899,0.5815336749633968
397,0.000977320127756899,0.5816251830161054
398,0.0009823578603742028,0.5816251830161054
399,0.0009823578603742028,0.5818997071742313
400,0.0009873955929915064,0.5818997071742313
401,0.0009873955929915064,0.5823572474377745
402,0.00099243332560881,0.5823572474377745
403,0.00099243332560881,0.5825402635431918
404,0.0009974710582261136,0.5825402635431918
405,0.0009974710582261136,0.5830893118594437
406,0.0010025087908434173,0.5830893118594437
407,0.0010025087908434173,0.5834553440702782
408,0.0010075465234607207,0.5834553440702782
409,0.0010075465234607207,0.5846449487554904
410,0.001017621988695328,0.5846449487554904
411,0.001017621988695328,0.5848279648609077
412,0.0010226597213126316,0.5848279648609077
413,0.0010226597213126316,0.5850109809663251
414,0.0010276974539299352,0.5850109809663251
415,0.0010276974539299352,0.5854685212298683
416,0.0010377729191645424,0.5854685212298683
417,0.0010377729191645424,0.5865666178623719
418,0.001042810651781846,0.5865666178623719
419,0.001042810651781846,0.5872071742313324
420,0.0010478483843991495,0.5872071742313324
421,0.0010478483843991495,0.587298682284041
422,0.0010528861170164532,0.587298682284041
423,0.0010528861170164532,0.5885797950219619
424,0.001057923849633757,0.5885797950219619
425,0.001057923849633757,0.5900439238653001
426,0.0010629615822510604,0.5900439238653001
427,0.0010629615822510604,0.5901354319180088
428,0.001067999314868364,0.5901354319180088
429,0.001067999314868364,0.5910505124450952
430,0.0010730370474856677,0.5910505124450952
431,0.0010730370474856677,0.5911420204978038
432,0.0010831125127202749,0.5911420204978038
433,0.0010831125127202749,0.5918740849194729
434,0.0010881502453375786,0.5918740849194729
435,0.0010881502453375786,0.5923316251830161
436,0.001093187977954882,0.5923316251830161
437,0.001093187977954882,0.5927891654465594
438,0.0010982257105721857,0.5927891654465594
439,0.0010982257105721857,0.5944363103953147
440,0.0011083011758067929,0.5944363103953147
441,0.0011083011758067929,0.5947108345534406
442,0.0011334898388933108,0.5947108345534406
443,0.0011334898388933108,0.5950768667642753
444,0.0011385275715106145,0.5950768667642753
445,0.0011385275715106145,0.5952598828696926
446,0.0011435653041279182,0.5952598828696926
447,0.0011435653041279182,0.5955344070278185
448,0.0011486030367452217,0.5955344070278185
449,0.0011486030367452217,0.5957174231332357
450,0.0011536407693625253,0.5957174231332357
451,0.0011536407693625253,0.5959919472913616
452,0.001158678501979829,0.5959919472913616
453,0.001158678501979829,0.5975475841874085
454,0.0011687539672144362,0.5975475841874085
455,0.0011687539672144362,0.5978221083455344
456,0.0011737916998317396,0.5978221083455344
457,0.0011737916998317396,0.597913616398243
458,0.0011889048976836505,0.597913616398243
459,0.0011889048976836505,0.5981881405563689
460,0.0011939426303009541,0.5981881405563689
461,0.0011939426303009541,0.5983711566617862
462,0.0011989803629182578,0.5983711566617862
463,0.0011989803629182578,0.5984626647144948
464,0.001209055828152865,0.5984626647144948
465,0.001209055828152865,0.5988286969253295
466,0.0012140935607701687,0.5988286969253295
467,0.0012140935607701687,0.5994692532942899
468,0.0012241690260047758,0.5994692532942899
469,0.0012241690260047758,0.5995607613469985
470,0.0012292067586220793,0.5995607613469985
471,0.0012292067586220793,0.5996522693997072
472,0.001234244491239383,0.5996522693997072
473,0.001234244491239383,0.6004758418740849
474,0.0012493576890912938,0.6004758418740849
475,0.0012493576890912938,0.6021229868228404
476,0.0012543954217085975,0.6021229868228404
477,0.0012543954217085975,0.6033125915080527
478,0.001259433154325901,0.6033125915080527
479,0.001259433154325901,0.6036786237188873
480,0.0012644708869432046,0.6036786237188873
481,0.0012644708869432046,0.6040446559297218
482,0.0012695086195605083,0.6040446559297218
483,0.0012695086195605083,0.6041361639824304
484,0.0012846218174124191,0.6041361639824304
485,0.0012846218174124191,0.6045021961932651
486,0.0012896595500297226,0.6045021961932651
487,0.0012896595500297226,0.6045937042459737
488,0.0012946972826470263,0.6045937042459737
489,0.0012946972826470263,0.6049597364568082
490,0.0013047727478816334,0.6049597364568082
491,0.0013047727478816334,0.6050512445095169
492,0.001309810480498937,0.6050512445095169
493,0.001309810480498937,0.6052342606149341
494,0.0013148482131162406,0.6052342606149341
495,0.0013148482131162406,0.6056002928257687
496,0.0013198859457335442,0.6056002928257687
497,0.0013198859457335442,0.6075219619326501
498,0.0013299614109681514,0.6075219619326501
499,0.0013299614109681514,0.607796486090776
500,0.0013400368762027587,0.607796486090776
501,0.0013400368762027587,0.6083455344070278
502,0.0013450746088200622,0.6083455344070278
503,0.0013450746088200622,0.6084370424597365
504,0.0013551500740546696,0.6084370424597365
505,0.0013551500740546696,0.6085285505124451
506,0.001360187806671973,0.6085285505124451
507,0.001360187806671973,0.6087115666178624
508,0.0013652255392892767,0.6087115666178624
509,0.0013652255392892767,0.6088945827232797
510,0.0013702632719065802,0.6088945827232797
511,0.0013702632719065802,0.6091691068814056
512,0.0013753010045238839,0.6091691068814056
513,0.0013753010045238839,0.6092606149341142
514,0.0013803387371411876,0.6092606149341142
515,0.0013803387371411876,0.6093521229868228
516,0.0013904142023757947,0.6093521229868228
517,0.0013904142023757947,0.609809663250366
518,0.0013954519349930984,0.609809663250366
519,0.0013954519349930984,0.6108162518301611
520,0.0014004896676104018,0.6108162518301611
521,0.0014004896676104018,0.6113653001464129
522,0.0014105651328450092,0.6113653001464129
523,0.0014105651328450092,0.611822840409956
524,0.0014156028654623127,0.611822840409956
525,0.0014156028654623127,0.6126464128843339
526,0.0014206405980796164,0.6126464128843339
527,0.0014206405980796164,0.6128294289897511
528,0.00142567833069692,0.6128294289897511
529,0.00142567833069692,0.6131954612005857
530,0.0014307160633142235,0.6131954612005857
531,0.0014307160633142235,0.6140190336749634
532,0.0014407915285488306,0.6140190336749634
533,0.0014407915285488306,0.6142935578330894
534,0.001450866993783438,0.6142935578330894
535,0.001450866993783438,0.614385065885798
536,0.0014559047264007415,0.614385065885798
537,0.0014559047264007415,0.6145680819912153
538,0.0014609424590180452,0.6145680819912153
539,0.0014609424590180452,0.6146595900439239
540,0.0014659801916353488,0.6146595900439239
541,0.0014659801916353488,0.6150256222547584
542,0.0014710179242526523,0.6150256222547584
543,0.0014710179242526523,0.6151171303074671
544,0.001476055656869956,0.6151171303074671
545,0.001476055656869956,0.6154831625183016
546,0.0014861311221045631,0.6154831625183016
547,0.0014861311221045631,0.6160322108345534
548,0.0014962065873391703,0.6160322108345534
549,0.0014962065873391703,0.6162152269399708
550,0.0015062820525737776,0.6162152269399708
551,0.0015062820525737776,0.6163067349926794
552,0.001511319785191081,0.6163067349926794
553,0.001511319785191081,0.6171303074670571
554,0.0015213952504256885,0.6171303074670571
555,0.0015213952504256885,0.6174963396778916
556,0.001526432983042992,0.6174963396778916
557,0.001526432983042992,0.6178623718887262
558,0.0015365084482775993,0.6178623718887262
559,0.0015365084482775993,0.6193265007320644
560,0.0015415461808949028,0.6193265007320644
561,0.0015415461808949028,0.6195095168374817
562,0.0015465839135122064,0.6195095168374817
563,0.0015465839135122064,0.6196925329428989
564,0.0015516216461295101,0.6196925329428989
565,0.0015516216461295101,0.6199670571010248
566,0.0015566593787468136,0.6199670571010248
567,0.0015566593787468136,0.6201500732064422
568,0.0015717725765987244,0.6201500732064422
569,0.0015717725765987244,0.6208821376281113
570,0.001576810309216028,0.6208821376281113
571,0.001576810309216028,0.6209736456808199
572,0.0015818480418333316,0.6209736456808199
573,0.0015818480418333316,0.6210651537335286
574,0.001591923507067939,0.6210651537335286
575,0.001591923507067939,0.6213396778916545
576,0.0015969612396852424,0.6213396778916545
577,0.0015969612396852424,0.6216142020497804
578,0.001601998972302546,0.6216142020497804
579,0.001601998972302546,0.6219802342606149
580,0.0016070367049198498,0.6219802342606149
581,0.0016070367049198498,0.6224377745241582
582,0.0016120744375371532,0.6224377745241582
583,0.0016120744375371532,0.6227122986822841
584,0.0016221499027717606,0.6227122986822841
585,0.0016221499027717606,0.6228953147877013
586,0.001627187635389064,0.6228953147877013
587,0.001627187635389064,0.6231698389458272
588,0.0016322253680063677,0.6231698389458272
589,0.0016322253680063677,0.6232613469985359
590,0.0016372631006236712,0.6232613469985359
591,0.0016372631006236712,0.6236273792093704
592,0.0016423008332409749,0.6236273792093704
593,0.0016423008332409749,0.6238103953147877
594,0.001652376298475582,0.6238103953147877
595,0.001652376298475582,0.6244509516837482
596,0.0016574140310928857,0.6244509516837482
597,0.0016574140310928857,0.6246339677891655
598,0.0016624517637101894,0.6246339677891655
599,0.0016624517637101894,0.6251830161054173
600,0.0016674894963274929,0.6251830161054173
601,0.0016674894963274929,0.6253660322108345
602,0.0016725272289447965,0.6253660322108345
603,0.0016725272289447965,0.6259150805270863
604,0.0016826026941794037,0.6259150805270863
605,0.0016826026941794037,0.6261896046852123
606,0.001692678159414011,0.6261896046852123
607,0.001692678159414011,0.6264641288433382
608,0.0016977158920313145,0.6264641288433382
609,0.0016977158920313145,0.6268301610541728
610,0.0017027536246486182,0.6268301610541728
611,0.0017027536246486182,0.62701317715959
612,0.0017077913572659217,0.62701317715959
613,0.0017077913572659217,0.6272877013177159
614,0.0017128290898832253,0.6272877013177159
615,0.0017128290898832253,0.6278367496339677
616,0.001717866822500529,0.6278367496339677
617,0.001717866822500529,0.6280197657393851
618,0.0017229045551178325,0.6280197657393851
619,0.0017229045551178325,0.6281112737920937
620,0.0017279422877351362,0.6281112737920937
621,0.0017279422877351362,0.628294289897511
622,0.0017380177529697433,0.628294289897511
623,0.0017380177529697433,0.6284773060029283
624,0.0017480932182043507,0.6284773060029283
625,0.0017480932182043507,0.629300878477306
626,0.0017531309508216541,0.629300878477306
627,0.0017531309508216541,0.6293923865300146
628,0.0017581686834389578,0.6293923865300146
629,0.0017581686834389578,0.6296669106881405
630,0.0017632064160562613,0.6296669106881405
631,0.0017632064160562613,0.6298499267935578
632,0.001768244148673565,0.6298499267935578
633,0.001768244148673565,0.6299414348462665
634,0.0017732818812908687,0.6299414348462665
635,0.0017732818812908687,0.6300329428989752
636,0.0017783196139081721,0.6300329428989752
637,0.0017783196139081721,0.6303074670571011
638,0.0017833573465254758,0.6303074670571011
639,0.0017833573465254758,0.630581991215227
640,0.0017883950791427795,0.630581991215227
641,0.0017883950791427795,0.6317715959004392
642,0.001793432811760083,0.6317715959004392
643,0.001793432811760083,0.6321376281112738
644,0.0017984705443773866,0.6321376281112738
645,0.0017984705443773866,0.6322291361639825
646,0.0018035082769946903,0.6322291361639825
647,0.0018035082769946903,0.6323206442166911
648,0.0018236592074639046,0.6323206442166911
649,0.0018236592074639046,0.632595168374817
650,0.0018337346726985118,0.632595168374817
651,0.0018337346726985118,0.6326866764275256
652,0.0018438101379331191,0.6326866764275256
653,0.0018438101379331191,0.6329612005856515
654,0.0018488478705504226,0.6329612005856515
655,0.0018488478705504226,0.6330527086383602
656,0.00185892333578503,0.6330527086383602
657,0.00185892333578503,0.6331442166910688
658,0.0018639610684023334,0.6331442166910688
659,0.0018639610684023334,0.6332357247437774
660,0.001868998801019637,0.6332357247437774
661,0.001868998801019637,0.6335102489019033
662,0.0018740365336369408,0.6335102489019033
663,0.0018740365336369408,0.6337847730600292
664,0.0018790742662542442,0.6337847730600292
665,0.0018790742662542442,0.6342423133235725
666,0.001884111998871548,0.6342423133235725
667,0.001884111998871548,0.6349743777452416
668,0.0018891497314888516,0.6349743777452416
669,0.0018891497314888516,0.6350658857979502
670,0.0018992251967234587,0.6350658857979502
671,0.0018992251967234587,0.6354319180087847
672,0.0019042629293407622,0.6354319180087847
673,0.0019042629293407622,0.6362554904831625
674,0.0019143383945753696,0.6362554904831625
675,0.0019143383945753696,0.6368045387994143
676,0.001919376127192673,0.6368045387994143
677,0.001919376127192673,0.6374450951683748
678,0.0019244138598099767,0.6374450951683748
679,0.0019244138598099767,0.6383601756954612
680,0.0019294515924272804,0.6383601756954612
681,0.0019294515924272804,0.6387262079062958
682,0.0019395270576618876,0.6387262079062958
683,0.0019395270576618876,0.6388177159590044
684,0.0019445647902791912,0.6388177159590044
685,0.0019445647902791912,0.638909224011713
686,0.0019496025228964947,0.638909224011713
687,0.0019496025228964947,0.6390007320644217
688,0.001954640255513798,0.6390007320644217
689,0.001954640255513798,0.640190336749634
690,0.001959677988131102,0.640190336749634
691,0.001959677988131102,0.6404648609077599
692,0.0019647157207484055,0.6404648609077599
693,0.0019647157207484055,0.6409224011713031
694,0.001969753453365709,0.6409224011713031
695,0.001969753453365709,0.6414714494875549
696,0.001974791185983013,0.6414714494875549
697,0.001974791185983013,0.6415629575402635
698,0.0019798289186003164,0.6415629575402635
699,0.00198486665121762,0.6416544655929722
700,0.0019999798490695306,0.6416544655929722
701,0.0019999798490695306,0.642203513909224
702,0.002010055314304138,0.642203513909224
703,0.002010055314304138,0.6422950219619327
704,0.0020150930469214415,0.6422950219619327
705,0.0020150930469214415,0.6423865300146413
706,0.002025168512156049,0.6423865300146413
707,0.002025168512156049,0.6426610541727672
708,0.0020302062447733523,0.6426610541727672
709,0.0020302062447733523,0.6429355783308931
710,0.0020402817100079597,0.6429355783308931
711,0.0020402817100079597,0.6433931185944363
712,0.002050357175242567,0.6433931185944363
713,0.002050357175242567,0.6436676427525623
714,0.002060432640477174,0.6436676427525623
715,0.002060432640477174,0.6440336749633968
716,0.0020654703730944774,0.6440336749633968
717,0.0020654703730944774,0.6441251830161054
718,0.0020705081057117813,0.6441251830161054
719,0.0020705081057117813,0.6442166910688141
720,0.002075545838329085,0.6442166910688141
721,0.002075545838329085,0.6443997071742313
722,0.0020805835709463883,0.6443997071742313
723,0.0020805835709463883,0.6446742313323572
724,0.002085621303563692,0.6446742313323572
725,0.002085621303563692,0.6447657393850659
726,0.0020906590361809956,0.6447657393850659
727,0.0020906590361809956,0.6449487554904831
728,0.002095696768798299,0.6449487554904831
729,0.002095696768798299,0.6450402635431918
730,0.002100734501415603,0.6450402635431918
731,0.002100734501415603,0.645223279648609
732,0.0021057722340329064,0.645223279648609
733,0.0021057722340329064,0.6454062957540263
734,0.002115847699267514,0.6454062957540263
735,0.002115847699267514,0.645772327964861
736,0.0021208854318848173,0.645772327964861
737,0.0021208854318848173,0.6468704245973645
738,0.0021259231645021207,0.6468704245973645
739,0.0021259231645021207,0.6469619326500732
740,0.002135998629736728,0.6469619326500732
741,0.002135998629736728,0.6474194729136163
742,0.0021410363623540316,0.6474194729136163
743,0.0021410363623540316,0.6475109809663251
744,0.0021460740949713355,0.6475109809663251
745,0.0021460740949713355,0.6476024890190337
746,0.0021611872928232463,0.6476024890190337
747,0.0021611872928232463,0.6476939970717424
748,0.0021662250254405498,0.6476939970717424
749,0.0021662250254405498,0.6480600292825769
750,0.0021712627580578532,0.6480600292825769
751,0.0021712627580578532,0.6483345534407028
752,0.002176300490675157,0.6483345534407028
753,0.002176300490675157,0.6484260614934114
754,0.0021813382232924606,0.6484260614934114
755,0.0021813382232924606,0.6487005856515373
756,0.002191413688527068,0.6487005856515373
757,0.002191413688527068,0.648792093704246
758,0.0021964514211443714,0.648792093704246
759,0.0021964514211443714,0.6496156661786238
760,0.002201489153761675,0.6496156661786238
761,0.002201489153761675,0.6497071742313324
762,0.0022065268863789783,0.6497071742313324
763,0.0022065268863789783,0.6498901903367497
764,0.0022115646189962822,0.6498901903367497
765,0.0022115646189962822,0.6499816983894583
766,0.0022166023516135857,0.6499816983894583
767,0.0022166023516135857,0.6501647144948756
768,0.002221640084230889,0.6501647144948756
769,0.002221640084230889,0.6503477306002928
770,0.002226677816848193,0.6503477306002928
771,0.002226677816848193,0.6504392386530015
772,0.0022317155494654965,0.6504392386530015
773,0.0022317155494654965,0.6505307467057101
774,0.0022367532820828,0.6505307467057101
775,0.0022367532820828,0.6508967789165446
776,0.0022468287473174074,0.6508967789165446
777,0.0022468287473174074,0.6509882869692533
778,0.0022569042125520147,0.6509882869692533
779,0.0022569042125520147,0.6510797950219619
780,0.002261941945169318,0.6510797950219619
781,0.002261941945169318,0.6529099560761347
782,0.0022720174104039256,0.6529099560761347
783,0.0022720174104039256,0.6533674963396779
784,0.002277055143021229,0.6533674963396779
785,0.002277055143021229,0.6540080527086384
786,0.0022820928756385325,0.6540080527086384
787,0.0022820928756385325,0.6546486090775988
788,0.00229216834087314,0.6546486090775988
789,0.00229216834087314,0.6547401171303074
790,0.0022972060734904433,0.6547401171303074
791,0.0022972060734904433,0.6548316251830161
792,0.0023022438061077472,0.6548316251830161
793,0.0023022438061077472,0.6549231332357247
794,0.0023072815387250507,0.6549231332357247
795,0.0023072815387250507,0.6550146412884333
796,0.002312319271342354,0.6550146412884333
797,0.002312319271342354,0.655106149341142
798,0.002317357003959658,0.655106149341142
799,0.002317357003959658,0.6555636896046853
800,0.0023223947365769615,0.6555636896046853
801,0.0023223947365769615,0.656387262079063
802,0.002327432469194265,0.656387262079063
803,0.002327432469194265,0.6568448023426061
804,0.0023324702018115684,0.6568448023426061
805,0.0023324702018115684,0.6570278184480234
806,0.0023375079344288723,0.6570278184480234
807,0.0023375079344288723,0.6572108345534406
808,0.0023475833996634793,0.6572108345534406
809,0.0023475833996634793,0.6575768667642753
810,0.002352621132280783,0.6575768667642753
811,0.002352621132280783,0.6581259150805271
812,0.0023576588648980866,0.6581259150805271
813,0.0023576588648980866,0.6592240117130308
814,0.00236269659751539,0.6592240117130308
815,0.00236269659751539,0.6594070278184481
816,0.002367734330132694,0.6594070278184481
817,0.002367734330132694,0.6599560761346999
818,0.0023727720627499975,0.6599560761346999
819,0.0023727720627499975,0.6600475841874085
820,0.002377809795367301,0.6600475841874085
821,0.002377809795367301,0.6602306002928258
822,0.0023878852606019083,0.6602306002928258
823,0.0023878852606019083,0.6606881405563689
824,0.0023979607258365157,0.6606881405563689
825,0.0023979607258365157,0.6610541727672035
826,0.002402998458453819,0.6610541727672035
827,0.002402998458453819,0.6611456808199122
828,0.0024080361910711226,0.6611456808199122
829,0.0024080361910711226,0.6613286969253295
830,0.0024130739236884265,0.6613286969253295
831,0.0024130739236884265,0.6614202049780381
832,0.00241811165630573,0.6614202049780381
833,0.00241811165630573,0.6616032210834554
834,0.0024231493889230334,0.6616032210834554
835,0.0024231493889230334,0.661694729136164
836,0.0024281871215403373,0.661694729136164
837,0.0024281871215403373,0.6617862371888726
838,0.0024332248541576408,0.6617862371888726
839,0.0024332248541576408,0.6623352855051244
840,0.0024483380520095516,0.6623352855051244
841,0.0024483380520095516,0.6625183016105417
842,0.0024634512498614624,0.6625183016105417
843,0.0024634512498614624,0.6628843338213762
844,0.002468488982478766,0.6628843338213762
845,0.002468488982478766,0.6630673499267935
846,0.0024735267150960694,0.6630673499267935
847,0.0024735267150960694,0.6632503660322109
848,0.00248863991294798,0.6632503660322109
849,0.00248863991294798,0.6633418740849195
850,0.002493677645565284,0.6633418740849195
851,0.002493677645565284,0.6634333821376281
852,0.0024987153781825876,0.6634333821376281
853,0.0024987153781825876,0.6635248901903368
854,0.002503753110799891,0.6635248901903368
855,0.002503753110799891,0.663707906295754
856,0.002518866308651802,0.663707906295754
857,0.002518866308651802,0.66398243045388
858,0.002528941773886409,0.66398243045388
859,0.002528941773886409,0.6640739385065886
860,0.0025339795065037127,0.6640739385065886
861,0.0025339795065037127,0.6642569546120058
862,0.00254405497173832,0.6642569546120058
863,0.00254405497173832,0.6645314787701317
864,0.0025541304369729274,0.6645314787701317
865,0.0025541304369729274,0.664714494875549
866,0.002559168169590231,0.664714494875549
867,0.002559168169590231,0.6655380673499268
868,0.0025642059022075343,0.6655380673499268
869,0.0025642059022075343,0.6656295754026355
870,0.0025692436348248382,0.6656295754026355
871,0.0025692436348248382,0.66599560761347
872,0.0025742813674421417,0.66599560761347
873,0.0025742813674421417,0.6660871156661786
874,0.0025893945652940525,0.6660871156661786
875,0.0025893945652940525,0.6664531478770132
876,0.002594432297911356,0.6664531478770132
877,0.002594432297911356,0.6666361639824304
878,0.0025994700305286595,0.6666361639824304
879,0.0025994700305286595,0.6668191800878477
880,0.002619620960997874,0.6668191800878477
881,0.002619620960997874,0.6669106881405563
882,0.0026246586936151776,0.6669106881405563
883,0.0026246586936151776,0.6670937042459737
884,0.002634734158849785,0.6670937042459737
885,0.002634734158849785,0.6673682284040996
886,0.0026397718914670885,0.6673682284040996
887,0.0026397718914670885,0.6677342606149341
888,0.002644809624084392,0.6677342606149341
889,0.002644809624084392,0.6686493411420205
890,0.002649847356701696,0.6686493411420205
891,0.002649847356701696,0.6691983894582724
892,0.0026548850893189993,0.6691983894582724
893,0.0026548850893189993,0.6701134699853587
894,0.0026649605545536067,0.6701134699853587
895,0.0026649605545536067,0.6702049780380673
896,0.00266999828717091,0.6702049780380673
897,0.00266999828717091,0.6708455344070278
898,0.0026750360197882136,0.6708455344070278
899,0.0026750360197882136,0.6710285505124451
900,0.0026800737524055175,0.6710285505124451
901,0.0026800737524055175,0.6713945827232797
902,0.002700224682874732,0.6713945827232797
903,0.002700224682874732,0.6714860907759883
904,0.0027052624154920353,0.6714860907759883
905,0.0027052624154920353,0.6716691068814056
906,0.002710300148109339,0.6716691068814056
907,0.002710300148109339,0.6718521229868228
908,0.0027153378807266426,0.6718521229868228
909,0.0027153378807266426,0.6724011713030746
910,0.002720375613343946,0.6724011713030746
911,0.002720375613343946,0.6724926793557833
912,0.002735488811195857,0.6724926793557833
913,0.002735488811195857,0.6725841874084919
914,0.0027405265438131604,0.6725841874084919
915,0.0027405265438131604,0.6729502196193266
916,0.0027506020090477677,0.6729502196193266
917,0.0027506020090477677,0.6731332357247438
918,0.002755639741665071,0.6731332357247438
919,0.002755639741665071,0.6733162518301611
920,0.002760677474282375,0.6733162518301611
921,0.002760677474282375,0.6734992679355783
922,0.0027657152068996786,0.6734992679355783
923,0.0027657152068996786,0.6737737920937042
924,0.002770752939516982,0.6737737920937042
925,0.002770752939516982,0.6742313323572474
926,0.002775790672134286,0.6742313323572474
927,0.002775790672134286,0.674597364568082
928,0.0027808284047515894,0.674597364568082
929,0.0027808284047515894,0.6752379209370425
930,0.0027909038699861968,0.6752379209370425
931,0.0027909038699861968,0.675603953147877
932,0.0027959416026035002,0.675603953147877
933,0.0027959416026035002,0.6756954612005857
934,0.0028009793352208037,0.6756954612005857
935,0.0028009793352208037,0.6760614934114202
936,0.0028060170678381076,0.6760614934114202
937,0.0028060170678381076,0.6762445095168375
938,0.002811054800455411,0.6762445095168375
939,0.002811054800455411,0.6764275256222547
940,0.0028160925330727145,0.6764275256222547
941,0.0028160925330727145,0.6767020497803806
942,0.0028312057309246253,0.6767020497803806
943,0.0028312057309246253,0.6767935578330894
944,0.0028412811961592327,0.6767935578330894
945,0.0028412811961592327,0.6770680819912153
946,0.002846318928776536,0.6770680819912153
947,0.002846318928776536,0.6774341142020498
948,0.0028664698592457505,0.6774341142020498
949,0.0028664698592457505,0.677891654465593
950,0.0028715075918630544,0.677891654465593
951,0.0028715075918630544,0.6791727672035139
952,0.002876545324480358,0.6791727672035139
953,0.002876545324480358,0.6792642752562226
954,0.0028815830570976613,0.6792642752562226
955,0.0028815830570976613,0.6795387994143485
956,0.002886620789714965,0.6795387994143485
957,0.002886620789714965,0.6799963396778916
958,0.0028916585223322687,0.6799963396778916
959,0.0028916585223322687,0.6802708638360175
960,0.002896696254949572,0.6802708638360175
961,0.002896696254949572,0.6803623718887262
962,0.002901733987566876,0.6803623718887262
963,0.002901733987566876,0.6808199121522694
964,0.002916847185418787,0.6808199121522694
965,0.002916847185418787,0.681185944363104
966,0.0029218849180360903,0.681185944363104
967,0.0029218849180360903,0.6814604685212299
968,0.0029269226506533938,0.6814604685212299
969,0.0029269226506533938,0.6815519765739385
970,0.0029319603832706977,0.6815519765739385
971,0.0029319603832706977,0.6817349926793558
972,0.0029470735811226085,0.6817349926793558
973,0.0029470735811226085,0.6820095168374817
974,0.002952111313739912,0.6820095168374817
975,0.002952111313739912,0.6824670571010248
976,0.0029571490463572154,0.6824670571010248
977,0.0029571490463572154,0.6828330893118595
978,0.002967224511591823,0.6828330893118595
979,0.002967224511591823,0.6829245973645681
980,0.0029722622442091263,0.6829245973645681
981,0.0029722622442091263,0.6831076134699854
982,0.0029974509072956445,0.6831076134699854
983,0.0029974509072956445,0.683199121522694
984,0.0030075263725302514,0.683199121522694
985,0.0030075263725302514,0.6835651537335286
986,0.0030125641051475553,0.6835651537335286
987,0.0030125641051475553,0.6839311859443631
988,0.003022639570382162,0.6839311859443631
989,0.003022639570382162,0.6840226939970717
990,0.003027677302999466,0.6840226939970717
991,0.003027677302999466,0.6842972181551976
992,0.0030327150356167696,0.6842972181551976
993,0.0030327150356167696,0.6846632503660323
994,0.003037752768234073,0.6846632503660323
995,0.003037752768234073,0.6851207906295754
996,0.003042790500851377,0.6851207906295754
997,0.003042790500851377,0.6853038067349927
998,0.003052865966085984,0.6853038067349927
999,0.003052865966085984,0.68548682284041
1000,0.0030629414313205912,0.68548682284041
1001,0.0030629414313205912,0.6855783308931186
1002,0.0030730168965551986,0.6855783308931186
1003,0.0030730168965551986,0.6856698389458272
1004,0.0030830923617898055,0.6856698389458272
1005,0.0030830923617898055,0.6857613469985359
1006,0.0030881300944071094,0.6857613469985359
1007,0.0030881300944071094,0.6859443631039531
1008,0.0030982055596417164,0.6859443631039531
1009,0.0030982055596417164,0.6861273792093704
1010,0.0031082810248763237,0.6861273792093704
1011,0.0031082810248763237,0.6866764275256223
1012,0.003118356490110931,0.6866764275256223
1013,0.003118356490110931,0.6867679355783309
1014,0.0031233942227282346,0.6867679355783309
1015,0.0031233942227282346,0.6869509516837482
1016,0.003128431955345538,0.6869509516837482
1017,0.003128431955345538,0.6870424597364568
1018,0.0031334696879628415,0.6870424597364568
1019,0.0031334696879628415,0.6872254758418741
1020,0.0031385074205801454,0.6872254758418741
1021,0.0031385074205801454,0.6877745241581259
1022,0.003143545153197449,0.6877745241581259
1023,0.003143545153197449,0.6883235724743777
1024,0.0031485828858147523,0.6883235724743777
1025,0.0031485828858147523,0.6885980966325037
1026,0.003153620618432056,0.6885980966325037
1027,0.003153620618432056,0.6888726207906296
1028,0.0031586583510493597,0.6888726207906296
1029,0.0031586583510493597,0.6891471449487555
1030,0.003163696083666663,0.6891471449487555
1031,0.003163696083666663,0.6892386530014641
1032,0.003168733816283967,0.6892386530014641
1033,0.003168733816283967,0.68951317715959
1034,0.0031737715489012705,0.68951317715959
1035,0.0031737715489012705,0.6899707174231332
1036,0.003178809281518574,0.6899707174231332
1037,0.003178809281518574,0.6902452415812591
1038,0.0031888847467531813,0.6902452415812591
1039,0.0031888847467531813,0.6903367496339677
1040,0.003193922479370485,0.6903367496339677
1041,0.003193922479370485,0.6908857979502196
1042,0.003203997944605092,0.6908857979502196
1043,0.003203997944605092,0.6909773060029283
1044,0.0032090356772223956,0.6909773060029283
1045,0.0032090356772223956,0.6911603221083455
1046,0.0032140734098396995,0.6911603221083455
1047,0.0032140734098396995,0.6912518301610542
1048,0.003219111142457003,0.6912518301610542
1049,0.003219111142457003,0.6920754026354319
1050,0.0032241488750743065,0.6920754026354319
1051,0.0032241488750743065,0.6921669106881405
1052,0.0032291866076916103,0.6921669106881405
1053,0.0032291866076916103,0.6922584187408491
1054,0.0032493375381608246,0.6922584187408491
1055,0.0032493375381608246,0.6929904831625183
1056,0.0032594130033954316,0.6929904831625183
1057,0.0032594130033954316,0.6932650073206442
1058,0.003269488468630039,0.6932650073206442
1059,0.003269488468630039,0.6933565153733529
1060,0.0032745262012473424,0.6933565153733529
1061,0.0032745262012473424,0.6936310395314788
1062,0.0032795639338646463,0.6936310395314788
1063,0.0032795639338646463,0.6940885797950219
1064,0.003294677131716557,0.6940885797950219
1065,0.003294677131716557,0.6941800878477306
1066,0.003304752596951164,0.6941800878477306
1067,0.003304752596951164,0.6944546120058566
1068,0.0033148280621857714,0.6944546120058566
1069,0.0033148280621857714,0.6947291361639825
1070,0.003319865794803075,0.6947291361639825
1071,0.003319865794803075,0.6951866764275256
1072,0.003324903527420379,0.6951866764275256
1073,0.003324903527420379,0.6953696925329429
1074,0.0033299412600376822,0.6953696925329429
1075,0.0033299412600376822,0.6954612005856515
1076,0.0033349789926549857,0.6954612005856515
1077,0.0033349789926549857,0.6956442166910688
1078,0.0033500921905068965,0.6956442166910688
1079,0.0033500921905068965,0.6960102489019033
1080,0.0033551299231242004,0.6960102489019033
1081,0.0033551299231242004,0.6961932650073206
1082,0.003360167655741504,0.6961932650073206
1083,0.003360167655741504,0.6962847730600292
1084,0.0033652053883588074,0.6962847730600292
1085,0.0033652053883588074,0.6964677891654466
1086,0.003380318586210718,0.6964677891654466
1087,0.003380318586210718,0.6965592972181552
1088,0.0033903940514453256,0.6965592972181552
1089,0.0033903940514453256,0.6967423133235725
1090,0.0034004695166799325,0.6967423133235725
1091,0.0034004695166799325,0.6969253294289898
1092,0.0034055072492972364,0.6969253294289898
1093,0.0034055072492972364,0.6970168374816984
1094,0.00341054498191454,0.6970168374816984
1095,0.00341054498191454,0.697108345534407
1096,0.0034155827145318433,0.697108345534407
1097,0.0034155827145318433,0.6971998535871157
1098,0.0034256581797664507,0.6971998535871157
1099,0.0034256581797664507,0.6972913616398243
1100,0.003430695912383754,0.6972913616398243
1101,0.003430695912383754,0.6973828696925329
1102,0.003435733645001058,0.6973828696925329
1103,0.003435733645001058,0.6978404099560761
1104,0.0034407713776183615,0.6978404099560761
1105,0.0034407713776183615,0.6982979502196194
1106,0.003445809110235665,0.6982979502196194
1107,0.003445809110235665,0.698389458272328
1108,0.0034558845754702723,0.698389458272328
1109,0.0034558845754702723,0.6986639824304539
1110,0.003460922308087576,0.6986639824304539
1111,0.003460922308087576,0.6990300146412884
1112,0.003470997773322183,0.6990300146412884
1113,0.003470997773322183,0.6991215226939971
1114,0.0034911487037913975,0.6991215226939971
1115,0.0034911487037913975,0.699396046852123
1116,0.003501224169026005,0.699396046852123
1117,0.003501224169026005,0.6999450951683748
1118,0.0035062619016433083,0.6999450951683748
1119,0.0035062619016433083,0.7000366032210834
1120,0.003521375099495219,0.7000366032210834
1121,0.003521375099495219,0.700128111273792
1122,0.0035415260299644334,0.700128111273792
1123,0.0035415260299644334,0.7005856515373353
1124,0.0035465637625817373,0.7005856515373353
1125,0.0035465637625817373,0.7007686676427526
1126,0.0035516014951990408,0.7007686676427526
1127,0.0035516014951990408,0.7008601756954612
1128,0.003561676960433648,0.7008601756954612
1129,0.003561676960433648,0.7009516837481699
1130,0.0035667146930509516,0.7009516837481699
1131,0.0035667146930509516,0.7019582723279648
1132,0.0035818278909028624,0.7019582723279648
1133,0.0035818278909028624,0.7021412884333821
1134,0.003586865623520166,0.7021412884333821
1135,0.003586865623520166,0.7023243045387995
1136,0.00359190335613747,0.7023243045387995
1137,0.00359190335613747,0.7027818448023426
1138,0.0036070165539893806,0.7027818448023426
1139,0.0036070165539893806,0.7030563689604685
1140,0.0036221297518412915,0.7030563689604685
1141,0.0036221297518412915,0.7031478770131772
1142,0.003627167484458595,0.7031478770131772
1143,0.003627167484458595,0.7032393850658858
1144,0.0036372429496932023,0.7032393850658858
1145,0.0036372429496932023,0.7033308931185944
1146,0.0036422806823105057,0.7033308931185944
1147,0.0036422806823105057,0.7036054172767203
1148,0.003647318414927809,0.7036054172767203
1149,0.003647318414927809,0.7037884333821376
1150,0.003652356147545113,0.7038799414348462
1151,0.003652356147545113,0.7039714494875549
1152,0.0036573938801624166,0.7039714494875549
1153,0.0036573938801624166,0.7042459736456809
1154,0.00366243161277972,0.7042459736456809
1155,0.00366243161277972,0.7043374816983895
1156,0.0036674693453970235,0.7043374816983895
1157,0.0036674693453970235,0.7047950219619327
1158,0.0036825825432489343,0.7047950219619327
1159,0.0036825825432489343,0.7048865300146413
1160,0.0036876202758662382,0.7048865300146413
1161,0.0036876202758662382,0.7052525622254758
1162,0.003697695741100845,0.7052525622254758
1163,0.003697695741100845,0.7054355783308931
1164,0.003702733473718149,0.7054355783308931
1165,0.003702733473718149,0.7056185944363104
1166,0.0037077712063354525,0.7056185944363104
1167,0.0037077712063354525,0.705710102489019
1168,0.00371784667157006,0.705710102489019
1169,0.00371784667157006,0.7058016105417276
1170,0.003727922136804667,0.7058016105417276
1171,0.003727922136804667,0.7058931185944363
1172,0.0037329598694219707,0.7058931185944363
1173,0.0037329598694219707,0.7062591508052709
1174,0.0037430353346565776,0.7062591508052709
1175,0.0037430353346565776,0.7065336749633968
1176,0.0037480730672738815,0.7065336749633968
1177,0.0037480730672738815,0.7072657393850659
1178,0.003753110799891185,0.7072657393850659
1179,0.003753110799891185,0.7078147877013177
1180,0.0037581485325084885,0.7078147877013177
1181,0.0037581485325084885,0.7080893118594437
1182,0.003768223997743096,0.7080893118594437
1183,0.003768223997743096,0.7081808199121523
1184,0.003778299462977703,0.7081808199121523
1185,0.003778299462977703,0.708272327964861
1186,0.0037984503934469175,0.708272327964861
1187,0.0037984503934469175,0.7084553440702782
1188,0.0038085258586815244,0.7084553440702782
1189,0.0038085258586815244,0.7087298682284041
1190,0.0038135635912988283,0.7087298682284041
1191,0.0038135635912988283,0.7088213762811127
1192,0.003818601323916132,0.7088213762811127
1193,0.003818601323916132,0.7090959004392386
1194,0.0038236390565334353,0.7090959004392386
1195,0.0038236390565334353,0.7091874084919473
1196,0.003828676789150739,0.7091874084919473
1197,0.003828676789150739,0.7092789165446559
1198,0.0038337145217680426,0.7092789165446559
1199,0.0038337145217680426,0.7094619326500732
1200,0.003838752254385346,0.7094619326500732
1201,0.003838752254385346,0.7095534407027818
1202,0.0038488277196199534,0.7095534407027818
1203,0.0038488277196199534,0.7096449487554904
1204,0.0038639409174718643,0.7096449487554904
1205,0.0038639409174718643,0.7097364568081991
1206,0.0038740163827064716,0.7097364568081991
1207,0.0038740163827064716,0.7106515373352855
1208,0.0038840918479410786,0.7106515373352855
1209,0.0038840918479410786,0.7111090775988287
1210,0.003894167313175686,0.7111090775988287
1211,0.003894167313175686,0.7112005856515373
1212,0.0039042427784102933,0.7112005856515373
1213,0.0039042427784102933,0.7115666178623719
1214,0.003919355976262204,0.7115666178623719
1215,0.003919355976262204,0.7119326500732065
1216,0.003934469174114115,0.7119326500732065
1217,0.003934469174114115,0.7124816983894583
1218,0.003949582371966026,0.7124816983894583
1219,0.003949582371966026,0.7129392386530015
1220,0.003954620104583329,0.7129392386530015
1221,0.003954620104583329,0.7132137628111274
1222,0.003959657837200633,0.7132137628111274
1223,0.003959657837200633,0.7136713030746705
1224,0.003964695569817937,0.7136713030746705
1225,0.003964695569817937,0.7138543191800878
1226,0.003989884232904454,0.7138543191800878
1227,0.003989884232904454,0.7144033674963397
1228,0.003994921965521758,0.7144033674963397
1229,0.003994921965521758,0.7144948755490483
1230,0.003999959698139061,0.7144948755490483
1231,0.003999959698139061,0.7146778916544656
1232,0.004004997430756365,0.7146778916544656
1233,0.004004997430756365,0.7149524158125915
1234,0.004010035163373669,0.7149524158125915
1235,0.004010035163373669,0.7152269399707174
1236,0.004015072895990972,0.7152269399707174
1237,0.004015072895990972,0.715318448023426
1238,0.004020110628608276,0.715318448023426
1239,0.004020110628608276,0.7155929721815519
1240,0.00402514836122558,0.7155929721815519
1241,0.00402514836122558,0.7159590043923866
1242,0.004030186093842883,0.7159590043923866
1243,0.004030186093842883,0.7162335285505125
1244,0.004035223826460187,0.7162335285505125
1245,0.004035223826460187,0.7164165446559297
1246,0.004040261559077491,0.7164165446559297
1247,0.004040261559077491,0.7166910688140556
1248,0.004050337024312098,0.7166910688140556
1249,0.004050337024312098,0.7171486090775988
1250,0.004055374756929402,0.7171486090775988
1251,0.004055374756929402,0.7172401171303074
1252,0.0040755256873986154,0.7172401171303074
1253,0.0040755256873986154,0.717606149341142
1254,0.004080563420015919,0.717606149341142
1255,0.004080563420015919,0.717880673499268
1256,0.00409567661786783,0.717880673499268
1257,0.00409567661786783,0.7182467057101025
1258,0.004115827548337045,0.7182467057101025
1259,0.004115827548337045,0.718612737920937
1260,0.004120865280954348,0.718612737920937
1261,0.004120865280954348,0.7187957540263543
1262,0.004135978478806259,0.7187957540263543
1263,0.004135978478806259,0.7190702781844802
1264,0.004141016211423563,0.7190702781844802
1265,0.004141016211423563,0.7191617862371888
1266,0.004146053944040866,0.7191617862371888
1267,0.004146053944040866,0.7192532942898975
1268,0.0041611671418927765,0.7192532942898975
1269,0.0041611671418927765,0.719619326500732
1270,0.00416620487451008,0.719619326500732
1271,0.00416620487451008,0.719893850658858
1272,0.004171242607127384,0.7199853587115667
1273,0.004186355804979295,0.7199853587115667
1274,0.004186355804979295,0.7205344070278185
1275,0.004196431270213902,0.7205344070278185
1276,0.004196431270213902,0.7206259150805271
1277,0.004206506735448509,0.7206259150805271
1278,0.004206506735448509,0.7207174231332357
1279,0.004211544468065813,0.7207174231332357
1280,0.004211544468065813,0.7209919472913616
1281,0.004216582200683117,0.7209919472913616
1282,0.004216582200683117,0.7211749633967789
1283,0.00422161993330042,0.7211749633967789
1284,0.00422161993330042,0.7213579795021962
1285,0.004226657665917724,0.7213579795021962
1286,0.004226657665917724,0.7215409956076134
1287,0.004231695398535028,0.7215409956076134
1288,0.004231695398535028,0.7217240117130308
1289,0.004236733131152331,0.7217240117130308
1290,0.004236733131152331,0.7218155197657394
1291,0.0042417708637696346,0.7218155197657394
1292,0.0042417708637696346,0.7225475841874085
1293,0.0042468085963869385,0.7225475841874085
1294,0.0042468085963869385,0.7230966325036603
1295,0.0042518463290042415,0.7230966325036603
1296,0.0042518463290042415,0.7240117130307467
1297,0.004256884061621545,0.7240117130307467
1298,0.004256884061621545,0.7241032210834554
1299,0.004261921794238849,0.7241032210834554
1300,0.004261921794238849,0.7245607613469985
1301,0.004271997259473456,0.7245607613469985
1302,0.004271997259473456,0.7247437774524158
1303,0.004287110457325367,0.7247437774524158
1304,0.004287110457325367,0.725201317715959
1305,0.004292148189942671,0.725201317715959
1306,0.004292148189942671,0.7252928257686676
1307,0.004307261387794582,0.7252928257686676
1308,0.004307261387794582,0.7253843338213762
1309,0.004317336853029189,0.7253843338213762
1310,0.004317336853029189,0.7254758418740849
1311,0.004322374585646493,0.7254758418740849
1312,0.004322374585646493,0.7258418740849195
1313,0.004327412318263796,0.7258418740849195
1314,0.004327412318263796,0.7259333821376281
1315,0.004352600981350314,0.7259333821376281
1316,0.004352600981350314,0.7260248901903368
1317,0.004357638713967617,0.7260248901903368
1318,0.004357638713967617,0.7261163982430454
1319,0.004362676446584921,0.7261163982430454
1320,0.004362676446584921,0.7262994143484627
1321,0.004367714179202225,0.7262994143484627
1322,0.004367714179202225,0.7268484626647145
1323,0.004377789644436832,0.7268484626647145
1324,0.004377789644436832,0.7270314787701317
1325,0.004387865109671439,0.7270314787701317
1326,0.004387865109671439,0.727214494875549
1327,0.004397940574906046,0.727214494875549
1328,0.004397940574906046,0.7275805270863837
1329,0.004413053772757957,0.7275805270863837
1330,0.004413053772757957,0.7278550512445096
1331,0.0044231292379925645,0.7278550512445096
1332,0.0044231292379925645,0.7279465592972182
1333,0.004443280168461778,0.7279465592972182
1334,0.004443280168461778,0.7282210834553441
1335,0.004453355633696386,0.7282210834553441
1336,0.004453355633696386,0.7283125915080527
1337,0.004458393366313689,0.7283125915080527
1338,0.004458393366313689,0.72849560761347
1339,0.004463431098930993,0.72849560761347
1340,0.004463431098930993,0.7285871156661786
1341,0.004463431098930993,0.7287701317715959
1342,0.004463431098930993,0.7289531478770132
1343,0.004478544296782904,0.7289531478770132
1344,0.004478544296782904,0.7290446559297218
1345,0.004483582029400208,0.7290446559297218
1346,0.004483582029400208,0.729227672035139
1347,0.004488619762017511,0.729227672035139
1348,0.004488619762017511,0.7295021961932651
1349,0.004493657494634815,0.7295021961932651
1350,0.004493657494634815,0.7295937042459737
1351,0.004498695227252119,0.7295937042459737
1352,0.004498695227252119,0.7296852122986823
1353,0.004503732959869422,0.7296852122986823
1354,0.004503732959869422,0.729776720351391
1355,0.0045138084251040295,0.729776720351391
1356,0.0045138084251040295,0.7298682284040996
1357,0.00452892162295594,0.7298682284040996
1358,0.00452892162295594,0.7299597364568082
1359,0.004533959355573243,0.7299597364568082
1360,0.004533959355573243,0.7304172767203514
1361,0.004544034820807851,0.7304172767203514
1362,0.004544034820807851,0.7311493411420205
1363,0.004554110286042458,0.7311493411420205
1364,0.004554110286042458,0.7312408491947291
1365,0.004574261216511673,0.7312408491947291
1366,0.004574261216511673,0.7316983894582724
1367,0.004579298949128976,0.7316983894582724
1368,0.004579298949128976,0.7318814055636896
1369,0.004589374414363584,0.7318814055636896
1370,0.004589374414363584,0.7319729136163983
1371,0.0046044876122154944,0.7319729136163983
1372,0.0046044876122154944,0.7322474377745242
1373,0.004614563077450101,0.7322474377745242
1374,0.004614563077450101,0.7325219619326501
1375,0.004619600810067405,0.7325219619326501
1376,0.004619600810067405,0.7328879941434846
1377,0.004624638542684708,0.7328879941434846
1378,0.004624638542684708,0.7329795021961932
1379,0.004634714007919316,0.7329795021961932
1380,0.004634714007919316,0.7330710102489019
1381,0.004644789473153923,0.7330710102489019
1382,0.004644789473153923,0.7333455344070278
1383,0.00465486493838853,0.7333455344070278
1384,0.00465486493838853,0.7334370424597365
1385,0.004664940403623137,0.7334370424597365
1386,0.004664940403623137,0.7335285505124451
1387,0.004680053601475048,0.7335285505124451
1388,0.004680053601475048,0.7336200585651538
1389,0.004685091334092352,0.7336200585651538
1390,0.004685091334092352,0.7340775988286969
1391,0.0046901290667096555,0.7340775988286969
1392,0.0046901290667096555,0.7344436310395315
1393,0.0046951667993269585,0.7344436310395315
1394,0.0046951667993269585,0.7345351390922401
1395,0.0047002045319442624,0.7345351390922401
1396,0.0047002045319442624,0.7346266471449487
1397,0.004705242264561566,0.7346266471449487
1398,0.004705242264561566,0.7349011713030746
1399,0.004720355462413477,0.7349011713030746
1400,0.004720355462413477,0.7349926793557833
1401,0.00472539319503078,0.7349926793557833
1402,0.00472539319503078,0.7351756954612005
1403,0.004730430927648084,0.7351756954612005
1404,0.004730430927648084,0.7353587115666179
1405,0.004735468660265388,0.7353587115666179
1406,0.004735468660265388,0.7354502196193266
1407,0.004740506392882691,0.7354502196193266
1408,0.004740506392882691,0.7358162518301611
1409,0.004745544125499995,0.7358162518301611
1410,0.004745544125499995,0.7359077598828697
1411,0.004755619590734602,0.7359077598828697
1412,0.004755619590734602,0.7359992679355783
1413,0.004760657323351906,0.7359992679355783
1414,0.004760657323351906,0.7369143484626647
1415,0.004770732788586513,0.7369143484626647
1416,0.004770732788586513,0.737097364568082
1417,0.004775770521203817,0.737097364568082
1418,0.004775770521203817,0.7371888726207906
1419,0.0047808082538211205,0.7371888726207906
1420,0.0047808082538211205,0.737371888726208
1421,0.004790883719055727,0.737371888726208
1422,0.004790883719055727,0.7374633967789166
1423,0.004795921451673031,0.7374633967789166
1424,0.004795921451673031,0.7376464128843339
1425,0.004821110114759549,0.7376464128843339
1426,0.004821110114759549,0.7379209370424598
1427,0.00483622331261146,0.7379209370424598
1428,0.00483622331261146,0.7380124450951684
1429,0.004841261045228764,0.7380124450951684
1430,0.004841261045228764,0.7381954612005857
1431,0.004846298777846067,0.7381954612005857
1432,0.004846298777846067,0.7384699853587116
1433,0.004851336510463371,0.7384699853587116
1434,0.004851336510463371,0.7385614934114202
1435,0.004861411975697978,0.7385614934114202
1436,0.004861411975697978,0.7389275256222547
1437,0.0048714874409325854,0.7389275256222547
1438,0.0048714874409325854,0.739110541727672
1439,0.004891638371401799,0.739110541727672
1440,0.004891638371401799,0.7392020497803806
1441,0.004896676104019103,0.7392020497803806
1442,0.004896676104019103,0.7392935578330894
1443,0.004901713836636407,0.7392935578330894
1444,0.004901713836636407,0.7395680819912153
1445,0.00490675156925371,0.7395680819912153
1446,0.00490675156925371,0.7399341142020498
1447,0.004921864767105621,0.7399341142020498
1448,0.004921864767105621,0.7400256222547584
1449,0.004926902499722925,0.7400256222547584
1450,0.004926902499722925,0.7401171303074671
1451,0.004931940232340228,0.7401171303074671
1452,0.004931940232340228,0.740391654465593
1453,0.004942015697574836,0.740391654465593
1454,0.004942015697574836,0.7404831625183016
1455,0.004947053430192139,0.7404831625183016
1456,0.004947053430192139,0.7414897510980967
1457,0.004952091162809443,0.7414897510980967
1458,0.004952091162809443,0.7415812591508053
1459,0.0049621666280440496,0.7415812591508053
1460,0.0049621666280440496,0.7416727672035139
1461,0.00497727982589596,0.7416727672035139
1462,0.00497727982589596,0.7417642752562226
1463,0.004987355291130568,0.7417642752562226
1464,0.004987355291130568,0.7420387994143485
1465,0.005007506221599782,0.7420387994143485
1466,0.005007506221599782,0.7422218155197657
1467,0.005012543954217086,0.7422218155197657
1468,0.005012543954217086,0.742404831625183
1469,0.00501758168683439,0.742404831625183
1470,0.00501758168683439,0.7424963396778916
1471,0.005022619419451693,0.7424963396778916
1472,0.005022619419451693,0.7425878477306003
1473,0.005042770349920908,0.7425878477306003
1474,0.005042770349920908,0.7428623718887262
1475,0.0050478080825382115,0.7428623718887262
1476,0.0050478080825382115,0.7430453879941434
1477,0.0050528458151555145,0.7430453879941434
1478,0.0050528458151555145,0.7433199121522694
1479,0.005067959013007425,0.7433199121522694
1480,0.005067959013007425,0.7438689604685212
1481,0.005078034478242033,0.7438689604685212
1482,0.005078034478242033,0.7440519765739385
1483,0.005083072210859336,0.7440519765739385
1484,0.005083072210859336,0.7446010248901903
1485,0.005093147676093944,0.7446010248901903
1486,0.005093147676093944,0.7446925329428989
1487,0.005098185408711247,0.7446925329428989
1488,0.005098185408711247,0.7447840409956076
1489,0.005103223141328551,0.7447840409956076
1490,0.005103223141328551,0.7448755490483162
1491,0.005108260873945855,0.7448755490483162
1492,0.005108260873945855,0.7450585651537335
1493,0.005123374071797766,0.7450585651537335
1494,0.005123374071797766,0.7452415812591509
1495,0.005128411804415069,0.7452415812591509
1496,0.005128411804415069,0.7454245973645681
1497,0.0051334495370323726,0.7454245973645681
1498,0.0051334495370323726,0.7456076134699854
1499,0.0051384872696496765,0.7456076134699854
1500,0.0051384872696496765,0.7460651537335286
1501,0.0051435250022669795,0.7460651537335286
1502,0.0051435250022669795,0.7461566617862372
1503,0.005168713665353498,0.7461566617862372
1504,0.005168713665353498,0.7464311859443631
1505,0.005178789130588105,0.7464311859443631
1506,0.005178789130588105,0.7467972181551976
1507,0.005193902328440016,0.7467972181551976
1508,0.005193902328440016,0.7468887262079063
1509,0.005198940061057319,0.7468887262079063
1510,0.005198940061057319,0.7469802342606149
1511,0.005203977793674623,0.7469802342606149
1512,0.005203977793674623,0.7472547584187409
1513,0.005209015526291927,0.7472547584187409
1514,0.005209015526291927,0.7474377745241582
1515,0.0052241287241438375,0.7474377745241582
1516,0.0052241287241438375,0.7475292825768668
1517,0.0052291664567611406,0.7475292825768668
1518,0.0052291664567611406,0.7478038067349927
1519,0.005254355119847659,0.7478038067349927
1520,0.005254355119847659,0.7478953147877013
1521,0.005259392852464962,0.7478953147877013
1522,0.005259392852464962,0.7480783308931186
1523,0.005264430585082266,0.7480783308931186
1524,0.005264430585082266,0.7481698389458272
1525,0.00526946831769957,0.7481698389458272
1526,0.00526946831769957,0.7482613469985359
1527,0.005274506050316873,0.7482613469985359
1528,0.005274506050316873,0.7483528550512445
1529,0.005279543782934177,0.7483528550512445
1530,0.005279543782934177,0.7484443631039531
1531,0.005284581515551481,0.7484443631039531
1532,0.005284581515551481,0.7486273792093704
1533,0.005289619248168784,0.7486273792093704
1534,0.005289619248168784,0.748718887262079
1535,0.005299694713403392,0.748718887262079
1536,0.005299694713403392,0.7489019033674963
1537,0.005304732446020695,0.7489019033674963
1538,0.005304732446020695,0.7492679355783309
1539,0.0053148079112553025,0.7492679355783309
1540,0.0053148079112553025,0.7493594436310396
1541,0.0053198456438726055,0.7493594436310396
1542,0.0053198456438726055,0.7496339677891655
1543,0.0053248833764899094,0.7496339677891655
1544,0.0053248833764899094,0.7497254758418741
1545,0.005334958841724516,0.7497254758418741
1546,0.005334958841724516,0.7498169838945827
1547,0.005365185237428338,0.7498169838945827
1548,0.005365185237428338,0.7500915080527086
1549,0.005375260702662946,0.7500915080527086
1550,0.005375260702662946,0.7501830161054173
1551,0.00539541163313216,0.7501830161054173
1552,0.00539541163313216,0.7502745241581259
1553,0.005420600296218678,0.7502745241581259
1554,0.005420600296218678,0.7504575402635432
1555,0.005425638028835981,0.7504575402635432
1556,0.005425638028835981,0.7505490483162518
1557,0.005430675761453285,0.7505490483162518
1558,0.005430675761453285,0.7506405563689604
1559,0.005435713494070589,0.7506405563689604
1560,0.005435713494070589,0.7507320644216691
1561,0.005445788959305196,0.7507320644216691
1562,0.005445788959305196,0.7508235724743777
1563,0.005450826691922499,0.7508235724743777
1564,0.005450826691922499,0.7510980966325037
1565,0.00546593988977441,0.7510980966325037
1566,0.00546593988977441,0.751281112737921
1567,0.005470977622391714,0.751281112737921
1568,0.005470977622391714,0.7513726207906296
1569,0.005476015355009018,0.7513726207906296
1570,0.005476015355009018,0.7515556368960469
1571,0.005481053087626321,0.7515556368960469
1572,0.005481053087626321,0.7517386530014641
1573,0.005486090820243625,0.7517386530014641
1574,0.005486090820243625,0.7518301610541728
1575,0.0054911285528609285,0.7518301610541728
1576,0.0054911285528609285,0.7522877013177159
1577,0.005496166285478232,0.7522877013177159
1578,0.005496166285478232,0.7523792093704246
1579,0.0055012040180955355,0.7523792093704246
1580,0.0055012040180955355,0.7526537335285505
1581,0.005506241750712839,0.7526537335285505
1582,0.005506241750712839,0.7532027818448024
1583,0.00552135494856475,0.7532027818448024
1584,0.00552135494856475,0.7533857979502196
1585,0.005526392681182053,0.7533857979502196
1586,0.005526392681182053,0.7534773060029283
1587,0.005541505879033964,0.7534773060029283
1588,0.005541505879033964,0.7537518301610542
1589,0.005571732274737786,0.7537518301610542
1590,0.005571732274737786,0.7539348462664714
1591,0.0055818077399723935,0.7539348462664714
1592,0.0055818077399723935,0.7541178623718887
1593,0.0055918832052070004,0.7541178623718887
1594,0.0055918832052070004,0.7544838945827232
1595,0.005612034135676215,0.7544838945827232
1596,0.005612034135676215,0.7545754026354319
1597,0.005617071868293518,0.7545754026354319
1598,0.005617071868293518,0.7548499267935578
1599,0.005622109600910822,0.7548499267935578
1600,0.005622109600910822,0.7549414348462665
1601,0.005637222798762733,0.7549414348462665
1602,0.005637222798762733,0.7550329428989752
1603,0.005642260531380037,0.7550329428989752
1604,0.005642260531380037,0.7551244509516838
1605,0.005657373729231948,0.7551244509516838
1606,0.005657373729231948,0.7553074670571011
1607,0.005667449194466555,0.7553074670571011
1608,0.005667449194466555,0.7553989751098097
1609,0.005687600124935769,0.7553989751098097
1610,0.005687600124935769,0.7557650073206442
1611,0.005697675590170376,0.7557650073206442
1612,0.005697675590170376,0.7559480234260615
1613,0.00570271332278768,0.7559480234260615
1614,0.00570271332278768,0.7560395314787701
1615,0.00571782652063959,0.7560395314787701
1616,0.00571782652063959,0.7561310395314788
1617,0.005722864253256894,0.7561310395314788
1618,0.005722864253256894,0.756314055636896
1619,0.005732939718491501,0.756314055636896
1620,0.005732939718491501,0.7564970717423133
1621,0.005737977451108805,0.7564970717423133
1622,0.005737977451108805,0.7566800878477306
1623,0.005743015183726109,0.7566800878477306
1624,0.005743015183726109,0.7567715959004392
1625,0.005748052916343412,0.7567715959004392
1626,0.005748052916343412,0.7571376281112738
1627,0.005753090648960716,0.7571376281112738
1628,0.005753090648960716,0.7572291361639825
1629,0.0057581283815780196,0.7572291361639825
1630,0.0057581283815780196,0.7573206442166911
1631,0.005778279312047233,0.7573206442166911
1632,0.005778279312047233,0.7576866764275256
1633,0.005783317044664537,0.7576866764275256
1634,0.005783317044664537,0.7577781844802343
1635,0.005788354777281841,0.7577781844802343
1636,0.005788354777281841,0.7578696925329429
1637,0.005793392509899144,0.7578696925329429
1638,0.005793392509899144,0.7579612005856515
1639,0.005803467975133752,0.7579612005856515
1640,0.005803467975133752,0.7584187408491947
1641,0.005843769836072181,0.7584187408491947
1642,0.005843769836072181,0.7585102489019033
1643,0.0058488075686894845,0.7585102489019033
1644,0.0058488075686894845,0.7587847730600292
1645,0.005868958499158698,0.7587847730600292
1646,0.005868958499158698,0.7591508052708639
1647,0.005873996231776002,0.7591508052708639
1648,0.005873996231776002,0.7592423133235725
1649,0.005879033964393306,0.7592423133235725
1650,0.005879033964393306,0.759608345534407
1651,0.005884071697010609,0.759608345534407
1652,0.005884071697010609,0.7596998535871157
1653,0.005889109429627913,0.7596998535871157
1654,0.005889109429627913,0.7597913616398243
1655,0.00589918489486252,0.7597913616398243
1656,0.00589918489486252,0.7598828696925329
1657,0.005909260360097128,0.7598828696925329
1658,0.005909260360097128,0.7600658857979502
1659,0.005919335825331735,0.7600658857979502
1660,0.005919335825331735,0.7603404099560761
1661,0.005924373557949039,0.7603404099560761
1662,0.005924373557949039,0.7607979502196194
1663,0.005929411290566342,0.7607979502196194
1664,0.005929411290566342,0.7609809663250366
1665,0.0059394867558009495,0.7609809663250366
1666,0.0059394867558009495,0.7611639824304539
1667,0.0059445244884182525,0.7611639824304539
1668,0.0059445244884182525,0.7612554904831625
1669,0.005959637686270163,0.7612554904831625
1670,0.005959637686270163,0.7613469985358712
1671,0.005979788616739378,0.7613469985358712
1672,0.005979788616739378,0.7616215226939971
1673,0.005989864081973985,0.7616215226939971
1674,0.005989864081973985,0.7619875549048316
1675,0.006004977279825896,0.7619875549048316
1676,0.006004977279825896,0.7621705710102489
1677,0.0060100150124432,0.7621705710102489
1678,0.0060100150124432,0.762628111273792
1679,0.006015052745060503,0.762628111273792
1680,0.006015052745060503,0.7628111273792094
1681,0.0060352036755297175,0.7628111273792094
1682,0.0060352036755297175,0.7629941434846267
1683,0.006040241408147021,0.7629941434846267
1684,0.006040241408147021,0.7632686676427526
1685,0.006045279140764324,0.7632686676427526
1686,0.006045279140764324,0.7633601756954612
1687,0.006050316873381628,0.7633601756954612
1688,0.006050316873381628,0.7637262079062958
1689,0.006055354605998932,0.7637262079062958
1690,0.006055354605998932,0.7638177159590044
1691,0.006065430071233539,0.7638177159590044
1692,0.006065430071233539,0.763909224011713
1693,0.006070467803850843,0.763909224011713
1694,0.006070467803850843,0.7641837481698389
1695,0.006085581001702754,0.7641837481698389
1696,0.006085581001702754,0.7642752562225475
1697,0.006090618734320057,0.7642752562225475
1698,0.006090618734320057,0.7644582723279648
1699,0.006105731932171968,0.7644582723279648
1700,0.006105731932171968,0.7646412884333821
1701,0.006120845130023879,0.7646412884333821
1702,0.006120845130023879,0.7647327964860908
1703,0.006130920595258486,0.7647327964860908
1704,0.006130920595258486,0.7649158125915081
1705,0.006135958327875789,0.7649158125915081
1706,0.006135958327875789,0.7650073206442167
1707,0.006140996060493093,0.7650073206442167
1708,0.006140996060493093,0.7650988286969254
1709,0.006146033793110397,0.7650988286969254
1710,0.006146033793110397,0.765190336749634
1711,0.006156109258345004,0.765190336749634
1712,0.006156109258345004,0.7652818448023426
1713,0.006161146990962308,0.7652818448023426
1714,0.006161146990962308,0.7654648609077599
1715,0.006166184723579611,0.7654648609077599
1716,0.006166184723579611,0.7655563689604685
1717,0.006181297921431522,0.7655563689604685
1718,0.006181297921431522,0.7656478770131772
1719,0.006201448851900737,0.7656478770131772
1720,0.006201448851900737,0.7657393850658858
1721,0.0062115243171353435,0.7657393850658858
1722,0.0062115243171353435,0.7660139092240117
1723,0.006221599782369951,0.7660139092240117
1724,0.006221599782369951,0.7661054172767203
1725,0.006226637514987254,0.7661054172767203
1726,0.006226637514987254,0.766196925329429
1727,0.006241750712839165,0.766196925329429
1728,0.006241750712839165,0.7664714494875549
1729,0.006277014841160291,0.7664714494875549
1730,0.006277014841160291,0.7666544655929722
1731,0.006287090306394898,0.7666544655929722
1732,0.006287090306394898,0.7670204978038068
1733,0.006292128039012202,0.7670204978038068
1734,0.006292128039012202,0.7672950219619327
1735,0.006317316702098719,0.7672950219619327
1736,0.006317316702098719,0.7674780380673499
1737,0.006322354434716023,0.7674780380673499
1738,0.006322354434716023,0.7675695461200586
1739,0.006327392167333326,0.7675695461200586
1740,0.006327392167333326,0.7676610541727672
1741,0.006342505365185237,0.7676610541727672
1742,0.006342505365185237,0.7679355783308931
1743,0.006357618563037148,0.7679355783308931
1744,0.006357618563037148,0.7680270863836017
1745,0.006367694028271756,0.7680270863836017
1746,0.006367694028271756,0.768210102489019
1747,0.006372731760889059,0.768210102489019
1748,0.006372731760889059,0.7685761346998536
1749,0.0063928826913582735,0.7685761346998536
1750,0.0063928826913582735,0.7686676427525623
1751,0.006423109087062095,0.7686676427525623
1752,0.006423109087062095,0.7687591508052709
1753,0.006433184552296702,0.7687591508052709
1754,0.006433184552296702,0.7688506588579795
1755,0.006438222284914006,0.7688506588579795
1756,0.006438222284914006,0.7691251830161054
1757,0.006448297750148613,0.7691251830161054
1758,0.006448297750148613,0.7693081991215227
1759,0.006458373215383221,0.7693081991215227
1760,0.006458373215383221,0.7696742313323572
1761,0.006463410948000524,0.7696742313323572
1762,0.006463410948000524,0.7697657393850659
1763,0.006468448680617828,0.7697657393850659
1764,0.006468448680617828,0.7698572474377745
1765,0.0064785241458524346,0.7698572474377745
1766,0.0064785241458524346,0.7700402635431918
1767,0.006488599611087042,0.7700402635431918
1768,0.006488599611087042,0.7703147877013177
1769,0.006498675076321649,0.7703147877013177
1770,0.006498675076321649,0.7705893118594437
1771,0.006503712808938953,0.7705893118594437
1772,0.006503712808938953,0.7706808199121523
1773,0.00651378827417356,0.7706808199121523
1774,0.00651378827417356,0.7708638360175696
1775,0.006518826006790863,0.7708638360175696
1776,0.006518826006790863,0.7709553440702782
1777,0.006528901472025471,0.7709553440702782
1778,0.006528901472025471,0.7711383601756955
1779,0.006533939204642774,0.7711383601756955
1780,0.006533939204642774,0.7713213762811127
1781,0.006549052402494685,0.7713213762811127
1782,0.006549052402494685,0.77150439238653
1783,0.006559127867729293,0.77150439238653
1784,0.006559127867729293,0.7715959004392386
1785,0.006564165600346596,0.7715959004392386
1786,0.006564165600346596,0.7716874084919473
1787,0.0065692033329638995,0.7716874084919473
1788,0.0065692033329638995,0.7720534407027818
1789,0.006574241065581203,0.7720534407027818
1790,0.006574241065581203,0.7722364568081991
1791,0.0065792787981985065,0.7722364568081991
1792,0.0065792787981985065,0.7723279648609077
1793,0.006589354263433114,0.7723279648609077
1794,0.006589354263433114,0.7725109809663251
1795,0.006594391996050417,0.7725109809663251
1796,0.006594391996050417,0.7726939970717424
1797,0.006604467461285025,0.7726939970717424
1798,0.006604467461285025,0.7730600292825769
1799,0.006609505193902328,0.7730600292825769
1800,0.006609505193902328,0.7731515373352855
1801,0.006614542926519632,0.7731515373352855
1802,0.006614542926519632,0.7732430453879942
1803,0.006629656124371543,0.7732430453879942
1804,0.006629656124371543,0.7733345534407028
1805,0.00663973158960615,0.7733345534407028
1806,0.00663973158960615,0.7734260614934114
1807,0.006644769322223454,0.7734260614934114
1808,0.006644769322223454,0.77351756954612
1809,0.006654844787458061,0.77351756954612
1810,0.006654844787458061,0.7737005856515373
1811,0.006664920252692668,0.7737005856515373
1812,0.006664920252692668,0.773792093704246
1813,0.006674995717927275,0.773792093704246
1814,0.006674995717927275,0.7738836017569546
1815,0.006680033450544579,0.7738836017569546
1816,0.006680033450544579,0.7740666178623719
1817,0.006685071183161882,0.7740666178623719
1818,0.006685071183161882,0.7741581259150805
1819,0.006690108915779186,0.7741581259150805
1820,0.006690108915779186,0.7742496339677891
1821,0.00669514664839649,0.7742496339677891
1822,0.00669514664839649,0.7747071742313324
1823,0.006705222113631097,0.7747071742313324
1824,0.006705222113631097,0.774798682284041
1825,0.006715297578865704,0.774798682284041
1826,0.006715297578865704,0.7748901903367497
1827,0.006720335311483008,0.7748901903367497
1828,0.006720335311483008,0.7751647144948756
1829,0.006730410776717615,0.7751647144948756
1830,0.006730410776717615,0.7753477306002928
1831,0.0067404862419522225,0.7753477306002928
1832,0.0067404862419522225,0.7754392386530015
1833,0.006745523974569526,0.7754392386530015
1834,0.006745523974569526,0.775805270863836
1835,0.0067505617071868295,0.775805270863836
1836,0.0067505617071868295,0.7758967789165446
1837,0.006770712637656044,0.7758967789165446
1838,0.006770712637656044,0.7759882869692533
1839,0.006780788102890651,0.7759882869692533
1840,0.006780788102890651,0.7762628111273792
1841,0.006795901300742562,0.7762628111273792
1842,0.006795901300742562,0.7764458272327965
1843,0.006811014498594473,0.7764458272327965
1844,0.006811014498594473,0.7766288433382138
1845,0.006816052231211776,0.7766288433382138
1846,0.006816052231211776,0.777086383601757
1847,0.00682108996382908,0.777086383601757
1848,0.00682108996382908,0.7771778916544656
1849,0.006826127696446384,0.7771778916544656
1850,0.006826127696446384,0.7772693997071742
1851,0.0068412408942982944,0.7772693997071742
1852,0.0068412408942982944,0.7774524158125915
1853,0.006866429557384812,0.7774524158125915
1854,0.006866429557384812,0.7776354319180088
1855,0.006881542755236723,0.7776354319180088
1856,0.006881542755236723,0.777818448023426
1857,0.006886580487854027,0.777818448023426
1858,0.006886580487854027,0.7779099560761347
1859,0.006896655953088634,0.7779099560761347
1860,0.006896655953088634,0.7783674963396779
1861,0.006901693685705938,0.7783674963396779
1862,0.006901693685705938,0.7786420204978038
1863,0.006906731418323241,0.7786420204978038
1864,0.006906731418323241,0.7787335285505125
1865,0.0069268823487924555,0.7787335285505125
1866,0.0069268823487924555,0.7788250366032211
1867,0.0069369578140270624,0.7788250366032211
1868,0.0069369578140270624,0.779099560761347
1869,0.006941995546644366,0.779099560761347
1870,0.006941995546644366,0.7792825768667643
1871,0.00694703327926167,0.7792825768667643
1872,0.00694703327926167,0.7794655929721815
1873,0.006977259674965492,0.7794655929721815
1874,0.006977259674965492,0.7796486090775988
1875,0.006987335140200099,0.7796486090775988
1876,0.006987335140200099,0.7797401171303074
1877,0.006992372872817403,0.7797401171303074
1878,0.006992372872817403,0.7799231332357247
1879,0.007022599268521224,0.7799231332357247
1880,0.007022599268521224,0.7800146412884333
1881,0.007027637001138527,0.7800146412884333
1882,0.007027637001138527,0.7802891654465594
1883,0.007032674733755831,0.7802891654465594
1884,0.007032674733755831,0.7804721815519766
1885,0.007052825664225045,0.7804721815519766
1886,0.007052825664225045,0.781387262079063
1887,0.007057863396842349,0.781387262079063
1888,0.007057863396842349,0.7815702781844802
1889,0.007062901129459653,0.7815702781844802
1890,0.007062901129459653,0.7816617862371888
1891,0.007067938862076956,0.7816617862371888
1892,0.007067938862076956,0.7818448023426061
1893,0.00707297659469426,0.7818448023426061
1894,0.00707297659469426,0.7819363103953147
1895,0.007083052059928867,0.7819363103953147
1896,0.007083052059928867,0.7823023426061494
1897,0.007088089792546171,0.7823023426061494
1898,0.007088089792546171,0.782393850658858
1899,0.007093127525163475,0.782393850658858
1900,0.007093127525163475,0.7824853587115667
1901,0.007098165257780778,0.7824853587115667
1902,0.007098165257780778,0.7826683748169839
1903,0.0071032029903980816,0.7826683748169839
1904,0.0071032029903980816,0.7827598828696926
1905,0.0071082407230153855,0.7827598828696926
1906,0.0071082407230153855,0.7829428989751098
1907,0.0071132784556326885,0.7829428989751098
1908,0.0071132784556326885,0.7832174231332357
1909,0.007118316188249992,0.7832174231332357
1910,0.007118316188249992,0.7833089311859444
1911,0.007123353920867296,0.7833089311859444
1912,0.007123353920867296,0.7834919472913616
1913,0.007128391653484599,0.7834919472913616
1914,0.007128391653484599,0.7837664714494875
1915,0.007138467118719207,0.7837664714494875
1916,0.007138467118719207,0.7840409956076134
1917,0.007148542583953814,0.7840409956076134
1918,0.007148542583953814,0.7842240117130308
1919,0.007173731247040332,0.7842240117130308
1920,0.007173731247040332,0.7844985358711567
1921,0.00719891991012685,0.7844985358711567
1922,0.00719891991012685,0.7845900439238653
1923,0.0072039576427441535,0.7845900439238653
1924,0.0072039576427441535,0.784681551976574
1925,0.007208995375361457,0.784681551976574
1926,0.007208995375361457,0.7848645680819912
1927,0.007214033107978761,0.7848645680819912
1928,0.007214033107978761,0.7849560761346999
1929,0.007219070840596064,0.7849560761346999
1930,0.007219070840596064,0.7852306002928258
1931,0.007234184038447975,0.7852306002928258
1932,0.007234184038447975,0.7855051244509517
1933,0.007264410434151797,0.7855051244509517
1934,0.007264410434151797,0.7856881405563689
1935,0.007274485899386405,0.7856881405563689
1936,0.007274485899386405,0.7861456808199122
1937,0.0072845613646210115,0.7861456808199122
1938,0.0072845613646210115,0.7862371888726208
1939,0.007289599097238315,0.7862371888726208
1940,0.007289599097238315,0.7864202049780381
1941,0.007299674562472922,0.7864202049780381
1942,0.007299674562472922,0.7868777452415813
1943,0.007304712295090226,0.7868777452415813
1944,0.007304712295090226,0.7869692532942899
1945,0.007309750027707529,0.7869692532942899
1946,0.007309750027707529,0.7876098096632503
1947,0.007319825492942136,0.7876098096632503
1948,0.007319825492942136,0.7879758418740849
1949,0.007350051888645958,0.7879758418740849
1950,0.007350051888645958,0.7881588579795022
1951,0.007360127353880566,0.7881588579795022
1952,0.007360127353880566,0.7882503660322109
1953,0.007370202819115173,0.7882503660322109
1954,0.007370202819115173,0.7885248901903368
1955,0.007410504680053601,0.7885248901903368
1956,0.007410504680053601,0.7886163982430454
1957,0.007415542412670905,0.7886163982430454
1958,0.007415542412670905,0.788707906295754
1959,0.007420580145288209,0.788707906295754
1960,0.007420580145288209,0.7887994143484627
1961,0.007425617877905512,0.7887994143484627
1962,0.007425617877905512,0.7888909224011713
1963,0.007440731075757423,0.7888909224011713
1964,0.007440731075757423,0.78898243045388
1965,0.007450806540992031,0.78898243045388
1966,0.007450806540992031,0.7890739385065886
1967,0.0074608820062266375,0.7890739385065886
1968,0.0074608820062266375,0.7892569546120058
1969,0.0074659197388439414,0.7892569546120058
1970,0.0074659197388439414,0.7894399707174231
1971,0.0074709574714612445,0.7894399707174231
1972,0.0074709574714612445,0.7895314787701317
1973,0.007491108401930459,0.7895314787701317
1974,0.007491108401930459,0.7896229868228404
1975,0.00750622159978237,0.7896229868228404
1976,0.00750622159978237,0.7898060029282576
1977,0.007516297065016977,0.7898060029282576
1978,0.007516297065016977,0.7900805270863837
1979,0.007521334797634281,0.7900805270863837
1980,0.007521334797634281,0.7902635431918009
1981,0.007526372530251585,0.7902635431918009
1982,0.007526372530251585,0.7903550512445096
1983,0.007531410262868888,0.7903550512445096
1984,0.007531410262868888,0.7904465592972182
1985,0.007541485728103496,0.7904465592972182
1986,0.007541485728103496,0.7907210834553441
1987,0.007566674391190013,0.7907210834553441
1988,0.007566674391190013,0.7908125915080527
1989,0.007571712123807317,0.7908125915080527
1990,0.007571712123807317,0.7910871156661786
1991,0.00757674985642462,0.7910871156661786
1992,0.00757674985642462,0.7911786237188873
1993,0.007581787589041924,0.7911786237188873
1994,0.007581787589041924,0.7912701317715959
1995,0.007591863054276531,0.7912701317715959
1996,0.007591863054276531,0.7913616398243045
1997,0.007622089449980353,0.7913616398243045
1998,0.007622089449980353,0.7918191800878477
1999,0.007627127182597657,0.7918191800878477
2000,0.007627127182597657,0.7923682284040996
2001,0.007657353578301478,0.7923682284040996
2002,0.007657353578301478,0.7924597364568082
2003,0.0076875799740053,0.7924597364568082
2004,0.0076875799740053,0.7929172767203514
2005,0.007712768637091818,0.7929172767203514
2006,0.007712768637091818,0.7931002928257687
2007,0.007717806369709122,0.7931002928257687
2008,0.007717806369709122,0.7932833089311859
2009,0.007722844102326425,0.7932833089311859
2010,0.007722844102326425,0.7933748169838946
2011,0.0077278818349437286,0.7933748169838946
2012,0.0077278818349437286,0.7934663250366032
2013,0.007753070498030246,0.7934663250366032
2014,0.007753070498030246,0.7936493411420205
2015,0.007773221428499461,0.7936493411420205
2016,0.007773221428499461,0.7937408491947291
2017,0.007783296893734068,0.7937408491947291
2018,0.007783296893734068,0.7938323572474377
2019,0.007788334626351372,0.7938323572474377
2020,0.007788334626351372,0.7940153733528551
2021,0.007803447824203283,0.7940153733528551
2022,0.007803447824203283,0.7941983894582724
2023,0.00781352328943789,0.7941983894582724
2024,0.00781352328943789,0.794289897510981
2025,0.007823598754672497,0.794289897510981
2026,0.007823598754672497,0.7945644216691069
2027,0.007843749685141711,0.7945644216691069
2028,0.007843749685141711,0.7947474377745242
2029,0.007848787417759014,0.7947474377745242
2030,0.007848787417759014,0.7948389458272328
2031,0.007858862882993622,0.7948389458272328
2032,0.007858862882993622,0.7951134699853587
2033,0.00786893834822823,0.7951134699853587
2034,0.00786893834822823,0.7952049780380673
2035,0.007873976080845533,0.7952049780380673
2036,0.007873976080845533,0.7953879941434846
2037,0.00788405154608014,0.7953879941434846
2038,0.00788405154608014,0.7954795021961932
2039,0.007889089278697444,0.7954795021961932
2040,0.007889089278697444,0.7955710102489019
2041,0.007914277941783962,0.7955710102489019
2042,0.007914277941783962,0.7957540263543191
2043,0.007919315674401265,0.7957540263543191
2044,0.007919315674401265,0.7958455344070278
2045,0.007924353407018568,0.7958455344070278
2046,0.007924353407018568,0.7959370424597365
2047,0.007934428872253176,0.7959370424597365
2048,0.007934428872253176,0.7960285505124451
2049,0.007944504337487784,0.7960285505124451
2050,0.007944504337487784,0.796303074670571
2051,0.00795457980272239,0.796303074670571
2052,0.00795457980272239,0.7963945827232797
2053,0.007959617535339695,0.7963945827232797
2054,0.007959617535339695,0.7964860907759883
2055,0.00799488166366082,0.7964860907759883
2056,0.00799488166366082,0.7969436310395315
2057,0.008020070326747338,0.7969436310395315
2058,0.008020070326747338,0.7970351390922401
2059,0.008030145791981944,0.7970351390922401
2060,0.008030145791981944,0.797309663250366
2061,0.008045258989833855,0.797309663250366
2062,0.008045258989833855,0.7974011713030746
2063,0.008090598583389588,0.7974011713030746
2064,0.008090598583389588,0.7975841874084919
2065,0.008115787246476106,0.7975841874084919
2066,0.008115787246476106,0.7977672035139092
2067,0.008130900444328017,0.7977672035139092
2068,0.008130900444328017,0.7981332357247438
2069,0.008140975909562625,0.7981332357247438
2070,0.008140975909562625,0.7982247437774525
2071,0.008146013642179928,0.7982247437774525
2072,0.008146013642179928,0.798590775988287
2073,0.008151051374797231,0.798590775988287
2074,0.008151051374797231,0.7987737920937042
2075,0.008161126840031839,0.7987737920937042
2076,0.008161126840031839,0.7989568081991215
2077,0.008166164572649142,0.7989568081991215
2078,0.008166164572649142,0.7990483162518301
2079,0.00817624003788375,0.7990483162518301
2080,0.00817624003788375,0.7991398243045388
2081,0.008196390968352963,0.7991398243045388
2082,0.008196390968352963,0.7992313323572474
2083,0.008201428700970268,0.7992313323572474
2084,0.008201428700970268,0.7994143484626647
2085,0.008221579631439482,0.7994143484626647
2086,0.008221579631439482,0.7996888726207906
2087,0.008287070155464428,0.7996888726207906
2088,0.008287070155464428,0.7997803806734992
2089,0.008297145620699036,0.7997803806734992
2090,0.008297145620699036,0.799871888726208
2091,0.00830218335331634,0.799871888726208
2092,0.00830218335331634,0.7999633967789166
2093,0.008322334283785553,0.7999633967789166
2094,0.008322334283785553,0.8000549048316252
2095,0.008327372016402858,0.8000549048316252
2096,0.008327372016402858,0.8001464128843339
2097,0.008352560679489375,0.8001464128843339
2098,0.008352560679489375,0.8002379209370425
2099,0.00835759841210668,0.8002379209370425
2100,0.00835759841210668,0.8003294289897511
2101,0.008367673877341286,0.8003294289897511
2102,0.008367673877341286,0.8004209370424598
2103,0.008392862540427804,0.8004209370424598
2104,0.008392862540427804,0.8005124450951684
2105,0.008397900273045107,0.8005124450951684
2106,0.008397900273045107,0.8006954612005857
2107,0.008423088936131626,0.8006954612005857
2108,0.008423088936131626,0.8007869692532943
2109,0.008463390797070055,0.8007869692532943
2110,0.008463390797070055,0.8011530014641288
2111,0.008523843588477699,0.8011530014641288
2112,0.008523843588477699,0.8012445095168375
2113,0.008533919053712305,0.8012445095168375
2114,0.008533919053712305,0.8013360175695461
2115,0.008559107716798823,0.8013360175695461
2116,0.008559107716798823,0.8014275256222547
2117,0.008589334112502645,0.8014275256222547
2118,0.008589334112502645,0.8015190336749634
2119,0.008594371845119948,0.8015190336749634
2120,0.008594371845119948,0.801610541727672
2121,0.008604447310354556,0.801610541727672
2122,0.008604447310354556,0.8017020497803806
2123,0.008634673706058377,0.8017020497803806
2124,0.008634673706058377,0.8017935578330894
2125,0.008664900101762199,0.8017935578330894
2126,0.008664900101762199,0.801885065885798
2127,0.008705201962700629,0.801885065885798
2128,0.008705201962700629,0.8021595900439239
2129,0.008710239695317932,0.8021595900439239
2130,0.008710239695317932,0.8022510980966325
2131,0.008725352893169842,0.8022510980966325
2132,0.008725352893169842,0.8025256222547584
2133,0.008730390625787145,0.8025256222547584
2134,0.008730390625787145,0.8028001464128843
2135,0.008750541556256361,0.8028001464128843
2136,0.008750541556256361,0.802891654465593
2137,0.008755579288873664,0.802891654465593
2138,0.008755579288873664,0.8029831625183016
2139,0.008785805684577486,0.8029831625183016
2140,0.008785805684577486,0.8030746705710102
2141,0.008846258475985129,0.8030746705710102
2142,0.008846258475985129,0.8032576866764275
2143,0.008851296208602432,0.8032576866764275
2144,0.008851296208602432,0.8033491947291361
2145,0.008871447139071646,0.8033491947291361
2146,0.008871447139071646,0.8034407027818448
2147,0.00887648487168895,0.8034407027818448
2148,0.00887648487168895,0.8037152269399708
2149,0.008881522604306254,0.8037152269399708
2150,0.008881522604306254,0.8038067349926794
2151,0.008891598069540861,0.8038067349926794
2152,0.008891598069540861,0.803898243045388
2153,0.008896635802158165,0.803898243045388
2154,0.008896635802158165,0.8039897510980967
2155,0.008911749000010075,0.8039897510980967
2156,0.008911749000010075,0.8042642752562226
2157,0.008926862197861986,0.8042642752562226
2158,0.008926862197861986,0.8043557833089312
2159,0.008936937663096594,0.8043557833089312
2160,0.008936937663096594,0.8045387994143485
2161,0.008952050860948505,0.8045387994143485
2162,0.008952050860948505,0.8048133235724744
2163,0.008957088593565808,0.8048133235724744
2164,0.008957088593565808,0.8049963396778916
2165,0.00900242818712154,0.8049963396778916
2166,0.00900242818712154,0.8051793557833089
2167,0.009007465919738843,0.8051793557833089
2168,0.009007465919738843,0.8052708638360175
2169,0.009017541384973451,0.8052708638360175
2170,0.009017541384973451,0.8054538799414348
2171,0.009027616850208059,0.8054538799414348
2172,0.009027616850208059,0.8055453879941434
2173,0.009047767780677273,0.8055453879941434
2174,0.009047767780677273,0.8057284040995608
2175,0.009052805513294576,0.8057284040995608
2176,0.009052805513294576,0.8060944363103953
2177,0.009067918711146487,0.8060944363103953
2178,0.009067918711146487,0.806185944363104
2179,0.009072956443763791,0.806185944363104
2180,0.009072956443763791,0.8064604685212299
2181,0.009083031908998397,0.8064604685212299
2182,0.009083031908998397,0.8067349926793558
2183,0.009093107374233005,0.8067349926793558
2184,0.009093107374233005,0.8071010248901903
2185,0.009103182839467613,0.8071010248901903
2186,0.009103182839467613,0.8071925329428989
2187,0.00911325830470222,0.8071925329428989
2188,0.00911325830470222,0.8079245973645681
2189,0.009118296037319524,0.8079245973645681
2190,0.009118296037319524,0.8080161054172768
2191,0.009133409235171435,0.8080161054172768
2192,0.009133409235171435,0.8081076134699854
2193,0.009138446967788738,0.8081076134699854
2194,0.009138446967788738,0.808199121522694
2195,0.009148522433023346,0.808199121522694
2196,0.009148522433023346,0.8084736456808199
2197,0.009163635630875256,0.8084736456808199
2198,0.009163635630875256,0.8088396778916545
2199,0.00916867336349256,0.8088396778916545
2200,0.00916867336349256,0.8090226939970717
2201,0.009188824293961773,0.8090226939970717
2202,0.009188824293961773,0.8091142020497804
2203,0.009203937491813684,0.8091142020497804
2204,0.009203937491813684,0.809205710102489
2205,0.009214012957048292,0.809205710102489
2206,0.009214012957048292,0.8093887262079063
2207,0.0092240884222829,0.8093887262079063
2208,0.0092240884222829,0.8094802342606149
2209,0.009229126154900203,0.8094802342606149
2210,0.009229126154900203,0.8095717423133236
2211,0.009234163887517506,0.8095717423133236
2212,0.009234163887517506,0.8097547584187409
2213,0.00923920162013481,0.8097547584187409
2214,0.00923920162013481,0.8099377745241582
2215,0.009274465748455935,0.8099377745241582
2216,0.009274465748455935,0.8100292825768668
2217,0.00930972987677706,0.8100292825768668
2218,0.00930972987677706,0.8101207906295754
2219,0.009344994005098185,0.8101207906295754
2220,0.009344994005098185,0.8102122986822841
2221,0.009375220400802006,0.8102122986822841
2222,0.009375220400802006,0.8103953147877013
2223,0.009380258133419311,0.8103953147877013
2224,0.009380258133419311,0.81048682284041
2225,0.009400409063888525,0.81048682284041
2226,0.009400409063888525,0.8106698389458272
2227,0.009415522261740436,0.8106698389458272
2228,0.009415522261740436,0.8110358711566618
2229,0.009420559994357739,0.8110358711566618
2230,0.009420559994357739,0.811218887262079
2231,0.009425597726975043,0.811218887262079
2232,0.009425597726975043,0.8113103953147877
2233,0.00943567319220965,0.8113103953147877
2234,0.009445748657444257,0.8113103953147877
2235,0.00945078639006156,0.8113103953147877
2236,0.00945078639006156,0.8114019033674963
2237,0.009455824122678865,0.8114019033674963
2238,0.009455824122678865,0.8115849194729137
2239,0.009460861855296168,0.8115849194729137
2240,0.009460861855296168,0.8117679355783309
2241,0.009465899587913471,0.8117679355783309
2242,0.009465899587913471,0.8118594436310396
2243,0.009475975053148079,0.8118594436310396
2244,0.009475975053148079,0.8120424597364568
2245,0.009481012785765382,0.8120424597364568
2246,0.009481012785765382,0.8121339677891655
2247,0.009486050518382687,0.8121339677891655
2248,0.009486050518382687,0.8122254758418741
2249,0.009511239181469204,0.8122254758418741
2250,0.009511239181469204,0.8123169838945827
2251,0.00954650330979033,0.8123169838945827
2252,0.00954650330979033,0.8124084919472914
2253,0.009556578775024936,0.8124084919472914
2254,0.009556578775024936,0.8125
2255,0.009561616507642241,0.8125
2256,0.009561616507642241,0.8125915080527086
2257,0.009581767438111455,0.8125915080527086
2258,0.009581767438111455,0.8126830161054173
2259,0.009586805170728758,0.8126830161054173
2260,0.009586805170728758,0.8127745241581259
2261,0.009606956101197973,0.8127745241581259
2262,0.009606956101197973,0.8128660322108345
2263,0.009611993833815276,0.8128660322108345
2264,0.009611993833815276,0.8130490483162518
2265,0.00961703156643258,0.8130490483162518
2266,0.00961703156643258,0.8131405563689604
2267,0.009627107031667187,0.8131405563689604
2268,0.009627107031667187,0.8133235724743777
2269,0.009647257962136401,0.8133235724743777
2270,0.009647257962136401,0.8135065885797951
2271,0.009652295694753706,0.8135065885797951
2272,0.009652295694753706,0.8135980966325037
2273,0.009657333427371009,0.8135980966325037
2274,0.009657333427371009,0.8136896046852123
2275,0.009667408892605617,0.8136896046852123
2276,0.009667408892605617,0.813781112737921
2277,0.00967244662522292,0.813781112737921
2278,0.00967244662522292,0.8142386530014641
2279,0.009692597555692134,0.8142386530014641
2280,0.009692597555692134,0.8143301610541728
2281,0.009697635288309438,0.8143301610541728
2282,0.009697635288309438,0.8146961932650073
2283,0.009722823951395955,0.8146961932650073
2284,0.009722823951395955,0.8149707174231332
2285,0.00972786168401326,0.8149707174231332
2286,0.00972786168401326,0.8150622254758418
2287,0.009732899416630563,0.8150622254758418
2288,0.009732899416630563,0.8151537335285505
2289,0.009742974881865171,0.8151537335285505
2290,0.009742974881865171,0.8152452415812591
2291,0.009753050347099777,0.8152452415812591
2292,0.009753050347099777,0.8153367496339677
2293,0.009758088079717082,0.8153367496339677
2294,0.009758088079717082,0.8155197657393851
2295,0.009763125812334385,0.8155197657393851
2296,0.009763125812334385,0.8156112737920937
2297,0.00979838994065551,0.8156112737920937
2298,0.00979838994065551,0.815794289897511
2299,0.009808465405890117,0.815794289897511
2300,0.009808465405890117,0.8158857979502196
2301,0.009818540871124725,0.8158857979502196
2302,0.009818540871124725,0.8159773060029283
2303,0.009848767266828545,0.8159773060029283
2304,0.009848767266828545,0.8160688140556369
2305,0.00986891819729776,0.8160688140556369
2306,0.00986891819729776,0.8164348462664714
2307,0.009884031395149671,0.8164348462664714
2308,0.009884031395149671,0.8166178623718887
2309,0.009894106860384277,0.8166178623718887
2310,0.009894106860384277,0.816800878477306
2311,0.009919295523470796,0.816800878477306
2312,0.009919295523470796,0.8168923865300146
2313,0.00993944645394001,0.8168923865300146
2314,0.00993944645394001,0.8171669106881405
2315,0.009949521919174618,0.8171669106881405
2316,0.009949521919174618,0.8173499267935578
2317,0.009959597384409226,0.8173499267935578
2318,0.009959597384409226,0.8174414348462665
2319,0.009969672849643832,0.8174414348462665
2320,0.009969672849643832,0.8175329428989752
2321,0.009974710582261136,0.8175329428989752
2322,0.009974710582261136,0.8176244509516838
2323,0.00997974831487844,0.8176244509516838
2324,0.00997974831487844,0.8178074670571011
2325,0.00999486151273035,0.8178074670571011
2326,0.00999486151273035,0.8178989751098097
2327,0.010015012443199564,0.8178989751098097
2328,0.010015012443199564,0.8179904831625183
2329,0.010040201106286083,0.8179904831625183
2330,0.010040201106286083,0.818081991215227
2331,0.010065389769372601,0.818081991215227
2332,0.010065389769372601,0.8181734992679356
2333,0.010080502967224512,0.8181734992679356
2334,0.010080502967224512,0.8183565153733529
2335,0.010140955758632155,0.8183565153733529
2336,0.010140955758632155,0.8186310395314788
2337,0.010151031223866762,0.8186310395314788
2338,0.010151031223866762,0.8190885797950219
2339,0.01017621988695328,0.8190885797950219
2340,0.01017621988695328,0.8191800878477306
2341,0.010186295352187888,0.8191800878477306
2342,0.010186295352187888,0.8192715959004392
2343,0.010191333084805191,0.8192715959004392
2344,0.010191333084805191,0.8193631039531479
2345,0.010196370817422494,0.8193631039531479
2346,0.010196370817422494,0.8197291361639825
2347,0.010201408550039799,0.8197291361639825
2348,0.010201408550039799,0.8198206442166911
2349,0.010221559480509013,0.8198206442166911
2350,0.010221559480509013,0.8199121522693997
2351,0.010251785876212834,0.8199121522693997
2352,0.010251785876212834,0.8200036603221084
2353,0.010256823608830137,0.8200036603221084
2354,0.010256823608830137,0.820095168374817
2355,0.010287050004533959,0.820095168374817
2356,0.010287050004533959,0.8201866764275256
2357,0.010292087737151264,0.8201866764275256
2358,0.010292087737151264,0.8202781844802343
2359,0.01030216320238587,0.8202781844802343
2360,0.01030216320238587,0.8204612005856515
2361,0.010322314132855085,0.8204612005856515
2362,0.010322314132855085,0.8205527086383602
2363,0.0103424650633243,0.8205527086383602
2364,0.0103424650633243,0.8207357247437774
2365,0.010352540528558907,0.8207357247437774
2366,0.010352540528558907,0.8208272327964861
2367,0.01035757826117621,0.8208272327964861
2368,0.01035757826117621,0.8209187408491947
2369,0.010387804656880032,0.8209187408491947
2370,0.010387804656880032,0.8210102489019033
2371,0.010392842389497335,0.8210102489019033
2372,0.010392842389497335,0.8211932650073206
2373,0.010402917854731943,0.8211932650073206
2374,0.010402917854731943,0.821376281112738
2375,0.010412993319966549,0.821376281112738
2376,0.010412993319966549,0.8215592972181552
2377,0.010423068785201156,0.8215592972181552
2378,0.010423068785201156,0.8216508052708639
2379,0.010433144250435764,0.8216508052708639
2380,0.010433144250435764,0.8218338213762811
2381,0.010448257448287675,0.8218338213762811
2382,0.010448257448287675,0.8219253294289898
2383,0.010458332913522281,0.8219253294289898
2384,0.010458332913522281,0.8220168374816984
2385,0.010473446111374192,0.8220168374816984
2386,0.010473446111374192,0.822108345534407
2387,0.010478483843991497,0.822108345534407
2388,0.010478483843991497,0.8221998535871157
2389,0.010488559309226103,0.8221998535871157
2390,0.010488559309226103,0.8223828696925329
2391,0.010503672507078014,0.8223828696925329
2392,0.010503672507078014,0.8224743777452416
2393,0.010518785704929924,0.8224743777452416
2394,0.010518785704929924,0.8227489019033675
2395,0.010528861170164532,0.8227489019033675
2396,0.010528861170164532,0.8228404099560761
2397,0.010533898902781835,0.8228404099560761
2398,0.010533898902781835,0.8230234260614934
2399,0.010543974368016443,0.8230234260614934
2400,0.010543974368016443,0.823114934114202
2401,0.010584276228954873,0.823114934114202
2402,0.010584276228954873,0.8232064421669106
2403,0.010589313961572176,0.8232064421669106
2404,0.010589313961572176,0.8232979502196194
2405,0.010604427159424086,0.8232979502196194
2406,0.010604427159424086,0.8234809663250366
2407,0.01060946489204139,0.8234809663250366
2408,0.01060946489204139,0.8235724743777453
2409,0.010629615822510605,0.8235724743777453
2410,0.010629615822510605,0.8236639824304539
2411,0.010634653555127908,0.8236639824304539
2412,0.010634653555127908,0.8238469985358712
2413,0.010639691287745211,0.8238469985358712
2414,0.010639691287745211,0.8241215226939971
2415,0.010644729020362516,0.8241215226939971
2416,0.010644729020362516,0.8242130307467057
2417,0.010649766752979819,0.8242130307467057
2418,0.010649766752979819,0.824396046852123
2419,0.010659842218214427,0.824396046852123
2420,0.010659842218214427,0.8244875549048316
2421,0.01066487995083173,0.8244875549048316
2422,0.01066487995083173,0.8245790629575402
2423,0.010669917683449033,0.8245790629575402
2424,0.010669917683449033,0.8247620790629575
2425,0.010685030881300944,0.8247620790629575
2426,0.010685030881300944,0.8248535871156661
2427,0.010690068613918248,0.8248535871156661
2428,0.010690068613918248,0.825128111273792
2429,0.010695106346535551,0.825128111273792
2430,0.010695106346535551,0.8252196193265008
2431,0.01070518181177016,0.8252196193265008
2432,0.01070518181177016,0.8253111273792094
2433,0.010710219544387462,0.8253111273792094
2434,0.010710219544387462,0.825402635431918
2435,0.01072029500962207,0.825402635431918
2436,0.01072029500962207,0.8255856515373353
2437,0.010730370474856676,0.8255856515373353
2438,0.010730370474856676,0.825677159590044
2439,0.010745483672708587,0.825677159590044
2440,0.010745483672708587,0.8257686676427526
2441,0.010765634603177802,0.8257686676427526
2442,0.010765634603177802,0.8258601756954612
2443,0.01080593646411623,0.8258601756954612
2444,0.01080593646411623,0.8259516837481699
2445,0.010810974196733535,0.8259516837481699
2446,0.010810974196733535,0.8261346998535871
2447,0.010826087394585446,0.8261346998535871
2448,0.010826087394585446,0.8262262079062958
2449,0.010841200592437357,0.8262262079062958
2450,0.010841200592437357,0.8263177159590044
2451,0.010876464720758481,0.8263177159590044
2452,0.010876464720758481,0.826409224011713
2453,0.010891577918610392,0.826409224011713
2454,0.010891577918610392,0.8265007320644217
2455,0.010896615651227695,0.8265007320644217
2456,0.010896615651227695,0.8266837481698389
2457,0.010906691116462303,0.8266837481698389
2458,0.010906691116462303,0.8267752562225475
2459,0.010916766581696909,0.8267752562225475
2460,0.010916766581696909,0.8269582723279648
2461,0.010921804314314214,0.8269582723279648
2462,0.010921804314314214,0.8270497803806734
2463,0.01093187977954882,0.8270497803806734
2464,0.01093187977954882,0.8271412884333821
2465,0.010941955244783428,0.8271412884333821
2466,0.010941955244783428,0.8272327964860908
2467,0.01094699297740073,0.8272327964860908
2468,0.01094699297740073,0.8273243045387995
2469,0.010957068442635338,0.8273243045387995
2470,0.010957068442635338,0.8274158125915081
2471,0.010967143907869946,0.8274158125915081
2472,0.010967143907869946,0.8278733528550513
2473,0.010977219373104552,0.8278733528550513
2474,0.010977219373104552,0.8279648609077599
2475,0.01098729483833916,0.8279648609077599
2476,0.01098729483833916,0.8281478770131772
2477,0.0110427098971295,0.8281478770131772
2478,0.0110427098971295,0.8282393850658858
2479,0.011057823094981411,0.8282393850658858
2480,0.011057823094981411,0.8285139092240117
2481,0.011062860827598714,0.8285139092240117
2482,0.011062860827598714,0.828696925329429
2483,0.011088049490685233,0.828696925329429
2484,0.011088049490685233,0.8289714494875549
2485,0.01111323815377175,0.8289714494875549
2486,0.01111323815377175,0.8290629575402635
2487,0.011118275886389055,0.8290629575402635
2488,0.011118275886389055,0.8291544655929722
2489,0.01112835135162366,0.8291544655929722
2490,0.01112835135162366,0.8294289897510981
2491,0.011138426816858268,0.8294289897510981
2492,0.011138426816858268,0.8295204978038068
2493,0.011143464549475571,0.8295204978038068
2494,0.011143464549475571,0.8296120058565154
2495,0.011148502282092876,0.8296120058565154
2496,0.011148502282092876,0.8297950219619327
2497,0.011188804143031304,0.8297950219619327
2498,0.011188804143031304,0.8298865300146413
2499,0.01120895507350052,0.8298865300146413
2500,0.01120895507350052,0.8299780380673499
2501,0.011213992806117823,0.8299780380673499
2502,0.011213992806117823,0.8301610541727672
2503,0.011229106003969733,0.8301610541727672
2504,0.011229106003969733,0.8302525622254758
2505,0.011234143736587036,0.8302525622254758
2506,0.011234143736587036,0.8303440702781845
2507,0.011279483330142769,0.8303440702781845
2508,0.011279483330142769,0.8304355783308931
2509,0.011284521062760074,0.8304355783308931
2510,0.011284521062760074,0.8305270863836017
2511,0.011304671993229288,0.8305270863836017
2512,0.011304671993229288,0.8306185944363104
2513,0.011329860656315806,0.8306185944363104
2514,0.011329860656315806,0.830710102489019
2515,0.011344973854167717,0.830710102489019
2516,0.011344973854167717,0.8308016105417276
2517,0.011370162517254234,0.8308016105417276
2518,0.011370162517254234,0.8308931185944363
2519,0.011375200249871539,0.8308931185944363
2520,0.011375200249871539,0.8310761346998536
2521,0.011385275715106145,0.8310761346998536
2522,0.011385275715106145,0.8312591508052709
2523,0.01139031344772345,0.8312591508052709
2524,0.01139031344772345,0.8313506588579795
2525,0.011395351180340752,0.8313506588579795
2526,0.011395351180340752,0.8314421669106882
2527,0.011400388912958056,0.8314421669106882
2528,0.011400388912958056,0.8316251830161054
2529,0.011415502110809966,0.8316251830161054
2530,0.011415502110809966,0.8317166910688141
2531,0.011450766239131091,0.8317166910688141
2532,0.011450766239131091,0.8318081991215227
2533,0.01147595490221761,0.8318081991215227
2534,0.01147595490221761,0.8318997071742313
2535,0.011480992634834913,0.8318997071742313
2536,0.011480992634834913,0.83199121522694
2537,0.011501143565304128,0.83199121522694
2538,0.011501143565304128,0.8320827232796486
2539,0.011521294495773342,0.8320827232796486
2540,0.011521294495773342,0.8324487554904831
2541,0.011541445426242556,0.8324487554904831
2542,0.011541445426242556,0.8325402635431918
2543,0.01154648315885986,0.8325402635431918
2544,0.01154648315885986,0.8326317715959004
2545,0.011551520891477164,0.8326317715959004
2546,0.011551520891477164,0.832723279648609
2547,0.011561596356711772,0.832723279648609
2548,0.011561596356711772,0.8328147877013177
2549,0.011576709554563682,0.8328147877013177
2550,0.011576709554563682,0.8329978038067349
2551,0.011596860485032896,0.8329978038067349
2552,0.011596860485032896,0.8330893118594437
2553,0.0116018982176502,0.8330893118594437
2554,0.0116018982176502,0.8331808199121523
2555,0.011637162345971326,0.8331808199121523
2556,0.011637162345971326,0.833272327964861
2557,0.011652275543823237,0.833272327964861
2558,0.011652275543823237,0.8333638360175696
2559,0.011662351009057843,0.8333638360175696
2560,0.011662351009057843,0.8334553440702782
2561,0.011667388741675147,0.8334553440702782
2562,0.011667388741675147,0.8335468521229868
2563,0.011707690602613575,0.8335468521229868
2564,0.011707690602613575,0.8336383601756955
2565,0.011753030196169308,0.8336383601756955
2566,0.011753030196169308,0.8338213762811127
2567,0.011758067928786612,0.8338213762811127
2568,0.011758067928786612,0.83400439238653
2569,0.011763105661403915,0.83400439238653
2570,0.011763105661403915,0.8341874084919473
2571,0.011768143394021218,0.8341874084919473
2572,0.011768143394021218,0.8342789165446559
2573,0.011788294324490434,0.8342789165446559
2574,0.011788294324490434,0.8343704245973645
2575,0.01179836978972504,0.8343704245973645
2576,0.01179836978972504,0.8344619326500732
2577,0.011803407522342345,0.8344619326500732
2578,0.011803407522342345,0.8345534407027818
2579,0.011823558452811559,0.8345534407027818
2580,0.011823558452811559,0.8346449487554904
2581,0.011833633918046167,0.8346449487554904
2582,0.011833633918046167,0.8347364568081991
2583,0.011848747115898077,0.8347364568081991
2584,0.011848747115898077,0.8349194729136163
2585,0.011863860313749988,0.8349194729136163
2586,0.011863860313749988,0.8350109809663251
2587,0.011868898046367291,0.8350109809663251
2588,0.011868898046367291,0.8351024890190337
2589,0.01190919990730572,0.8351024890190337
2590,0.01190919990730572,0.835285505124451
2591,0.011949501768244148,0.835285505124451
2592,0.011949501768244148,0.8355600292825769
2593,0.012014992292269095,0.8355600292825769
2594,0.012014992292269095,0.8356515373352855
2595,0.0120200300248864,0.8356515373352855
2596,0.0120200300248864,0.8361090775988287
2597,0.012045218687972916,0.8361090775988287
2598,0.012045218687972916,0.836292093704246
2599,0.012050256420590221,0.836292093704246
2600,0.012050256420590221,0.8364751098096632
2601,0.012075445083676738,0.8364751098096632
2602,0.012075445083676738,0.8365666178623719
2603,0.012080482816294043,0.8365666178623719
2604,0.012080482816294043,0.8366581259150805
2605,0.012095596014145954,0.8366581259150805
2606,0.012095596014145954,0.8368411420204978
2607,0.01212078467723247,0.8368411420204978
2608,0.01212078467723247,0.8369326500732065
2609,0.012125822409849775,0.8369326500732065
2610,0.012125822409849775,0.8371156661786238
2611,0.012135897875084381,0.8371156661786238
2612,0.012135897875084381,0.837298682284041
2613,0.012151011072936292,0.837298682284041
2614,0.012151011072936292,0.8373901903367497
2615,0.012171162003405508,0.8373901903367497
2616,0.012171162003405508,0.8374816983894583
2617,0.012211463864343935,0.8374816983894583
2618,0.012211463864343935,0.8376647144948756
2619,0.012241690260047757,0.8376647144948756
2620,0.012241690260047757,0.8377562225475842
2621,0.012251765725282365,0.8377562225475842
2622,0.012251765725282365,0.8378477306002928
2623,0.012261841190516973,0.8378477306002928
2624,0.012261841190516973,0.8382137628111274
2625,0.012266878923134276,0.8382137628111274
2626,0.012266878923134276,0.8383967789165446
2627,0.012292067586220794,0.8383967789165446
2628,0.012292067586220794,0.8384882869692533
2629,0.0123021430514554,0.8384882869692533
2630,0.0123021430514554,0.8386713030746705
2631,0.012317256249307311,0.8386713030746705
2632,0.012317256249307311,0.8389458272327965
2633,0.012322293981924616,0.8389458272327965
2634,0.012322293981924616,0.8390373352855052
2635,0.012327331714541919,0.8390373352855052
2636,0.012327331714541919,0.8392203513909224
2637,0.01234244491239383,0.8392203513909224
2638,0.01234244491239383,0.8394033674963397
2639,0.012347482645011133,0.8394033674963397
2640,0.012347482645011133,0.8394948755490483
2641,0.012372671308097652,0.8394948755490483
2642,0.012372671308097652,0.8396778916544656
2643,0.01238274677333226,0.8396778916544656
2644,0.01238274677333226,0.8397693997071742
2645,0.012428086366887992,0.8397693997071742
2646,0.012428086366887992,0.8400439238653001
2647,0.012443199564739903,0.8400439238653001
2648,0.012443199564739903,0.8401354319180088
2649,0.012458312762591814,0.8401354319180088
2650,0.012458312762591814,0.840318448023426
2651,0.01246838822782642,0.840318448023426
2652,0.01246838822782642,0.8404099560761347
2653,0.012518765553999455,0.8404099560761347
2654,0.012518765553999455,0.8405929721815519
2655,0.01252380328661676,0.8405929721815519
2656,0.01252380328661676,0.8406844802342606
2657,0.012574180612789795,0.8406844802342606
2658,0.012574180612789795,0.8407759882869692
2659,0.012619520206345528,0.8407759882869692
2660,0.012619520206345528,0.8408674963396779
2661,0.012624557938962831,0.8408674963396779
2662,0.012624557938962831,0.8409590043923866
2663,0.012629595671580136,0.8409590043923866
2664,0.012629595671580136,0.8411420204978038
2665,0.012634633404197439,0.8411420204978038
2666,0.012634633404197439,0.8412335285505125
2667,0.012644708869432046,0.8412335285505125
2668,0.012644708869432046,0.8413250366032211
2669,0.012659822067283957,0.8413250366032211
2670,0.012659822067283957,0.8414165446559297
2671,0.012685010730370474,0.8414165446559297
2672,0.012685010730370474,0.8415080527086384
2673,0.012690048462987779,0.8415080527086384
2674,0.012690048462987779,0.841599560761347
2675,0.012695086195605082,0.841599560761347
