,fpr,tpr
0,0.0,0.0
1,0.0,0.0006944444444444445
2,0.0,0.001388888888888889
3,3.303600925008259e-05,0.001388888888888889
4,3.303600925008259e-05,0.002777777777777778
5,4.955401387512388e-05,0.002777777777777778
6,4.955401387512388e-05,0.011111111111111112
7,6.607201850016519e-05,0.011111111111111112
8,6.607201850016519e-05,0.016666666666666666
9,8.259002312520647e-05,0.016666666666666666
10,8.259002312520647e-05,0.029861111111111113
11,9.910802775024777e-05,0.029861111111111113
12,9.910802775024777e-05,0.03125
13,9.910802775024777e-05,0.050694444444444445
14,0.00011562603237528906,0.050694444444444445
15,0.00011562603237528906,0.05555555555555555
16,0.00013214403700033037,0.05555555555555555
17,0.00013214403700033037,0.05694444444444444
18,0.00014866204162537167,0.05694444444444444
19,0.00014866204162537167,0.058333333333333334
20,0.00014866204162537167,0.059722222222222225
21,0.00014866204162537167,0.06666666666666667
22,0.00016518004625041294,0.06666666666666667
23,0.00016518004625041294,0.06875
24,0.00016518004625041294,0.07013888888888889
25,0.00016518004625041294,0.10416666666666667
26,0.00016518004625041294,0.10555555555555556
27,0.00016518004625041294,0.10902777777777778
28,0.00018169805087545423,0.10902777777777778
29,0.00018169805087545423,0.1111111111111111
30,0.00019821605550049553,0.1111111111111111
31,0.00019821605550049553,0.12638888888888888
32,0.00021473406012553683,0.12638888888888888
33,0.00021473406012553683,0.13333333333333333
34,0.00023125206475057812,0.13333333333333333
35,0.00023125206475057812,0.14305555555555555
36,0.0002477700693756194,0.14305555555555555
37,0.0002477700693756194,0.14583333333333334
38,0.00026428807400066074,0.14583333333333334
39,0.00026428807400066074,0.14722222222222223
40,0.00026428807400066074,0.1486111111111111
41,0.000280806078625702,0.1486111111111111
42,0.000280806078625702,0.15138888888888888
43,0.00029732408325074334,0.15208333333333332
44,0.00029732408325074334,0.16111111111111112
45,0.0003138420878757846,0.16111111111111112
46,0.0003138420878757846,0.175
47,0.0003303600925008259,0.175
48,0.0003303600925008259,0.1763888888888889
49,0.0003468780971258672,0.1763888888888889
50,0.0003468780971258672,0.17777777777777778
51,0.00036339610175090847,0.17777777777777778
52,0.00036339610175090847,0.1798611111111111
53,0.0003799141063759498,0.1798611111111111
54,0.0003799141063759498,0.1875
55,0.00039643211100099106,0.1875
56,0.00039643211100099106,0.19722222222222222
57,0.0004129501156260324,0.19722222222222222
58,0.0004129501156260324,0.20069444444444445
59,0.00042946812025107365,0.20069444444444445
60,0.00042946812025107365,0.20833333333333334
61,0.000445986124876115,0.20833333333333334
62,0.000445986124876115,0.21944444444444444
63,0.000445986124876115,0.22083333333333333
64,0.000445986124876115,0.22708333333333333
65,0.00046250412950115625,0.22708333333333333
66,0.00046250412950115625,0.22777777777777777
67,0.00047902213412619757,0.22777777777777777
68,0.00047902213412619757,0.23680555555555555
69,0.0004955401387512388,0.23680555555555555
70,0.0004955401387512388,0.2388888888888889
71,0.0005120581433762802,0.2388888888888889
72,0.0005120581433762802,0.24027777777777778
73,0.0005120581433762802,0.24513888888888888
74,0.0005285761480013215,0.24513888888888888
75,0.0005285761480013215,0.2465277777777778
76,0.0005450941526263627,0.2465277777777778
77,0.0005450941526263627,0.24791666666666667
78,0.000561612157251404,0.24791666666666667
79,0.000561612157251404,0.24930555555555556
80,0.0005946481665014867,0.24930555555555556
81,0.0005946481665014867,0.25555555555555554
82,0.0006111661711265279,0.25555555555555554
83,0.0006111661711265279,0.2611111111111111
84,0.0006276841757515692,0.2611111111111111
85,0.0006276841757515692,0.2673611111111111
86,0.0006607201850016518,0.2673611111111111
87,0.0006607201850016518,0.2847222222222222
88,0.0006772381896266931,0.2847222222222222
89,0.0006772381896266931,0.28958333333333336
90,0.0006937561942517344,0.28958333333333336
91,0.0006937561942517344,0.2916666666666667
92,0.0007102741988767757,0.2916666666666667
93,0.0007102741988767757,0.29375
94,0.0007267922035018169,0.29375
95,0.0007267922035018169,0.29791666666666666
96,0.0007433102081268583,0.29791666666666666
97,0.0007433102081268583,0.2986111111111111
98,0.0007598282127518996,0.2986111111111111
99,0.0007598282127518996,0.3013888888888889
100,0.0007928642220019821,0.3013888888888889
101,0.0007928642220019821,0.3034722222222222
102,0.0008093822266270234,0.3034722222222222
103,0.0008093822266270234,0.30486111111111114
104,0.0008259002312520648,0.30486111111111114
105,0.0008259002312520648,0.30972222222222223
106,0.0008424182358771061,0.30972222222222223
107,0.0008424182358771061,0.3138888888888889
108,0.0008589362405021473,0.3138888888888889
109,0.0008589362405021473,0.32083333333333336
110,0.0008754542451271886,0.32083333333333336
111,0.0008754542451271886,0.3229166666666667
112,0.00089197224975223,0.3229166666666667
113,0.00089197224975223,0.3236111111111111
114,0.0009250082590023125,0.3236111111111111
115,0.0009250082590023125,0.325
116,0.0009415262636273538,0.325
117,0.0009415262636273538,0.33194444444444443
118,0.0009580442682523951,0.33194444444444443
119,0.0009580442682523951,0.33819444444444446
120,0.0009745622728774364,0.33819444444444446
121,0.0009745622728774364,0.34444444444444444
122,0.0009910802775024777,0.34444444444444444
123,0.0009910802775024777,0.3541666666666667
124,0.001007598282127519,0.3541666666666667
125,0.001007598282127519,0.36180555555555555
126,0.0010241162867525603,0.36180555555555555
127,0.0010241162867525603,0.36666666666666664
128,0.0010406342913776017,0.36666666666666664
129,0.0010406342913776017,0.3736111111111111
130,0.001057152296002643,0.3736111111111111
131,0.001057152296002643,0.3784722222222222
132,0.001073670300627684,0.3784722222222222
133,0.001073670300627684,0.3958333333333333
134,0.0010901883052527254,0.3958333333333333
135,0.0010901883052527254,0.39652777777777776
136,0.0011067063098777667,0.39652777777777776
137,0.0011067063098777667,0.40069444444444446
138,0.0011397423191278494,0.40069444444444446
139,0.0011397423191278494,0.4041666666666667
140,0.0011562603237528907,0.4041666666666667
141,0.0011562603237528907,0.4048611111111111
142,0.001172778328377932,0.4048611111111111
143,0.001172778328377932,0.4166666666666667
144,0.0011892963330029733,0.4166666666666667
145,0.0011892963330029733,0.4173611111111111
146,0.0012058143376280145,0.4173611111111111
147,0.0012058143376280145,0.41875
148,0.0012223323422530558,0.41875
149,0.0012223323422530558,0.4284722222222222
150,0.001238850346878097,0.4284722222222222
151,0.001238850346878097,0.42986111111111114
152,0.0012553683515031384,0.42986111111111114
153,0.0012553683515031384,0.43125
154,0.0012718863561281797,0.43125
155,0.0012718863561281797,0.43333333333333335
156,0.0013049223653782624,0.43333333333333335
157,0.0013049223653782624,0.4340277777777778
158,0.0013379583746283448,0.4340277777777778
159,0.0013379583746283448,0.4354166666666667
160,0.0013544763792533861,0.4354166666666667
161,0.0013544763792533861,0.43819444444444444
162,0.0013709943838784275,0.43819444444444444
163,0.0013709943838784275,0.4388888888888889
164,0.0013875123885034688,0.4388888888888889
165,0.0013875123885034688,0.44027777777777777
166,0.0014040303931285101,0.44027777777777777
167,0.0014040303931285101,0.4409722222222222
168,0.0014205483977535514,0.4409722222222222
169,0.0014205483977535514,0.44930555555555557
170,0.0014370664023785928,0.44930555555555557
171,0.0014370664023785928,0.4513888888888889
172,0.0014701024116286752,0.4513888888888889
173,0.0014701024116286752,0.4527777777777778
174,0.0014866204162537165,0.4527777777777778
175,0.0014866204162537165,0.45625
176,0.0015031384208787578,0.45625
177,0.0015031384208787578,0.4583333333333333
178,0.0015196564255037992,0.4583333333333333
179,0.0015196564255037992,0.46111111111111114
180,0.0015361744301288405,0.46111111111111114
181,0.0015361744301288405,0.4625
182,0.001569210439378923,0.4625
183,0.001569210439378923,0.46805555555555556
184,0.0015857284440039642,0.46805555555555556
185,0.0015857284440039642,0.47847222222222224
186,0.0016022464486290056,0.47847222222222224
187,0.0016022464486290056,0.4791666666666667
188,0.001618764453254047,0.4791666666666667
189,0.001618764453254047,0.48194444444444445
190,0.0016518004625041295,0.48194444444444445
191,0.0016518004625041295,0.4847222222222222
192,0.0016683184671291709,0.4847222222222222
193,0.0016683184671291709,0.48819444444444443
194,0.0016848364717542122,0.48819444444444443
195,0.0016848364717542122,0.49027777777777776
196,0.0017013544763792533,0.49027777777777776
197,0.0017013544763792533,0.49166666666666664
198,0.001734390485629336,0.49166666666666664
199,0.001734390485629336,0.49236111111111114
200,0.0017674264948794186,0.49236111111111114
201,0.0017674264948794186,0.49444444444444446
202,0.00178394449950446,0.49444444444444446
203,0.00178394449950446,0.4979166666666667
204,0.0018169805087545426,0.4979166666666667
205,0.0018169805087545426,0.5
206,0.001850016518004625,0.5
207,0.001850016518004625,0.5034722222222222
208,0.0018665345226296663,0.5034722222222222
209,0.0018665345226296663,0.5055555555555555
210,0.0018830525272547076,0.5055555555555555
211,0.0018830525272547076,0.5090277777777777
212,0.0019160885365047903,0.5090277777777777
213,0.0019160885365047903,0.5138888888888888
214,0.0019326065411298316,0.5138888888888888
215,0.0019326065411298316,0.5166666666666667
216,0.0019491245457548727,0.5166666666666667
217,0.0019491245457548727,0.5173611111111112
218,0.001965642550379914,0.5173611111111112
219,0.001965642550379914,0.51875
220,0.002015196564255038,0.51875
221,0.002015196564255038,0.5201388888888889
222,0.0020482325735051207,0.5201388888888889
223,0.0020482325735051207,0.5298611111111111
224,0.002064750578130162,0.5298611111111111
225,0.002064750578130162,0.5361111111111111
226,0.0020812685827552033,0.5361111111111111
227,0.0020812685827552033,0.5375
228,0.0020812685827552033,0.5402777777777777
229,0.0020977865873802446,0.5402777777777777
230,0.0020977865873802446,0.54375
231,0.002114304592005286,0.54375
232,0.002114304592005286,0.5465277777777777
233,0.0021308225966303273,0.5465277777777777
234,0.0021308225966303273,0.5520833333333334
235,0.0021308225966303273,0.5534722222222223
236,0.0021308225966303273,0.5541666666666667
237,0.002147340601255368,0.5541666666666667
238,0.002147340601255368,0.5583333333333333
239,0.002180376610505451,0.5583333333333333
240,0.002180376610505451,0.5597222222222222
241,0.002180376610505451,0.5618055555555556
242,0.002196894615130492,0.5618055555555556
243,0.002196894615130492,0.5625
244,0.0022134126197555335,0.5625
245,0.0022134126197555335,0.5631944444444444
246,0.0022299306243805748,0.5631944444444444
247,0.0022299306243805748,0.5638888888888889
248,0.0022794846382556988,0.5638888888888889
249,0.0022794846382556988,0.5645833333333333
250,0.0023125206475057814,0.5645833333333333
251,0.0023125206475057814,0.5673611111111111
252,0.0023290386521308227,0.5673611111111111
253,0.0023290386521308227,0.5694444444444444
254,0.0023620746613809054,0.5694444444444444
255,0.0023620746613809054,0.5708333333333333
256,0.0024281466798810702,0.5708333333333333
257,0.0024281466798810702,0.5715277777777777
258,0.0024446646845061116,0.5715277777777777
259,0.0024446646845061116,0.5722222222222222
260,0.002461182689131153,0.5722222222222222
261,0.002461182689131153,0.5729166666666666
262,0.002477700693756194,0.5729166666666666
263,0.002477700693756194,0.5736111111111111
264,0.002510736703006277,0.5736111111111111
265,0.002510736703006277,0.5756944444444444
266,0.002527254707631318,0.5756944444444444
267,0.002527254707631318,0.5770833333333333
268,0.002576808721506442,0.5770833333333333
269,0.002576808721506442,0.5777777777777777
270,0.0025933267261314835,0.5784722222222223
271,0.002609844730756525,0.5784722222222223
272,0.002609844730756525,0.5805555555555556
273,0.002642880740006607,0.5805555555555556
274,0.002642880740006607,0.5833333333333334
275,0.0026593987446316483,0.5833333333333334
276,0.0026593987446316483,0.5840277777777778
277,0.0026759167492566896,0.5840277777777778
278,0.0026759167492566896,0.5854166666666667
279,0.0027585067723818963,0.5854166666666667
280,0.0027585067723818963,0.5875
281,0.0027750247770069376,0.5875
282,0.0027750247770069376,0.5895833333333333
283,0.002791542781631979,0.5895833333333333
284,0.002791542781631979,0.5923611111111111
285,0.0028245787908820616,0.5923611111111111
286,0.0028245787908820616,0.5958333333333333
287,0.002841096795507103,0.5958333333333333
288,0.002841096795507103,0.5993055555555555
289,0.0028741328047571855,0.5993055555555555
290,0.0028741328047571855,0.6
291,0.0028906508093822264,0.6
292,0.0028906508093822264,0.6027777777777777
293,0.0029071688140072677,0.6027777777777777
294,0.0029071688140072677,0.6048611111111111
295,0.002923686818632309,0.6048611111111111
296,0.002923686818632309,0.6055555555555555
297,0.0029402048232573504,0.6055555555555555
298,0.0029402048232573504,0.6069444444444444
299,0.0029567228278823917,0.6069444444444444
300,0.0029567228278823917,0.6083333333333333
301,0.002973240832507433,0.6083333333333333
302,0.002973240832507433,0.6111111111111112
303,0.0030393128510075983,0.6111111111111112
304,0.0030393128510075983,0.6118055555555556
305,0.0030558308556326397,0.6118055555555556
306,0.0030558308556326397,0.6173611111111111
307,0.0030888668648827223,0.6173611111111111
308,0.0030888668648827223,0.6180555555555556
309,0.0031053848695077636,0.6180555555555556
310,0.0031053848695077636,0.6194444444444445
311,0.003121902874132805,0.6194444444444445
312,0.003121902874132805,0.6208333333333333
313,0.003121902874132805,0.6236111111111111
314,0.003138420878757846,0.6236111111111111
315,0.003138420878757846,0.625
316,0.003154938883382887,0.625
317,0.003154938883382887,0.6263888888888889
318,0.003237528906508094,0.6263888888888889
319,0.003237528906508094,0.6277777777777778
320,0.0032705649157581764,0.6277777777777778
321,0.0032705649157581764,0.6298611111111111
322,0.003303600925008259,0.6298611111111111
323,0.003303600925008259,0.6319444444444444
324,0.0033366369342583417,0.6319444444444444
325,0.0033366369342583417,0.6333333333333333
326,0.003353154938883383,0.6333333333333333
327,0.003353154938883383,0.6340277777777777
328,0.0033696729435084244,0.6340277777777777
329,0.0033696729435084244,0.6347222222222222
330,0.0034027089527585066,0.6347222222222222
331,0.0034027089527585066,0.6354166666666666
332,0.0034357449620085892,0.6354166666666666
333,0.0034357449620085892,0.6361111111111111
334,0.0034522629666336306,0.6361111111111111
335,0.0034522629666336306,0.6375
336,0.003468780971258672,0.6375
337,0.003468780971258672,0.6381944444444444
338,0.003485298975883713,0.6381944444444444
339,0.003485298975883713,0.6388888888888888
340,0.00356788899900892,0.6388888888888888
341,0.00356788899900892,0.6395833333333333
342,0.003584407003633961,0.6395833333333333
343,0.003584407003633961,0.6430555555555556
344,0.003617443012884044,0.6430555555555556
345,0.003617443012884044,0.64375
346,0.0036835150313842087,0.64375
347,0.0036835150313842087,0.6458333333333334
348,0.00370003303600925,0.6458333333333334
349,0.00370003303600925,0.6465277777777778
350,0.0037165510406342913,0.6465277777777778
351,0.0037165510406342913,0.6472222222222223
352,0.0037330690452593326,0.6472222222222223
353,0.0037330690452593326,0.6479166666666667
354,0.003749587049884374,0.6479166666666667
355,0.003749587049884374,0.6486111111111111
356,0.003749587049884374,0.65
357,0.0037826230591344566,0.65
358,0.0037826230591344566,0.6513888888888889
359,0.003799141063759498,0.6513888888888889
360,0.003799141063759498,0.6520833333333333
361,0.0038156590683845392,0.6520833333333333
362,0.0038156590683845392,0.6534722222222222
363,0.003848695077634622,0.6534722222222222
364,0.003848695077634622,0.6541666666666667
365,0.003865213082259663,0.6541666666666667
366,0.003865213082259663,0.65625
367,0.0038817310868847045,0.65625
368,0.0038817310868847045,0.6576388888888889
369,0.0038982490915097454,0.6576388888888889
370,0.0038982490915097454,0.6590277777777778
371,0.00394780310538487,0.6590277777777778
372,0.00394780310538487,0.6604166666666667
373,0.003964321110009911,0.6604166666666667
374,0.003964321110009911,0.6611111111111111
375,0.004013875123885034,0.6611111111111111
376,0.004013875123885034,0.6625
377,0.004030393128510076,0.6625
378,0.004030393128510076,0.6659722222222222
379,0.004046911133135117,0.6659722222222222
380,0.004046911133135117,0.6673611111111111
381,0.004096465147010241,0.6673611111111111
382,0.004096465147010241,0.6680555555555555
383,0.004112983151635282,0.6680555555555555
384,0.004112983151635282,0.66875
385,0.004129501156260324,0.66875
386,0.004129501156260324,0.6708333333333333
387,0.004162537165510407,0.6708333333333333
388,0.004162537165510407,0.6729166666666667
389,0.0041790551701354475,0.6729166666666667
390,0.0041790551701354475,0.6743055555555556
391,0.004245127188635613,0.6743055555555556
392,0.0042781631978856954,0.6743055555555556
393,0.0042781631978856954,0.6763888888888889
394,0.004294681202510736,0.6763888888888889
395,0.004294681202510736,0.6770833333333334
396,0.004311199207135778,0.6770833333333334
397,0.004311199207135778,0.6798611111111111
398,0.004327717211760819,0.6798611111111111
399,0.004327717211760819,0.6805555555555556
400,0.004344235216385861,0.6805555555555556
401,0.004344235216385861,0.68125
402,0.004360753221010902,0.68125
403,0.004360753221010902,0.6819444444444445
404,0.004426825239511067,0.6819444444444445
405,0.004426825239511067,0.6826388888888889
406,0.004492897258011232,0.6826388888888889
407,0.004492897258011232,0.6833333333333333
408,0.004724149322761811,0.6833333333333333
409,0.004724149322761811,0.6840277777777778
410,0.004724149322761811,0.6854166666666667
411,0.004773703336636934,0.6854166666666667
412,0.004773703336636934,0.6861111111111111
413,0.004790221341261975,0.6861111111111111
414,0.004790221341261975,0.6875
415,0.004823257350512058,0.6875
416,0.004823257350512058,0.6881944444444444
417,0.004872811364387182,0.6881944444444444
418,0.004872811364387182,0.6888888888888889
419,0.004889329369012223,0.6888888888888889
420,0.004889329369012223,0.6895833333333333
421,0.0049388833828873475,0.6895833333333333
422,0.0049388833828873475,0.6909722222222222
423,0.004955401387512388,0.6909722222222222
424,0.004955401387512388,0.6916666666666667
425,0.004988437396762471,0.6916666666666667
426,0.004988437396762471,0.6930555555555555
427,0.005087545424512719,0.6930555555555555
428,0.005087545424512719,0.69375
429,0.005120581433762802,0.69375
430,0.005120581433762802,0.6944444444444444
431,0.0051370994383878425,0.6944444444444444
432,0.0051370994383878425,0.6951388888888889
433,0.005153617443012884,0.6951388888888889
434,0.005153617443012884,0.6958333333333333
435,0.005170135447637925,0.6958333333333333
436,0.005170135447637925,0.6986111111111111
437,0.005252725470763132,0.6986111111111111
438,0.005252725470763132,0.6993055555555555
439,0.005269243475388173,0.6993055555555555
440,0.005269243475388173,0.7
441,0.005285761480013214,0.7
442,0.005285761480013214,0.7006944444444444
443,0.005351833498513379,0.7006944444444444
444,0.005351833498513379,0.7034722222222223
445,0.005368351503138421,0.7034722222222223
446,0.005368351503138421,0.7048611111111112
447,0.005500495540138752,0.7048611111111112
448,0.005500495540138752,0.7055555555555556
449,0.005550049554013875,0.7055555555555556
450,0.005550049554013875,0.7090277777777778
451,0.005599603567888999,0.7090277777777778
452,0.005599603567888999,0.7104166666666667
453,0.0056161215725140405,0.7104166666666667
454,0.0056161215725140405,0.7111111111111111
455,0.005649157581764123,0.7111111111111111
456,0.005649157581764123,0.7118055555555556
457,0.005682193591014206,0.7118055555555556
458,0.005682193591014206,0.7125
459,0.005715229600264288,0.7125
460,0.005715229600264288,0.7138888888888889
461,0.005731747604889329,0.7138888888888889
462,0.005731747604889329,0.7166666666666667
463,0.005764783614139412,0.7166666666666667
464,0.005764783614139412,0.7180555555555556
465,0.0058143376280145355,0.7180555555555556
466,0.0058143376280145355,0.71875
467,0.005830855632639577,0.71875
468,0.005830855632639577,0.7194444444444444
469,0.005847373637264618,0.7194444444444444
470,0.005847373637264618,0.7201388888888889
471,0.00586389164188966,0.7201388888888889
472,0.00586389164188966,0.7208333333333333
473,0.005880409646514701,0.7208333333333333
474,0.005880409646514701,0.7222222222222222
475,0.005913445655764783,0.7222222222222222
476,0.005913445655764783,0.7229166666666667
477,0.005946481665014866,0.7229166666666667
478,0.005946481665014866,0.7236111111111111
479,0.006029071688140072,0.7236111111111111
480,0.006029071688140072,0.7256944444444444
481,0.006062107697390155,0.7256944444444444
482,0.006062107697390155,0.7263888888888889
483,0.006078625702015197,0.7263888888888889
484,0.006078625702015197,0.7270833333333333
485,0.006111661711265279,0.7270833333333333
486,0.006111661711265279,0.7277777777777777
487,0.006144697720515362,0.7277777777777777
488,0.006144697720515362,0.7305555555555555
489,0.006260323752890651,0.7305555555555555
490,0.006260323752890651,0.7319444444444444
491,0.006276841757515692,0.7319444444444444
492,0.006276841757515692,0.7326388888888888
493,0.0062933597621407334,0.7326388888888888
494,0.0062933597621407334,0.7333333333333333
495,0.006326395771390816,0.7333333333333333
496,0.006342913776015857,0.7333333333333333
497,0.006342913776015857,0.7340277777777777
498,0.006359431780640899,0.7340277777777777
499,0.006359431780640899,0.7347222222222223
500,0.006442021803766105,0.7347222222222223
501,0.006442021803766105,0.7361111111111112
502,0.006475057813016188,0.7361111111111112
503,0.006491575817641229,0.7361111111111112
504,0.006491575817641229,0.7368055555555556
505,0.00650809382226627,0.7368055555555556
506,0.00650809382226627,0.7375
507,0.006524611826891311,0.7375
508,0.006524611826891311,0.7381944444444445
509,0.006541129831516353,0.7381944444444445
510,0.006541129831516353,0.7388888888888889
511,0.006557647836141394,0.7388888888888889
512,0.006557647836141394,0.7395833333333334
513,0.006722827882391807,0.7395833333333334
514,0.006722827882391807,0.7402777777777778
515,0.006788899900891972,0.7402777777777778
516,0.006788899900891972,0.7409722222222223
517,0.006821935910142055,0.7409722222222223
518,0.006821935910142055,0.7416666666666667
519,0.00688800792864222,0.7416666666666667
520,0.00688800792864222,0.7423611111111111
521,0.007053187974892633,0.7423611111111111
522,0.007053187974892633,0.7430555555555556
523,0.007102741988767757,0.7430555555555556
524,0.007102741988767757,0.7444444444444445
525,0.007119259993392798,0.7444444444444445
526,0.007119259993392798,0.7458333333333333
527,0.00713577799801784,0.7458333333333333
528,0.00713577799801784,0.7479166666666667
529,0.0071522960026428805,0.7479166666666667
530,0.0071522960026428805,0.7486111111111111
531,0.007168814007267922,0.7486111111111111
532,0.007168814007267922,0.7493055555555556
533,0.007218368021143046,0.7493055555555556
534,0.007218368021143046,0.75
535,0.0072514040303931285,0.75
536,0.0072514040303931285,0.7506944444444444
537,0.007367030062768417,0.7506944444444444
538,0.0074000660720185,0.7506944444444444
539,0.007466138090518665,0.7506944444444444
540,0.007499174099768748,0.7506944444444444
541,0.0075322101090188305,0.7506944444444444
542,0.0075322101090188305,0.7520833333333333
543,0.007565246118268913,0.7520833333333333
544,0.007565246118268913,0.7527777777777778
545,0.007647836141394119,0.7527777777777778
546,0.007680872150644202,0.7527777777777778
547,0.007680872150644202,0.7541666666666667
548,0.007746944169144367,0.7541666666666667
549,0.007746944169144367,0.7548611111111111
550,0.007813016187644533,0.7548611111111111
551,0.007813016187644533,0.7555555555555555
552,0.007928642220019821,0.7555555555555555
553,0.007928642220019821,0.75625
554,0.00804426825239511,0.75625
555,0.00804426825239511,0.7569444444444444
556,0.008077304261645194,0.7569444444444444
557,0.008077304261645194,0.7576388888888889
558,0.008110340270895276,0.7576388888888889
559,0.008110340270895276,0.7583333333333333
560,0.008126858275520317,0.7583333333333333
561,0.008126858275520317,0.7590277777777777
562,0.008143376280145359,0.7590277777777777
563,0.008143376280145359,0.7597222222222222
564,0.008159894284770399,0.7597222222222222
565,0.008159894284770399,0.7604166666666666
566,0.008242484307895606,0.7604166666666666
567,0.008242484307895606,0.7618055555555555
568,0.008275520317145688,0.7618055555555555
569,0.008275520317145688,0.7638888888888888
570,0.00829203832177073,0.7638888888888888
571,0.00829203832177073,0.7645833333333333
572,0.008358110340270895,0.7645833333333333
573,0.008358110340270895,0.7652777777777777
574,0.008407664354146019,0.7652777777777777
575,0.008407664354146019,0.7666666666666667
576,0.00842418235877106,0.7666666666666667
577,0.00842418235877106,0.76875
578,0.008490254377271226,0.76875
579,0.008490254377271226,0.7715277777777778
580,0.008572844400396433,0.7715277777777778
581,0.008572844400396433,0.7722222222222223
582,0.008605880409646514,0.7722222222222223
583,0.008605880409646514,0.7729166666666667
584,0.008688470432771721,0.7729166666666667
585,0.008688470432771721,0.7736111111111111
586,0.008704988437396763,0.7736111111111111
587,0.008704988437396763,0.7743055555555556
588,0.008721506442021803,0.7743055555555556
589,0.008721506442021803,0.7756944444444445
590,0.008787578460521969,0.7756944444444445
591,0.008787578460521969,0.7763888888888889
592,0.00880409646514701,0.7763888888888889
593,0.00880409646514701,0.7777777777777778
594,0.008837132474397092,0.7777777777777778
595,0.008837132474397092,0.7784722222222222
596,0.008969276511397423,0.7784722222222222
597,0.008969276511397423,0.7791666666666667
598,0.009084902543772711,0.7791666666666667
599,0.009084902543772711,0.7798611111111111
600,0.009134456557647837,0.7798611111111111
601,0.009134456557647837,0.7805555555555556
602,0.009150974562272877,0.7805555555555556
603,0.009150974562272877,0.78125
604,0.009167492566897919,0.78125
605,0.009167492566897919,0.7819444444444444
606,0.009365708622398414,0.7819444444444444
607,0.009365708622398414,0.7826388888888889
608,0.009448298645523621,0.7826388888888889
609,0.009448298645523621,0.7833333333333333
610,0.009497852659398745,0.7833333333333333
611,0.009497852659398745,0.7840277777777778
612,0.009530888668648827,0.7840277777777778
613,0.009530888668648827,0.7847222222222222
614,0.009894284770399735,0.7847222222222222
615,0.009894284770399735,0.7854166666666667
616,0.009910802775024777,0.7854166666666667
617,0.009910802775024777,0.7861111111111111
618,0.01020812685827552,0.7861111111111111
619,0.01020812685827552,0.7868055555555555
620,0.010241162867525603,0.7868055555555555
621,0.01034027089527585,0.7868055555555555
622,0.01034027089527585,0.7888888888888889
623,0.010505450941526264,0.7888888888888889
624,0.010505450941526264,0.7895833333333333
625,0.010934919061777338,0.7895833333333333
626,0.010934919061777338,0.7902777777777777
627,0.011000991080277503,0.7902777777777777
628,0.011000991080277503,0.7916666666666666
629,0.011050545094152627,0.7916666666666666
630,0.011050545094152627,0.7923611111111111
631,0.011067063098777667,0.7923611111111111
632,0.011067063098777667,0.7930555555555555
633,0.011182689131152957,0.7930555555555555
634,0.011182689131152957,0.79375
635,0.011281797158903204,0.79375
636,0.011314833168153286,0.79375
637,0.0114800132144037,0.79375
638,0.0114800132144037,0.7944444444444444
639,0.011612157251404031,0.7944444444444444
640,0.011612157251404031,0.7951388888888888
641,0.011744301288404362,0.7951388888888888
642,0.011744301288404362,0.7958333333333333
643,0.011992071357779981,0.7958333333333333
644,0.011992071357779981,0.7965277777777777
645,0.012041625371655105,0.7965277777777777
646,0.012058143376280145,0.7972222222222223
647,0.012074661380905186,0.7972222222222223
648,0.012074661380905186,0.7979166666666667
649,0.012091179385530228,0.7979166666666667
650,0.01212421539478031,0.7979166666666667
651,0.01212421539478031,0.7986111111111112
652,0.012289395441030724,0.7986111111111112
653,0.012289395441030724,0.7993055555555556
654,0.012338949454905847,0.7993055555555556
655,0.012338949454905847,0.8
656,0.012801453584407003,0.8
657,0.012801453584407003,0.8006944444444445
658,0.012817971589032045,0.8006944444444445
659,0.012817971589032045,0.8013888888888889
660,0.012851007598282128,0.8013888888888889
661,0.012851007598282128,0.8020833333333334
662,0.012867525602907168,0.8020833333333334
663,0.012867525602907168,0.8027777777777778
664,0.012900561612157252,0.8027777777777778
665,0.012900561612157252,0.8034722222222223
666,0.012950115626032375,0.8034722222222223
667,0.012950115626032375,0.8041666666666667
668,0.01313181367690783,0.8041666666666667
669,0.01313181367690783,0.8048611111111111
670,0.013164849686157913,0.8048611111111111
671,0.013164849686157913,0.8055555555555556
672,0.013247439709283118,0.8055555555555556
673,0.013247439709283118,0.80625
674,0.013296993723158242,0.80625
675,0.013296993723158242,0.8069444444444445
676,0.013429137760158572,0.8069444444444445
677,0.013429137760158572,0.8076388888888889
678,0.013478691774033697,0.8076388888888889
679,0.013478691774033697,0.8083333333333333
680,0.013495209778658738,0.8083333333333333
681,0.013495209778658738,0.8097222222222222
682,0.013825569871159564,0.8097222222222222
683,0.013825569871159564,0.8104166666666667
684,0.014056821935910142,0.8104166666666667
685,0.014073339940535183,0.8111111111111111
686,0.014321110009910803,0.8111111111111111
687,0.014321110009910803,0.8118055555555556
688,0.014354146019160885,0.8118055555555556
689,0.014354146019160885,0.8125
690,0.01442021803766105,0.8125
691,0.01442021803766105,0.8131944444444444
692,0.014519326065411299,0.8131944444444444
693,0.014519326065411299,0.8145833333333333
694,0.014568880079286422,0.8145833333333333
695,0.014568880079286422,0.8152777777777778
696,0.014585398083911464,0.8152777777777778
697,0.014585398083911464,0.8159722222222222
698,0.014701024116286753,0.8159722222222222
699,0.014701024116286753,0.8166666666666667
700,0.014717542120911795,0.8166666666666667
701,0.014717542120911795,0.8173611111111111
702,0.014750578130161876,0.8173611111111111
703,0.014750578130161876,0.8180555555555555
704,0.01504790221341262,0.8180555555555555
705,0.01504790221341262,0.81875
706,0.015262636273538157,0.81875
707,0.015262636273538157,0.8194444444444444
708,0.015477370333663693,0.8194444444444444
709,0.015477370333663693,0.8201388888888889
710,0.015526924347538818,0.8201388888888889
711,0.015526924347538818,0.8208333333333333
712,0.015576478361413942,0.8208333333333333
713,0.015576478361413942,0.8215277777777777
714,0.01579121242153948,0.8215277777777777
715,0.01579121242153948,0.8229166666666666
716,0.015873802444664683,0.8229166666666666
717,0.015873802444664683,0.8236111111111111
718,0.015906838453914766,0.8236111111111111
719,0.015906838453914766,0.8243055555555555
720,0.01607201850016518,0.8243055555555555
721,0.01607201850016518,0.825
722,0.016187644532540468,0.825
723,0.01622068054179055,0.825
724,0.016551040634291376,0.825
725,0.016551040634291376,0.8256944444444444
726,0.016683184671291706,0.8256944444444444
727,0.016683184671291706,0.8263888888888888
728,0.016930954740667328,0.8263888888888888
729,0.016930954740667328,0.8270833333333333
730,0.01699702675916749,0.8270833333333333
731,0.017030062768417575,0.8270833333333333
732,0.017641228939544104,0.8270833333333333
733,0.017641228939544104,0.8277777777777777
734,0.017707300958044268,0.8277777777777777
735,0.01772381896266931,0.8284722222222223
736,0.01808721506442022,0.8284722222222223
737,0.01808721506442022,0.8291666666666667
738,0.01823587710604559,0.8291666666666667
739,0.01823587710604559,0.8298611111111112
740,0.01838453914767096,0.8298611111111112
741,0.01838453914767096,0.8305555555555556
742,0.018896597291047243,0.8305555555555556
743,0.018896597291047243,0.83125
744,0.018929633300297323,0.83125
745,0.018929633300297323,0.8326388888888889
746,0.019111331351172777,0.8326388888888889
747,0.019111331351172777,0.8333333333333334
748,0.019226957383548068,0.8333333333333334
749,0.019226957383548068,0.8340277777777778
750,0.01927651139742319,0.8340277777777778
751,0.01927651139742319,0.8354166666666667
752,0.019425173439048562,0.8354166666666667
753,0.019425173439048562,0.8361111111111111
754,0.01962338949454906,0.8361111111111111
755,0.01962338949454906,0.8368055555555556
756,0.019722497522299307,0.8368055555555556
757,0.019722497522299307,0.8375
758,0.019821605550049554,0.8375
759,0.019854641559299637,0.8375
760,0.019953749587049884,0.8375
761,0.019953749587049884,0.8381944444444445
762,0.020003303600925008,0.8381944444444445
763,0.020003303600925008,0.8388888888888889
764,0.020168483647175422,0.8388888888888889
765,0.020168483647175422,0.8395833333333333
766,0.020350181698050876,0.8395833333333333
767,0.020350181698050876,0.8402777777777778
768,0.02041625371655104,0.8402777777777778
769,0.02041625371655104,0.8409722222222222
770,0.02066402378592666,0.8409722222222222
771,0.02066402378592666,0.8416666666666667
772,0.020845721836802115,0.8416666666666667
773,0.020845721836802115,0.8423611111111111
774,0.020862239841427155,0.8423611111111111
775,0.020862239841427155,0.8430555555555556
776,0.02102741988767757,0.8430555555555556
777,0.02102741988767757,0.84375
778,0.021110009910802776,0.84375
779,0.021110009910802776,0.8444444444444444
780,0.02117608192930294,0.8444444444444444
781,0.02117608192930294,0.8451388888888889
782,0.021209117938553023,0.8451388888888889
783,0.021209117938553023,0.8458333333333333
784,0.021605550049554015,0.8458333333333333
785,0.021605550049554015,0.8465277777777778
786,0.021902874132804756,0.8465277777777778
787,0.021902874132804756,0.8472222222222222
788,0.02208457218368021,0.8472222222222222
789,0.02208457218368021,0.8479166666666667
790,0.022282788239180708,0.8479166666666667
791,0.022282788239180708,0.8486111111111111
792,0.022910472414932277,0.8486111111111111
793,0.022910472414932277,0.8493055555555555
794,0.023009580442682524,0.8493055555555555
795,0.023009580442682524,0.85
796,0.023273868516683185,0.85
797,0.023273868516683185,0.8506944444444444
798,0.024017178724810042,0.8506944444444444
799,0.024050214734060125,0.8506944444444444
800,0.024165840766435416,0.8506944444444444
801,0.024165840766435416,0.8513888888888889
802,0.024198876775685496,0.8513888888888889
803,0.02423191278493558,0.8513888888888889
804,0.024264948794185663,0.8513888888888889
805,0.024264948794185663,0.8520833333333333
806,0.02436405682193591,0.8520833333333333
807,0.02436405682193591,0.8527777777777777
808,0.02464486290056161,0.8527777777777777
809,0.02464486290056161,0.8534722222222222
810,0.02487611496531219,0.8534722222222222
811,0.02487611496531219,0.8541666666666666
812,0.024909150974562273,0.8541666666666666
813,0.024909150974562273,0.8548611111111111
814,0.025090849025437727,0.8548611111111111
815,0.025090849025437727,0.8555555555555555
816,0.02542120911793855,0.8555555555555555
817,0.02542120911793855,0.85625
818,0.025536835150313842,0.85625
819,0.025536835150313842,0.8569444444444444
820,0.025685497191939213,0.8569444444444444
821,0.025685497191939213,0.8576388888888888
822,0.025933267261314834,0.8576388888888888
823,0.025933267261314834,0.8583333333333333
824,0.02603237528906508,0.8583333333333333
825,0.02603237528906508,0.8590277777777777
826,0.026296663363065742,0.8590277777777777
827,0.026296663363065742,0.8597222222222223
828,0.02641228939544103,0.8597222222222223
829,0.02641228939544103,0.8604166666666667
830,0.02654443343244136,0.8604166666666667
831,0.02654443343244136,0.8611111111111112
832,0.02728774364056822,0.8611111111111112
833,0.027320779649818303,0.8611111111111112
834,0.027750247770069375,0.8611111111111112
835,0.027750247770069375,0.8618055555555556
836,0.02821275189957053,0.8618055555555556
837,0.02821275189957053,0.8625
838,0.02834489593657086,0.8625
839,0.028377931945820944,0.8625
840,0.028427485959696068,0.8625
841,0.028427485959696068,0.8631944444444445
842,0.028757846052196896,0.8631944444444445
843,0.028757846052196896,0.8638888888888889
844,0.028790882061446976,0.8638888888888889
845,0.029203832177073008,0.8638888888888889
846,0.029203832177073008,0.8645833333333334
847,0.02923686818632309,0.8645833333333334
848,0.02923686818632309,0.8652777777777778
849,0.029286422200198215,0.8652777777777778
850,0.029286422200198215,0.8659722222222223
851,0.029352494218698382,0.8659722222222223
852,0.029352494218698382,0.8666666666666667
853,0.029369012223323422,0.8666666666666667
854,0.029369012223323422,0.8673611111111111
855,0.02945160224644863,0.8673611111111111
856,0.02945160224644863,0.8680555555555556
857,0.029963660389824908,0.8680555555555556
858,0.029963660389824908,0.86875
859,0.03006276841757516,0.86875
860,0.03006276841757516,0.8694444444444445
861,0.03022794846382557,0.8694444444444445
862,0.03022794846382557,0.8701388888888889
863,0.030409646514701023,0.8701388888888889
864,0.030426164519326067,0.8708333333333333
865,0.030706970597951768,0.8708333333333333
866,0.030706970597951768,0.8715277777777778
867,0.03075652461182689,0.8715277777777778
868,0.03075652461182689,0.8722222222222222
869,0.031053848695077636,0.8722222222222222
870,0.031053848695077636,0.8729166666666667
871,0.031202510736703007,0.8729166666666667
872,0.031202510736703007,0.8736111111111111
873,0.031219028741328047,0.8736111111111111
874,0.031219028741328047,0.8743055555555556
875,0.03135117277832838,0.8743055555555556
876,0.03135117277832838,0.875
877,0.031532870829203835,0.875
878,0.031532870829203835,0.8756944444444444
879,0.03154938883382887,0.8756944444444444
880,0.03154938883382887,0.8763888888888889
881,0.031830194912454576,0.8763888888888889
882,0.031830194912454576,0.8770833333333333
883,0.03224314502808061,0.8770833333333333
884,0.03227618103733069,0.8770833333333333
885,0.03239180706970598,0.8770833333333333
886,0.03239180706970598,0.8777777777777778
887,0.032738685166831843,0.8777777777777778
888,0.032738685166831843,0.8784722222222222
889,0.032936901222332345,0.8784722222222222
890,0.032969937231582425,0.8784722222222222
891,0.03301949124545755,0.8784722222222222
892,0.03301949124545755,0.8791666666666667
893,0.034489593657086225,0.8791666666666667
894,0.034489593657086225,0.8798611111111111
895,0.035926660059464814,0.8798611111111111
896,0.0359596960687149,0.8798611111111111
897,0.03599273207796498,0.8798611111111111
898,0.03599273207796498,0.8805555555555555
899,0.0367195242814668,0.8805555555555555
900,0.0367195242814668,0.8819444444444444
901,0.036934258341592335,0.8819444444444444
902,0.036934258341592335,0.8826388888888889
903,0.03713247439709283,0.8826388888888889
904,0.03713247439709283,0.8833333333333333
905,0.03797489263296994,0.8833333333333333
906,0.03797489263296994,0.8840277777777777
907,0.038040964651470104,0.8840277777777777
908,0.038040964651470104,0.8847222222222222
909,0.03812355467459531,0.8847222222222222
910,0.03812355467459531,0.8854166666666666
911,0.038602576808721506,0.8854166666666666
912,0.038602576808721506,0.8861111111111111
913,0.03913115295672283,0.8861111111111111
914,0.03913115295672283,0.8868055555555555
915,0.039560621076973904,0.8868055555555555
916,0.039593657086223984,0.8868055555555555
917,0.03972580112322432,0.8868055555555555
918,0.03972580112322432,0.8875
919,0.0397588371324744,0.8875
920,0.0397588371324744,0.8881944444444444
921,0.040155269243475386,0.8881944444444444
922,0.040155269243475386,0.8888888888888888
923,0.0403204492897258,0.8888888888888888
924,0.0403204492897258,0.8895833333333333
925,0.04041955731747605,0.8895833333333333
926,0.04041955731747605,0.8902777777777777
927,0.04058473736372646,0.8902777777777777
928,0.04058473736372646,0.8909722222222223
929,0.0412784935579782,0.8909722222222223
930,0.04131152956722828,0.8909722222222223
931,0.04147670961347869,0.8909722222222223
932,0.04147670961347869,0.8916666666666667
933,0.04180706970597952,0.8916666666666667
934,0.04180706970597952,0.8923611111111112
935,0.042451271886356126,0.8923611111111112
936,0.04248430789560621,0.8923611111111112
937,0.04334324413610836,0.8923611111111112
938,0.04334324413610836,0.8930555555555556
939,0.04339279814998348,0.8930555555555556
940,0.04342583415923357,0.8930555555555556
941,0.0436405682193591,0.8930555555555556
942,0.0436405682193591,0.89375
943,0.043789230260984476,0.89375
944,0.043789230260984476,0.8944444444444445
945,0.043855302279484636,0.8944444444444445
946,0.043855302279484636,0.8951388888888889
947,0.04416914436736042,0.8951388888888889
948,0.04416914436736042,0.8958333333333334
949,0.04454905847373637,0.8958333333333334
950,0.04454905847373637,0.8965277777777778
951,0.04577139081598943,0.8965277777777778
952,0.04580442682523951,0.8965277777777778
953,0.0459200528576148,0.8965277777777778
954,0.0459200528576148,0.8972222222222223
955,0.04593657086223984,0.8972222222222223
956,0.045969606871489925,0.8972222222222223
957,0.045969606871489925,0.8979166666666667
958,0.046085232903865216,0.8979166666666667
959,0.046085232903865216,0.8986111111111111
960,0.046597291047241494,0.8986111111111111
961,0.046630327056491575,0.8986111111111111
962,0.04762140733399405,0.8986111111111111
963,0.04765444334324414,0.8986111111111111
964,0.04765444334324414,0.8993055555555556
965,0.04785265939874463,0.8993055555555556
966,0.04785265939874463,0.9
967,0.048298645523620745,0.9
968,0.048298645523620745,0.9006944444444445
969,0.04869507763462174,0.9006944444444445
970,0.04869507763462174,0.9013888888888889
971,0.04897588371324744,0.9013888888888889
972,0.049008919722497525,0.9013888888888889
973,0.04958704988437397,0.9013888888888889
974,0.04962008589362405,0.9013888888888889
975,0.050115626032375286,0.9013888888888889
976,0.05013214403700033,0.9020833333333333
977,0.0512388503468781,0.9020833333333333
978,0.05127188635612818,0.9020833333333333
979,0.052229930624380576,0.9020833333333333
980,0.052229930624380576,0.9027777777777778
981,0.05257680872150644,0.9027777777777778
982,0.05257680872150644,0.9034722222222222
983,0.0532375289065081,0.9034722222222222
984,0.0532375289065081,0.9041666666666667
985,0.05391476709613479,0.9041666666666667
986,0.05391476709613479,0.9048611111111111
987,0.05394780310538487,0.9048611111111111
988,0.05398083911463495,0.9048611111111111
989,0.05479022134126198,0.9048611111111111
990,0.05482325735051206,0.9048611111111111
991,0.05520317145688801,0.9048611111111111
992,0.05520317145688801,0.9055555555555556
993,0.055302279484638256,0.9055555555555556
994,0.055302279484638256,0.90625
995,0.055632639577139084,0.90625
996,0.055632639577139084,0.9076388888888889
997,0.05586389164188966,0.9076388888888889
998,0.05586389164188966,0.9083333333333333
999,0.055929963660389825,0.9083333333333333
1000,0.055929963660389825,0.9090277777777778
1001,0.055962999669639905,0.9090277777777778
1002,0.05599603567888999,0.9090277777777778
1003,0.05622728774364057,0.9090277777777778
1004,0.05622728774364057,0.9097222222222222
1005,0.05929963660389825,0.9097222222222222
1006,0.05929963660389825,0.9104166666666667
1007,0.05969606871489924,0.9104166666666667
1008,0.05969606871489924,0.9111111111111111
1009,0.06032375289065081,0.9111111111111111
1010,0.06032375289065081,0.9118055555555555
1011,0.06053848695077635,0.9118055555555555
1012,0.06053848695077635,0.9125
1013,0.0607201850016518,0.9125
1014,0.0607201850016518,0.9131944444444444
1015,0.06123224314502808,0.9131944444444444
1016,0.061265279154278166,0.9131944444444444
1017,0.061810373306904524,0.9131944444444444
1018,0.06184340931615461,0.9131944444444444
1019,0.06187644532540469,0.9131944444444444
1020,0.06187644532540469,0.9138888888888889
1021,0.06210769739015527,0.9138888888888889
1022,0.06210769739015527,0.9145833333333333
1023,0.06314833168153287,0.9145833333333333
1024,0.06314833168153287,0.9152777777777777
1025,0.06329699372315824,0.9152777777777777
1026,0.06329699372315824,0.9166666666666666
1027,0.06349520977865873,0.9166666666666666
1028,0.06349520977865873,0.9173611111111111
1029,0.06372646184340931,0.9173611111111111
1030,0.0637594978526594,0.9173611111111111
1031,0.06446977205153617,0.9173611111111111
1032,0.06446977205153617,0.9180555555555555
1033,0.06448629005616122,0.9180555555555555
1034,0.06448629005616122,0.91875
1035,0.06665014866204162,0.91875
1036,0.06665014866204162,0.9194444444444444
1037,0.0668814007267922,0.9194444444444444
1038,0.0668814007267922,0.9201388888888888
1039,0.06797158903204494,0.9201388888888888
1040,0.06797158903204494,0.9208333333333333
1041,0.0689626693095474,0.9208333333333333
1042,0.0689626693095474,0.9215277777777777
1043,0.06921043937892303,0.9215277777777777
1044,0.0692434753881731,0.9215277777777777
1045,0.06998678559629996,0.9215277777777777
1046,0.06998678559629996,0.9222222222222223
1047,0.07005285761480014,0.9222222222222223
1048,0.07005285761480014,0.9229166666666667
1049,0.07059795176742649,0.9229166666666667
1050,0.07059795176742649,0.9236111111111112
1051,0.07061446977205153,0.9236111111111112
1052,0.07061446977205153,0.9243055555555556
1053,0.07139081598942848,0.9243055555555556
1054,0.07139081598942848,0.925
1055,0.07145688800792864,0.925
1056,0.07148992401717873,0.925
1057,0.07170465807730426,0.925
1058,0.07170465807730426,0.9256944444444445
1059,0.07254707631318137,0.9256944444444445
1060,0.07254707631318137,0.9263888888888889
1061,0.07292699041955732,0.9263888888888889
1062,0.07292699041955732,0.9270833333333334
1063,0.07406673273868516,0.9270833333333334
1064,0.07409976874793525,0.9270833333333334
1065,0.07482656095143707,0.9270833333333334
1066,0.07482656095143707,0.9277777777777778
1067,0.07568549719193922,0.9277777777777778
1068,0.07568549719193922,0.9284722222222223
1069,0.07585067723818963,0.9284722222222223
1070,0.07585067723818963,0.9291666666666667
1071,0.07745292368681864,0.9291666666666667
1072,0.07748595969606871,0.9291666666666667
1073,0.07750247770069375,0.9291666666666667
1074,0.07753551370994384,0.9291666666666667
1075,0.07913776015857285,0.9291666666666667
1076,0.07917079616782292,0.9291666666666667
1077,0.07984803435744962,0.9291666666666667
1078,0.07984803435744962,0.9298611111111111
1079,0.07998017839444994,0.9298611111111111
1080,0.07998017839444994,0.9305555555555556
1081,0.08115295672282788,0.9305555555555556
1082,0.08115295672282788,0.93125
1083,0.08120251073670301,0.93125
1084,0.08123554674595308,0.93125
1085,0.08259002312520647,0.93125
1086,0.08262305913445656,0.93125
1087,0.08265609514370664,0.93125
1088,0.08268913115295673,0.93125
1089,0.08301949124545754,0.93125
1090,0.08301949124545754,0.9319444444444445
1091,0.08349851337958375,0.9319444444444445
1092,0.08349851337958375,0.9326388888888889
1093,0.08448959365708622,0.9326388888888889
1094,0.08452262966633631,0.9326388888888889
1095,0.08458870168483647,0.9326388888888889
1096,0.08458870168483647,0.9333333333333333
1097,0.08513379583746283,0.9333333333333333
1098,0.08513379583746283,0.9340277777777778
1099,0.08523290386521308,0.9340277777777778
1100,0.08523290386521308,0.9347222222222222
1101,0.08609184010571523,0.9347222222222222
1102,0.08609184010571523,0.9354166666666667
1103,0.08645523620746613,0.9354166666666667
1104,0.08645523620746613,0.9361111111111111
1105,0.08665345226296664,0.9361111111111111
1106,0.08665345226296664,0.9368055555555556
1107,0.08866864882722167,0.9368055555555556
1108,0.08866864882722167,0.9375
1109,0.08951106706309878,0.9375
1110,0.08954410307234886,0.9375
1111,0.09043607532210109,0.9375
1112,0.09043607532210109,0.9381944444444444
1113,0.09094813346547737,0.9381944444444444
1114,0.09094813346547737,0.9388888888888889
1115,0.09179055170135447,0.9388888888888889
1116,0.09182358771060456,0.9388888888888889
1117,0.09616782292699042,0.9388888888888889
1118,0.09616782292699042,0.9395833333333333
1119,0.09798480343574496,0.9395833333333333
1120,0.09798480343574496,0.9402777777777778
1121,0.09814998348199537,0.9402777777777778
1122,0.09818301949124546,0.9402777777777778
1123,0.09886025768087216,0.9402777777777778
1124,0.09886025768087216,0.9409722222222222
1125,0.09889329369012223,0.9409722222222222
1126,0.1,0.9409722222222222
1127,0.1,0.9416666666666667
1128,0.10079286422200198,0.9416666666666667
1129,0.10079286422200198,0.9423611111111111
1130,0.10092500825900232,0.9423611111111111
1131,0.10092500825900232,0.9430555555555555
1132,0.10095804426825239,0.9430555555555555
1133,0.10095804426825239,0.94375
1134,0.10102411628675256,0.94375
1135,0.10102411628675256,0.9444444444444444
1136,0.1012388503468781,0.9444444444444444
1137,0.10127188635612817,0.9444444444444444
1138,0.10130492236537826,0.9444444444444444
1139,0.10130492236537826,0.9451388888888889
1140,0.10265939874463165,0.9451388888888889
1141,0.10265939874463165,0.9458333333333333
1142,0.10302279484638256,0.9458333333333333
1143,0.10305583085563264,0.9458333333333333
1144,0.1049223653782623,0.9458333333333333
1145,0.10495540138751239,0.9458333333333333
1146,0.10495540138751239,0.9465277777777777
1147,0.10508754542451272,0.9465277777777777
1148,0.10512058143376281,0.9465277777777777
1149,0.10526924347538817,0.9465277777777777
1150,0.10526924347538817,0.9472222222222222
1151,0.10538486950776346,0.9472222222222222
1152,0.10545094152626362,0.9472222222222222
1153,0.10564915758176412,0.9472222222222222
1154,0.1056821935910142,0.9472222222222222
1155,0.10769739015526925,0.9472222222222222
1156,0.10769739015526925,0.9479166666666666
1157,0.10853980839114635,0.9479166666666666
1158,0.10853980839114635,0.9486111111111111
1159,0.111199207135778,0.9486111111111111
1160,0.111199207135778,0.9493055555555555
1161,0.11230591344565577,0.9493055555555555
1162,0.11230591344565577,0.95
1163,0.1166005946481665,0.95
1164,0.11663363065741658,0.95
1165,0.1178394449950446,0.95
1166,0.1178394449950446,0.9506944444444444
1167,0.1179550710274199,0.9506944444444444
1168,0.1179550710274199,0.9513888888888888
1169,0.1181202510736703,0.9513888888888888
1170,0.11815328708292039,0.9513888888888888
1171,0.120399735711926,0.9513888888888888
1172,0.120399735711926,0.9520833333333333
1173,0.12183680211430459,0.9520833333333333
1174,0.12183680211430459,0.9527777777777777
1175,0.12269573835480674,0.9527777777777777
1176,0.12269573835480674,0.9534722222222223
1177,0.12353815659068385,0.9534722222222223
1178,0.12353815659068385,0.9541666666666667
1179,0.12454575487281136,0.9541666666666667
1180,0.12454575487281136,0.9548611111111112
1181,0.1272381896266931,0.9548611111111112
1182,0.12727122563594317,0.9548611111111112
1183,0.12733729765444335,0.9548611111111112
1184,0.12737033366369344,0.9548611111111112
1185,0.13183019491245457,0.9548611111111112
1186,0.13186323092170465,0.9548611111111112
1187,0.13202841096795506,0.9548611111111112
1188,0.13202841096795506,0.9555555555555556
1189,0.13225966303270564,0.9555555555555556
1190,0.13225966303270564,0.95625
1191,0.13234225305583086,0.95625
1192,0.13237528906508095,0.95625
1193,0.13358110340270896,0.95625
1194,0.13358110340270896,0.9569444444444445
1195,0.13544763792533862,0.9569444444444445
1196,0.1354806739345887,0.9569444444444445
1197,0.13557978196233894,0.9569444444444445
1198,0.13561281797158903,0.9569444444444445
1199,0.1415592996366039,0.9569444444444445
1200,0.14159233564585397,0.9569444444444445
1201,0.1442021803766105,0.9569444444444445
1202,0.1442021803766105,0.9576388888888889
1203,0.14649818301949125,0.9576388888888889
1204,0.14649818301949125,0.9590277777777778
1205,0.14654773703336638,0.9590277777777778
1206,0.14658077304261646,0.9590277777777778
1207,0.14717542120911795,0.9590277777777778
1208,0.14720845721836803,0.9590277777777778
1209,0.14758837132474398,0.9590277777777778
1210,0.14758837132474398,0.9597222222222223
1211,0.1502808060786257,0.9597222222222223
1212,0.1502808060786257,0.9611111111111111
1213,0.15102411628675255,0.9611111111111111
1214,0.15105715229600264,0.9611111111111111
1215,0.1567558638916419,0.9611111111111111
1216,0.1567558638916419,0.9618055555555556
1217,0.15766435414601915,0.9618055555555556
1218,0.15769739015526923,0.9618055555555556
1219,0.1593161546085233,0.9618055555555556
1220,0.15934919061777336,0.9618055555555556
1221,0.16096795507102743,0.9618055555555556
1222,0.1610009910802775,0.9618055555555556
1223,0.1640733399405352,0.9618055555555556
1224,0.1640733399405352,0.9625
1225,0.16413941195903534,0.9625
1226,0.16417244796828542,0.9625
1227,0.16522960026428807,0.9625
1228,0.16522960026428807,0.9631944444444445
1229,0.16602246448629004,0.9631944444444445
1230,0.16605550049554013,0.9631944444444445
1231,0.16793855302279484,0.9631944444444445
1232,0.16793855302279484,0.9638888888888889
1233,0.1687148992401718,0.9638888888888889
1234,0.16874793524942186,0.9638888888888889
1235,0.16886356128179716,0.9638888888888889
1236,0.16886356128179716,0.9645833333333333
1237,0.16954079947142386,0.9645833333333333
1238,0.16954079947142386,0.9652777777777778
1239,0.1706805417905517,0.9652777777777778
1240,0.17071357779980179,0.9652777777777778
1241,0.1708457218368021,0.9652777777777778
1242,0.1708787578460522,0.9652777777777778
1243,0.17097786587380245,0.9652777777777778
1244,0.17101090188305254,0.9652777777777778
1245,0.1756854971919392,0.9652777777777778
1246,0.1756854971919392,0.9659722222222222
1247,0.17677568549719194,0.9659722222222222
1248,0.17677568549719194,0.9673611111111111
1249,0.17699041955731748,0.9673611111111111
1250,0.17702345556656757,0.9673611111111111
1251,0.17707300958044267,0.9673611111111111
1252,0.17710604558969276,0.9673611111111111
1253,0.17761810373306905,0.9673611111111111
1254,0.17765113974231914,0.9673611111111111
1255,0.17801453584407004,0.9673611111111111
1256,0.17801453584407004,0.9680555555555556
1257,0.17902213412619755,0.9680555555555556
1258,0.17905517013544764,0.9680555555555556
1259,0.17908820614469773,0.9680555555555556
1260,0.1791212421539478,0.9680555555555556
1261,0.1812851007598282,0.9680555555555556
1262,0.1813181367690783,0.9680555555555556
1263,0.18230921704658076,0.9680555555555556
1264,0.18234225305583085,0.9680555555555556
1265,0.1833168153287083,0.9680555555555556
1266,0.1833168153287083,0.96875
1267,0.18506772381896266,0.96875
1268,0.18510075982821275,0.96875
1269,0.1869177403369673,0.96875
1270,0.1869177403369673,0.9694444444444444
1271,0.1880409646514701,0.9694444444444444
1272,0.1880740006607202,0.9694444444444444
1273,0.18886686488272217,0.9694444444444444
1274,0.18889990089197226,0.9694444444444444
1275,0.18916418896597292,0.9694444444444444
1276,0.18919722497522298,0.9694444444444444
1277,0.18921374297984803,0.9694444444444444
1278,0.1892467789890981,0.9694444444444444
1279,0.19182358771060457,0.9694444444444444
1280,0.19182358771060457,0.9701388888888889
1281,0.19294681202510736,0.9701388888888889
1282,0.19297984803435744,0.9701388888888889
1283,0.19362405021473406,0.9701388888888889
1284,0.19365708622398414,0.9701388888888889
1285,0.19430128840436076,0.9701388888888889
1286,0.19430128840436076,0.9708333333333333
1287,0.19491245457548728,0.9708333333333333
1288,0.19494549058473737,0.9708333333333333
1289,0.1962338949454906,0.9708333333333333
1290,0.19626693095474065,0.9708333333333333
1291,0.19641559299636605,0.9708333333333333
1292,0.19644862900561613,0.9708333333333333
1293,0.19793524942186982,0.9708333333333333
1294,0.19793524942186982,0.9715277777777778
1295,0.19795176742649487,0.9715277777777778
1296,0.19798480343574495,0.9715277777777778
1297,0.2004294681202511,0.9715277777777778
1298,0.2004294681202511,0.9722222222222222
1299,0.2025272547076313,0.9722222222222222
1300,0.2025602907168814,0.9722222222222222
1301,0.20398083911463497,0.9722222222222222
1302,0.20401387512388502,0.9722222222222222
1303,0.20485629335976213,0.9722222222222222
1304,0.20488932936901222,0.9722222222222222
1305,0.2054344235216386,0.9722222222222222
1306,0.2054344235216386,0.9729166666666667
1307,0.20718533201189296,0.9729166666666667
1308,0.20721836802114305,0.9729166666666667
1309,0.20738354806739345,0.9729166666666667
1310,0.20741658407664354,0.9729166666666667
1311,0.20779649818301948,0.9729166666666667
1312,0.20779649818301948,0.9736111111111111
1313,0.20981169474727454,0.9736111111111111
1314,0.2098447307565246,0.9736111111111111
1315,0.21024116286752562,0.9736111111111111
1316,0.21027419887677568,0.9736111111111111
1317,0.2148827221671622,0.9736111111111111
1318,0.21491575817641229,0.9736111111111111
1319,0.2149983481995375,0.9736111111111111
1320,0.2150313842087876,0.9736111111111111
1321,0.21529567228278823,0.9736111111111111
1322,0.21532870829203832,0.9736111111111111
1323,0.21772381896266932,0.9736111111111111
1324,0.2177568549719194,0.9736111111111111
1325,0.21853320118929634,0.9736111111111111
1326,0.21856623719854643,0.9736111111111111
1327,0.21869838123554675,0.9736111111111111
1328,0.21869838123554675,0.9743055555555555
1329,0.21927651139742318,0.9743055555555555
1330,0.21927651139742318,0.975
1331,0.21930954740667327,0.975
1332,0.22051536174430128,0.975
1333,0.22054839775355137,0.975
1334,0.2209283118599273,0.975
1335,0.2209613478691774,0.975
1336,0.22114304592005285,0.975
1337,0.22117608192930294,0.975
1338,0.2234060125536835,0.975
1339,0.2234060125536835,0.9756944444444444
1340,0.223604228609184,0.9756944444444444
1341,0.22363726461843408,0.9756944444444444
1342,0.22487611496531218,0.9756944444444444
1343,0.22490915097456227,0.9756944444444444
1344,0.22499174099768748,0.9756944444444444
1345,0.22499174099768748,0.9763888888888889
1346,0.2265113974231913,0.9763888888888889
1347,0.2265113974231913,0.9770833333333333
1348,0.22832837793194583,0.9770833333333333
1349,0.2283614139411959,0.9770833333333333
1350,0.23060786257020152,0.9770833333333333
1351,0.2306408985794516,0.9770833333333333
1352,0.2316815328708292,0.9770833333333333
1353,0.2317145688800793,0.9770833333333333
1354,0.23316815328708293,0.9770833333333333
1355,0.233201189296333,0.9770833333333333
1356,0.23336636934258342,0.9770833333333333
1357,0.2333994053518335,0.9770833333333333
1358,0.23401057152296004,0.9770833333333333
1359,0.2340436075322101,0.9770833333333333
1360,0.2359101420548398,0.9770833333333333
1361,0.23594317806408985,0.9770833333333333
1362,0.2370829203832177,0.9770833333333333
1363,0.2370829203832177,0.9777777777777777
1364,0.2376775685497192,0.9777777777777777
1365,0.23774364056821937,0.9777777777777777
1366,0.23957713908159894,0.9777777777777777
1367,0.23957713908159894,0.9784722222222222
1368,0.24187314172447968,0.9784722222222222
1369,0.24190617773372977,0.9784722222222222
1370,0.24230260984473076,0.9784722222222222
1371,0.24233564585398085,0.9784722222222222
1372,0.24331020812685827,0.9784722222222222
1373,0.24334324413610836,0.9784722222222222
1374,0.2453584407003634,0.9784722222222222
1375,0.2453584407003634,0.9791666666666666
1376,0.2468780971258672,0.9791666666666666
1377,0.24691113313511728,0.9791666666666666
1378,0.24882722167162208,0.9791666666666666
1379,0.24886025768087214,0.9791666666666666
1380,0.24899240171787249,0.9791666666666666
1381,0.24902543772712257,0.9791666666666666
1382,0.250396432111001,0.9791666666666666
1383,0.25041295011562603,0.9798611111111111
1384,0.2511727783283779,0.9798611111111111
1385,0.251205814337628,0.9798611111111111
1386,0.25457548728113644,0.9798611111111111
1387,0.2546085232903865,0.9798611111111111
1388,0.2580442682523951,0.9798611111111111
1389,0.2580773042616452,0.9798611111111111
1390,0.258804096465147,0.9798611111111111
1391,0.2588371324743971,0.9798611111111111
1392,0.2617938553022795,0.9798611111111111
1393,0.2618268913115296,0.9798611111111111
1394,0.2619755533531549,0.9798611111111111
1395,0.2619755533531549,0.9805555555555555
1396,0.2623389494549058,0.9805555555555555
1397,0.2623719854641559,0.9805555555555555
1398,0.26410637594978525,0.9805555555555555
1399,0.26413941195903534,0.9805555555555555
1400,0.26821935910142053,0.9805555555555555
1401,0.2682523951106706,0.9805555555555555
1402,0.2688800792864222,0.9805555555555555
1403,0.2689131152956723,0.9805555555555555
1404,0.26962338949454906,0.9805555555555555
1405,0.26965642550379915,0.9805555555555555
1406,0.2712751899570532,0.9805555555555555
1407,0.2713082259663033,0.9805555555555555
1408,0.2721176081929303,0.9805555555555555
1409,0.2721506442021804,0.9805555555555555
1410,0.2727618103733069,0.9805555555555555
1411,0.27282788239180705,0.9805555555555555
1412,0.2739180706970598,0.9805555555555555
1413,0.2739511067063099,0.9805555555555555
1414,0.2763627353815659,0.9805555555555555
1415,0.276395771390816,0.9805555555555555
1416,0.2769408655434423,0.9805555555555555
1417,0.2769739015526924,0.9805555555555555
1418,0.27750247770069375,0.9805555555555555
1419,0.27753551370994384,0.9805555555555555
1420,0.27888999008919724,0.9805555555555555
1421,0.2789230260984473,0.9805555555555555
1422,0.28130161876445325,0.9805555555555555
1423,0.28133465477370334,0.9805555555555555
1424,0.2831516352824579,0.9805555555555555
1425,0.28318467129170793,0.9805555555555555
1426,0.2844895936570862,0.9805555555555555
1427,0.2845226296663363,0.9805555555555555
1428,0.2857945160224645,0.9805555555555555
1429,0.28582755203171456,0.9805555555555555
1430,0.2878923026098447,0.9805555555555555
1431,0.2878923026098447,0.98125
1432,0.28860257680872153,0.98125
1433,0.28860257680872153,0.9819444444444444
1434,0.29137760158572845,0.9819444444444444
1435,0.29141063759497854,0.9819444444444444
1436,0.29385530227948464,0.9819444444444444
1437,0.29385530227948464,0.9826388888888888
1438,0.29418566237198546,0.9826388888888888
1439,0.29418566237198546,0.9840277777777777
1440,0.29502808060786256,0.9840277777777777
1441,0.29506111661711265,0.9840277777777777
1442,0.29545754872811364,0.9840277777777777
1443,0.2954905847373637,0.9840277777777777
1444,0.2972745292368682,0.9840277777777777
1445,0.2973075652461183,0.9840277777777777
1446,0.29750578130161875,0.9840277777777777
1447,0.29753881731086884,0.9840277777777777
1448,0.30061116617112654,0.9840277777777777
1449,0.30064420218037663,0.9840277777777777
1450,0.30105715229600266,0.9840277777777777
1451,0.30109018830525275,0.9840277777777777
1452,0.30112322431450284,0.9840277777777777
1453,0.30115626032375287,0.9840277777777777
1454,0.3030393128510076,0.9840277777777777
1455,0.3030723488602577,0.9840277777777777
1456,0.3051205814337628,0.9840277777777777
1457,0.3051536174430129,0.9840277777777777
1458,0.3054344235216386,0.9840277777777777
1459,0.30546745953088866,0.9840277777777777
1460,0.30706970597951766,0.9840277777777777
1461,0.30710274198876775,0.9840277777777777
1462,0.3087545424512719,0.9840277777777777
1463,0.30878757846052196,0.9840277777777777
1464,0.31038982490915096,0.9840277777777777
1465,0.31042286091840104,0.9840277777777777
1466,0.3135447637925339,0.9840277777777777
1467,0.31357779980178396,0.9840277777777777
1468,0.31418896597291046,0.9840277777777777
1469,0.31418896597291046,0.9847222222222223
1470,0.31437066402378594,0.9847222222222223
1471,0.314403700033036,0.9847222222222223
1472,0.315196564255038,0.9847222222222223
1473,0.3152296002642881,0.9847222222222223
1474,0.315592996366039,0.9847222222222223
1475,0.3156260323752891,0.9847222222222223
1476,0.31593987446316485,0.9847222222222223
1477,0.31597291047241494,0.9847222222222223
1478,0.3162041625371655,0.9847222222222223
1479,0.3162371985464156,0.9847222222222223
1480,0.3170465807730426,0.9847222222222223
1481,0.3170796167822927,0.9847222222222223
1482,0.3179715890320449,0.9847222222222223
1483,0.318004625041295,0.9847222222222223
1484,0.3181202510736703,0.9847222222222223
1485,0.3181532870829204,0.9847222222222223
1486,0.31841757515692104,0.9847222222222223
1487,0.3184506111661711,0.9847222222222223
1488,0.31977205153617444,0.9847222222222223
1489,0.3198050875454245,0.9847222222222223
1490,0.3207631318136769,0.9847222222222223
1491,0.32079616782292697,0.9847222222222223
1492,0.32182028410967956,0.9847222222222223
1493,0.32182028410967956,0.9854166666666667
1494,0.32193591014205486,0.9854166666666667
1495,0.322001982160555,0.9854166666666667
1496,0.32236537826230593,0.9854166666666667
1497,0.322398414271556,0.9854166666666667
1498,0.32272877436405684,0.9854166666666667
1499,0.3227618103733069,0.9854166666666667
1500,0.32375289065080937,0.9854166666666667
1501,0.32378592666005945,0.9854166666666667
1502,0.3265444334324414,0.9854166666666667
1503,0.32657746944169147,0.9854166666666667
1504,0.32682523951106707,0.9854166666666667
1505,0.32685827552031715,0.9854166666666667
1506,0.3286257020151966,0.9854166666666667
1507,0.3286587380244467,0.9854166666666667
1508,0.32930294020482326,0.9854166666666667
1509,0.32933597621407334,0.9854166666666667
1510,0.33032705649157584,0.9854166666666667
1511,0.3303600925008259,0.9854166666666667
1512,0.3305913445655765,0.9854166666666667
1513,0.3305913445655765,0.9861111111111112
1514,0.33113643871820286,0.9861111111111112
1515,0.33116947472745295,0.9861111111111112
1516,0.3333994053518335,0.9861111111111112
1517,0.3333994053518335,0.9868055555555556
1518,0.3346382556987116,0.9868055555555556
1519,0.3346382556987116,0.9875
1520,0.33506772381896266,0.9875
1521,0.33510075982821275,0.9875
1522,0.33690122233234227,0.9875
1523,0.33693425834159235,0.9875
1524,0.3381896266930955,0.9875
1525,0.3382226627023456,0.9875
1526,0.33893293690122234,0.9875
1527,0.33893293690122234,0.9881944444444445
1528,0.33980839114634953,0.9881944444444445
1529,0.3398414271555996,0.9881944444444445
1530,0.3406342913776016,0.9881944444444445
1531,0.3406673273868517,0.9881944444444445
1532,0.3423521638586059,0.9881944444444445
1533,0.3423521638586059,0.9888888888888889
1534,0.343591014205484,0.9888888888888889
1535,0.3436240502147341,0.9888888888888889
1536,0.34402048232573507,0.9888888888888889
1537,0.34402048232573507,0.9895833333333334
1538,0.3448629005616122,0.9895833333333334
1539,0.34489593657086226,0.9895833333333334
1540,0.347191939213743,0.9895833333333334
1541,0.34722497522299306,0.9895833333333334
1542,0.35117277832837795,0.9895833333333334
1543,0.35120581433762804,0.9895833333333334
1544,0.3528906508093822,0.9895833333333334
1545,0.3529236868186323,0.9895833333333334
1546,0.3557813016187645,0.9895833333333334
1547,0.3557813016187645,0.9902777777777778
1548,0.3558804096465147,0.9902777777777778
1549,0.35591344565576477,0.9902777777777778
1550,0.35693756194251736,0.9902777777777778
1551,0.35697059795176744,0.9902777777777778
1552,0.3588866864882722,0.9902777777777778
1553,0.3589197224975223,0.9902777777777778
1554,0.36379253386190946,0.9902777777777778
1555,0.36382556987115955,0.9902777777777778
1556,0.36704658077304264,0.9902777777777778
1557,0.3670796167822927,0.9902777777777778
1558,0.3670961347869177,0.9902777777777778
1559,0.3671291707961678,0.9902777777777778
1560,0.36722827882391806,0.9902777777777778
1561,0.36726131483316815,0.9902777777777778
1562,0.36785596299966966,0.9902777777777778
1563,0.36788899900891975,0.9902777777777778
1564,0.3689296333002973,0.9902777777777778
1565,0.3689626693095474,0.9902777777777778
1566,0.36988767756854973,0.9902777777777778
1567,0.3699207135777998,0.9902777777777778
1568,0.3718698381235547,0.9902777777777778
1569,0.37190287413280476,0.9902777777777778
1570,0.3729104724149323,0.9902777777777778
1571,0.37294350842418234,0.9902777777777778
1572,0.3776346217376941,0.9902777777777778
1573,0.3776511397423191,0.9909722222222223
1574,0.3776841757515692,0.9909722222222223
1575,0.3777502477700694,0.9909722222222223
1576,0.37778328377931947,0.9909722222222223
1577,0.37803105384869506,0.9909722222222223
1578,0.37806408985794515,0.9909722222222223
1579,0.37885695407994713,0.9909722222222223
1580,0.3788899900891972,0.9909722222222223
1581,0.37938553022794846,0.9909722222222223
1582,0.37941856623719855,0.9909722222222223
1583,0.3809547406673274,0.9909722222222223
1584,0.38098777667657746,0.9909722222222223
1585,0.38325074331020814,0.9909722222222223
1586,0.38325074331020814,0.9916666666666667
1587,0.38386190948133464,0.9916666666666667
1588,0.3838949454905847,0.9916666666666667
1589,0.3845226296663363,0.9916666666666667
1590,0.3845556656755864,0.9916666666666667
1591,0.3848364717542121,0.9916666666666667
1592,0.3848695077634622,0.9916666666666667
1593,0.3850512058143376,0.9916666666666667
1594,0.3850842418235877,0.9916666666666667
1595,0.39245127188635615,0.9916666666666667
1596,0.39248430789560623,0.9916666666666667
1597,0.3931615460852329,0.9916666666666667
1598,0.393194582094483,0.9916666666666667
1599,0.39329369012223325,0.9916666666666667
1600,0.39332672613148334,0.9916666666666667
1601,0.39339279814998346,0.9916666666666667
1602,0.39342583415923355,0.9916666666666667
1603,0.39369012223323424,0.9916666666666667
1604,0.39372315824248433,0.9916666666666667
1605,0.39580442682523953,0.9916666666666667
1606,0.3958374628344896,0.9916666666666667
1607,0.3959365708622398,0.9916666666666667
1608,0.3959696068714899,0.9916666666666667
1609,0.3968780971258672,0.9916666666666667
1610,0.3968780971258672,0.9923611111111111
1611,0.40033036009250084,0.9923611111111111
1612,0.4003633961017509,0.9923611111111111
1613,0.40054509415262635,0.9923611111111111
1614,0.40057813016187643,0.9923611111111111
1615,0.4020812685827552,0.9923611111111111
1616,0.4021143045920053,0.9923611111111111
1617,0.4021968946151305,0.9923611111111111
1618,0.4021968946151305,0.9930555555555556
1619,0.4033201189296333,0.9930555555555556
1620,0.4033531549388834,0.9930555555555556
1621,0.40389824909150973,0.9930555555555556
1622,0.4039312851007598,0.9930555555555556
1623,0.4065906838453915,0.9930555555555556
1624,0.4066237198546416,0.9930555555555556
1625,0.40738354806739346,0.9930555555555556
1626,0.40741658407664355,0.9930555555555556
1627,0.40774694416914437,0.9930555555555556
1628,0.40777998017839445,0.9930555555555556
1629,0.40853980839114634,0.9930555555555556
1630,0.40857284440039643,0.9930555555555556
1631,0.40905186653452263,0.9930555555555556
1632,0.4090849025437727,0.9930555555555556
1633,0.41172778328377935,0.9930555555555556
1634,0.4117608192930294,0.9930555555555556
1635,0.4213412619755533,0.9930555555555556
1636,0.4213742979848034,0.9930555555555556
1637,0.4216385860588041,0.9930555555555556
1638,0.4216716220680542,0.9930555555555556
1639,0.42201850016518005,0.9930555555555556
1640,0.42205153617443014,0.9930555555555556
1641,0.4222001982160555,0.9930555555555556
1642,0.42223323422530556,0.9930555555555556
1643,0.42329038652130824,0.9930555555555556
1644,0.4233234225305583,0.9930555555555556
1645,0.42578460521968947,0.9930555555555556
1646,0.42581764122893956,0.9930555555555556
1647,0.4264453254046911,0.9930555555555556
1648,0.4264453254046911,0.99375
1649,0.4277998017839445,0.99375
1650,0.4278328377931946,0.99375
1651,0.4281301618764453,0.99375
1652,0.4281631978856954,0.99375
1653,0.42832837793194584,0.99375
1654,0.4283614139411959,0.99375
1655,0.4290882061446977,0.99375
1656,0.4291212421539478,0.99375
1657,0.4301288404360753,0.99375
1658,0.4301618764453254,0.99375
1659,0.43040964651470104,0.99375
1660,0.43040964651470104,0.9944444444444445
1661,0.43333333333333335,0.9944444444444445
1662,0.43336636934258344,0.9944444444444445
1663,0.43445655764783614,0.9944444444444445
1664,0.4344895936570862,0.9944444444444445
1665,0.4359101420548398,0.9944444444444445
1666,0.43594317806408983,0.9944444444444445
1667,0.4383052527254708,0.9944444444444445
1668,0.43833828873472086,0.9944444444444445
1669,0.438387842748596,0.9944444444444445
1670,0.4384208787578461,0.9944444444444445
1671,0.43994053518334986,0.9944444444444445
1672,0.43997357119259994,0.9944444444444445
1673,0.4403534852989759,0.9944444444444445
1674,0.440386521308226,0.9944444444444445
1675,0.44200528576148,0.9944444444444445
1676,0.4420383217707301,0.9944444444444445
1677,0.4425999339279815,0.9944444444444445
1678,0.44263296993723156,0.9944444444444445
1679,0.4428477039973571,0.9944444444444445
1680,0.4428807400066072,0.9944444444444445
1681,0.4451767426494879,0.9944444444444445
1682,0.445209778658738,0.9944444444444445
1683,0.44540799471423853,0.9944444444444445
1684,0.4454410307234886,0.9944444444444445
1685,0.4482821275189957,0.9944444444444445
1686,0.4482821275189957,0.9951388888888889
1687,0.44872811364387183,0.9951388888888889
1688,0.4487611496531219,0.9951388888888889
1689,0.44899240171787247,0.9951388888888889
1690,0.44902543772712256,0.9951388888888889
1691,0.44935579781962337,0.9951388888888889
1692,0.44938883382887346,0.9951388888888889
1693,0.4506442021803766,0.9951388888888889
1694,0.4506772381896267,0.9951388888888889
1695,0.45294020482325736,0.9951388888888889
1696,0.45297324083250745,0.9951388888888889
1697,0.4537661050545094,0.9951388888888889
1698,0.4537991410637595,0.9951388888888889
1699,0.4553518334985134,0.9951388888888889
1700,0.45538486950776347,0.9951388888888889
1701,0.45602907168814005,0.9951388888888889
1702,0.45606210769739014,0.9951388888888889
1703,0.4570862239841427,0.9951388888888889
1704,0.4571192599933928,0.9951388888888889
1705,0.4574331020812686,0.9951388888888889
1706,0.45746613809051867,0.9951388888888889
1707,0.45801123224314505,0.9951388888888889
1708,0.45804426825239514,0.9951388888888889
1709,0.45906838453914767,0.9951388888888889
1710,0.45910142054839775,0.9951388888888889
1711,0.4592335645853981,0.9951388888888889
1712,0.4592666005946482,0.9951388888888889
1713,0.46205814337628015,0.9951388888888889
1714,0.46209117938553024,0.9951388888888889
1715,0.4622893954410307,0.9951388888888889
1716,0.4623224314502808,0.9951388888888889
1717,0.4631648496861579,0.9951388888888889
1718,0.463197885695408,0.9951388888888889
1719,0.46374297984803436,0.9951388888888889
1720,0.46377601585728445,0.9951388888888889
1721,0.4640403039312851,0.9951388888888889
1722,0.4640733399405352,0.9951388888888889
1723,0.46486620416253716,0.9951388888888889
1724,0.46489924017178724,0.9951388888888889
1725,0.4649653121902874,0.9951388888888889
1726,0.4649983481995375,0.9951388888888889
1727,0.46562603237528905,0.9951388888888889
1728,0.46565906838453913,0.9951388888888889
1729,0.4686818632309217,0.9951388888888889
1730,0.4687148992401718,0.9951388888888889
1731,0.4698546415592996,0.9951388888888889
1732,0.4698876775685497,0.9951388888888889
1733,0.47581764122893955,0.9951388888888889
1734,0.47585067723818963,0.9951388888888889
1735,0.4770399735711926,0.9951388888888889
1736,0.4770730095804427,0.9951388888888889
1737,0.47708952758506773,0.9951388888888889
1738,0.47708952758506773,0.9958333333333333
1739,0.48052527254707633,0.9958333333333333
1740,0.4805583085563264,0.9958333333333333
1741,0.48085563263957715,0.9958333333333333
1742,0.48088866864882723,0.9958333333333333
1743,0.4810208126858275,0.9958333333333333
1744,0.4810538486950776,0.9958333333333333
1745,0.4814833168153287,0.9958333333333333
1746,0.4815163528245788,0.9958333333333333
1747,0.48224314502808063,0.9958333333333333
1748,0.48227618103733066,0.9958333333333333
1749,0.4828873472084572,0.9958333333333333
1750,0.4829203832177073,0.9958333333333333
1751,0.4847043277172118,0.9958333333333333
1752,0.48473736372646187,0.9958333333333333
1753,0.48556326395771393,0.9958333333333333
1754,0.485596299966964,0.9958333333333333
1755,0.48640568219359104,0.9958333333333333
1756,0.48643871820284107,0.9958333333333333
1757,0.48837132474397094,0.9958333333333333
1758,0.488404360753221,0.9958333333333333
1759,0.49093161546085234,0.9958333333333333
1760,0.49096465147010243,0.9958333333333333
1761,0.49101420548397756,0.9958333333333333
1762,0.4910802775024777,0.9958333333333333
1763,0.49122893954410307,0.9958333333333333
1764,0.49126197555335316,0.9958333333333333
1765,0.4922860918401057,0.9958333333333333
1766,0.4923191278493558,0.9958333333333333
1767,0.4934423521638586,0.9958333333333333
1768,0.4934753881731087,0.9958333333333333
1769,0.49446646845061115,0.9958333333333333
1770,0.49449950445986124,0.9958333333333333
1771,0.4960521968946151,0.9958333333333333
1772,0.4960852329038652,0.9958333333333333
1773,0.49928972580112324,0.9958333333333333
1774,0.49932276181037333,0.9958333333333333
1775,0.5004459861248761,0.9958333333333333
1776,0.5004790221341262,0.9958333333333333
1777,0.5006442021803766,0.9958333333333333
1778,0.5006772381896267,0.9958333333333333
1779,0.5011067063098777,0.9958333333333333
1780,0.5011397423191278,0.9958333333333333
1781,0.5017013544763792,0.9958333333333333
1782,0.5017343904856293,0.9958333333333333
1783,0.5020317145688801,0.9958333333333333
1784,0.5020647505781302,0.9958333333333333
1785,0.5037330690452594,0.9958333333333333
1786,0.5037661050545094,0.9958333333333333
1787,0.5038982490915097,0.9958333333333333
1788,0.5039312851007598,0.9958333333333333
1789,0.5060621076973901,0.9958333333333333
1790,0.5060951437066402,0.9958333333333333
1791,0.5065576478361414,0.9958333333333333
1792,0.5065906838453915,0.9958333333333333
1793,0.5102411628675256,0.9958333333333333
1794,0.5102741988767757,0.9958333333333333
1795,0.5148992401717872,0.9958333333333333
1796,0.5149322761810373,0.9958333333333333
1797,0.5210439378923026,0.9958333333333333
1798,0.5210769739015527,0.9958333333333333
1799,0.521176081929303,0.9958333333333333
1800,0.5212091179385531,0.9958333333333333
1801,0.5219359101420549,0.9958333333333333
1802,0.521968946151305,0.9958333333333333
1803,0.5248430789560621,0.9958333333333333
1804,0.5249091509745623,0.9958333333333333
1805,0.5251073670300628,0.9958333333333333
1806,0.5251404030393129,0.9958333333333333
1807,0.5275189957053188,0.9958333333333333
1808,0.5275520317145689,0.9958333333333333
1809,0.5286257020151965,0.9958333333333333
1810,0.5286587380244466,0.9958333333333333
1811,0.5307069705979518,0.9958333333333333
1812,0.5307400066072019,0.9958333333333333
1813,0.5317476048893294,0.9958333333333333
1814,0.5317806408985795,0.9958333333333333
1815,0.5321110009910803,0.9958333333333333
1816,0.5321440370003303,0.9958333333333333
1817,0.5340601255368351,0.9958333333333333
1818,0.5340931615460852,0.9958333333333333
1819,0.5362570201519656,0.9958333333333333
1820,0.5362900561612157,0.9958333333333333
1821,0.537198546415593,0.9958333333333333
1822,0.537231582424843,0.9958333333333333
1823,0.5385199867855963,0.9958333333333333
1824,0.5385530227948464,0.9958333333333333
1825,0.539164188965973,0.9958333333333333
1826,0.539197224975223,0.9958333333333333
1827,0.539577139081599,0.9958333333333333
1828,0.5396101750908491,0.9958333333333333
1829,0.5396597291047242,0.9958333333333333
1830,0.5396927651139742,0.9958333333333333
1831,0.5397753551370994,0.9958333333333333
1832,0.5398083911463495,0.9958333333333333
1833,0.5402543772712256,0.9958333333333333
1834,0.5402874132804757,0.9958333333333333
1835,0.5428972580112322,0.9958333333333333
1836,0.5429302940204823,0.9958333333333333
1837,0.5429633300297324,0.9958333333333333
1838,0.5429963660389825,0.9958333333333333
1839,0.5443508424182358,0.9958333333333333
1840,0.5443838784274859,0.9958333333333333
1841,0.5448959365708622,0.9958333333333333
1842,0.5449289725801123,0.9958333333333333
1843,0.5450776346217376,0.9958333333333333
1844,0.5451106706309877,0.9958333333333333
1845,0.546415592996366,0.9958333333333333
1846,0.5464486290056161,0.9958333333333333
1847,0.5498678559629997,0.9958333333333333
1848,0.5499008919722498,0.9958333333333333
1849,0.5516848364717543,0.9958333333333333
1850,0.5517178724810043,0.9958333333333333
1851,0.5560951437066403,0.9958333333333333
1852,0.5561281797158903,0.9958333333333333
1853,0.5564585398083911,0.9958333333333333
1854,0.5564915758176412,0.9958333333333333
1855,0.558771060455897,0.9958333333333333
1856,0.5588040964651471,0.9958333333333333
1857,0.5589857945160225,0.9958333333333333
1858,0.5590188305252726,0.9958333333333333
1859,0.5606541129831516,0.9958333333333333
1860,0.5606871489924017,0.9958333333333333
1861,0.5641559299636604,0.9958333333333333
1862,0.5641889659729105,0.9958333333333333
1863,0.5642054839775356,0.9958333333333333
1864,0.5642385199867856,0.9958333333333333
1865,0.5642550379914106,0.9958333333333333
1866,0.5642880740006607,0.9958333333333333
1867,0.5643211100099108,0.9958333333333333
1868,0.5643541460191609,0.9958333333333333
1869,0.566385860588041,0.9958333333333333
1870,0.566418896597291,0.9958333333333333
1871,0.5666336306574166,0.9958333333333333
1872,0.5666666666666667,0.9958333333333333
1873,0.5675421209117939,0.9958333333333333
1874,0.567575156921044,0.9958333333333333
1875,0.5676247109349191,0.9958333333333333
1876,0.5676907829534192,0.9958333333333333
1877,0.5681532870829203,0.9958333333333333
1878,0.5681863230921704,0.9958333333333333
1879,0.5702841096795507,0.9958333333333333
1880,0.5703171456888008,0.9958333333333333
1881,0.5712256359431781,0.9958333333333333
1882,0.5712586719524282,0.9958333333333333
1883,0.5717707300958045,0.9958333333333333
1884,0.5718037661050545,0.9958333333333333
1885,0.5723158242484307,0.9958333333333333
1886,0.5723488602576808,0.9958333333333333
1887,0.5740171787248101,0.9958333333333333
1888,0.5740502147340601,0.9958333333333333
1889,0.5741823587710605,0.9958333333333333
1890,0.5742153947803106,0.9958333333333333
1891,0.5746283448959366,0.9958333333333333
1892,0.5746613809051867,0.9958333333333333
1893,0.5778823918070697,0.9958333333333333
1894,0.5779154278163198,0.9958333333333333
1895,0.5791377601585729,0.9958333333333333
1896,0.579170796167823,0.9958333333333333
1897,0.5801288404360754,0.9958333333333333
1898,0.5801618764453254,0.9958333333333333
1899,0.5804426825239511,0.9958333333333333
1900,0.5804757185332012,0.9958333333333333
1901,0.5807565246118269,0.9958333333333333
1902,0.580789560621077,0.9958333333333333
1903,0.58201189296333,0.9958333333333333
1904,0.5820449289725801,0.9958333333333333
1905,0.5870829203832177,0.9958333333333333
1906,0.5871159563924678,0.9958333333333333
1907,0.5871655104063429,0.9958333333333333
1908,0.587198546415593,0.9958333333333333
1909,0.5876610505450941,0.9958333333333333
1910,0.5876940865543442,0.9958333333333333
1911,0.5883713247439709,0.9958333333333333
1912,0.588404360753221,0.9958333333333333
1913,0.5909976874793524,0.9958333333333333
1914,0.5910307234886025,0.9958333333333333
1915,0.5914436736042286,0.9958333333333333
1916,0.5914767096134786,0.9958333333333333
1917,0.5933762801453585,0.9958333333333333
1918,0.5934093161546086,0.9958333333333333
1919,0.5954410307234886,0.9958333333333333
1920,0.5954740667327387,0.9958333333333333
1921,0.595589692765114,0.9958333333333333
1922,0.5956227287743641,0.9958333333333333
1923,0.5989924017178725,0.9958333333333333
1924,0.5990254377271226,0.9958333333333333
1925,0.5993557978196233,0.9958333333333333
1926,0.5993888338288734,0.9958333333333333
1927,0.5994879418566237,0.9958333333333333
1928,0.5995209778658738,0.9958333333333333
1929,0.5995540138751239,0.9958333333333333
1930,0.599587049884374,0.9958333333333333
1931,0.6004625041295012,0.9958333333333333
1932,0.6004955401387513,0.9958333333333333
1933,0.601618764453254,0.9958333333333333
1934,0.6016518004625041,0.9958333333333333
1935,0.6042286091840106,0.9958333333333333
1936,0.6042616451932606,0.9958333333333333
1937,0.6046911133135118,0.9958333333333333
1938,0.604757185332012,0.9958333333333333
1939,0.6053353154938883,0.9958333333333333
1940,0.6054013875123885,0.9958333333333333
1941,0.6056821935910142,0.9958333333333333
1942,0.6057152296002642,0.9958333333333333
1943,0.6067723818962669,0.9958333333333333
1944,0.606805417905517,0.9958333333333333
1945,0.608391146349521,0.9958333333333333
1946,0.608424182358771,0.9958333333333333
1947,0.6113478691774034,0.9958333333333333
1948,0.6113809051866534,0.9958333333333333
1949,0.6136603898249091,0.9958333333333333
1950,0.6136934258341592,0.9958333333333333
1951,0.6138751238850347,0.9958333333333333
1952,0.6139081598942848,0.9958333333333333
1953,0.6165180046250412,0.9958333333333333
1954,0.6165510406342913,0.9958333333333333
1955,0.6177733729765444,0.9958333333333333
1956,0.6178064089857945,0.9958333333333333
1957,0.6182689131152956,0.9958333333333333
1958,0.6183019491245457,0.9958333333333333
1959,0.6202675916749256,0.9958333333333333
1960,0.6203006276841757,0.9958333333333333
1961,0.6204658077304261,0.9958333333333333
1962,0.6204988437396762,0.9958333333333333
1963,0.620796167822927,0.9958333333333333
1964,0.6208292038321771,0.9958333333333333
1965,0.6213908159894285,0.9958333333333333
1966,0.6214238519986786,0.9958333333333333
1967,0.6227618103733069,0.9958333333333333
1968,0.622794846382557,0.9958333333333333
1969,0.6243145028080608,0.9958333333333333
1970,0.6243475388173109,0.9958333333333333
1971,0.6245127188635613,0.9958333333333333
1972,0.6245457548728114,0.9958333333333333
1973,0.6249091509745622,0.9958333333333333
1974,0.6249421869838123,0.9958333333333333
1975,0.6258671952428146,0.9958333333333333
1976,0.6259002312520647,0.9958333333333333
1977,0.6291212421539478,0.9958333333333333
1978,0.6291542781631979,0.9958333333333333
1979,0.6299141063759498,0.9958333333333333
1980,0.6299471423851999,0.9958333333333333
1981,0.630773042616452,0.9958333333333333
1982,0.630806078625702,0.9958333333333333
1983,0.6318301949124546,0.9958333333333333
1984,0.6318632309217047,0.9958333333333333
1985,0.6322926990419557,0.9958333333333333
1986,0.6323257350512058,0.9958333333333333
1987,0.6324743970928312,0.9958333333333333
1988,0.6325074331020812,0.9958333333333333
1989,0.6359431780640898,0.9958333333333333
1990,0.6359431780640898,0.9965277777777778
1991,0.6366038982490915,0.9965277777777778
1992,0.6366369342583416,0.9965277777777778
1993,0.6378757846052197,0.9965277777777778
1994,0.6379088206144697,0.9965277777777778
1995,0.6433267261314833,0.9965277777777778
1996,0.6433597621407334,0.9965277777777778
1997,0.6438718202841097,0.9965277777777778
1998,0.6439048562933598,0.9965277777777778
1999,0.6450115626032376,0.9965277777777778
2000,0.6450445986124876,0.9965277777777778
2001,0.647224975222993,0.9965277777777778
2002,0.6472580112322431,0.9965277777777778
2003,0.6509580442682524,0.9965277777777778
2004,0.6509910802775025,0.9965277777777778
2005,0.6521803766105054,0.9965277777777778
2006,0.6522134126197555,0.9965277777777778
2007,0.652428146679881,0.9965277777777778
2008,0.6524611826891311,0.9965277777777778
2009,0.654013875123885,0.9965277777777778
2010,0.6540469111331351,0.9965277777777778
2011,0.6548728113643871,0.9965277777777778
2012,0.6549058473736372,0.9965277777777778
2013,0.6553187974892632,0.9965277777777778
2014,0.6553187974892632,0.9972222222222222
2015,0.6553518334985133,0.9972222222222222
2016,0.6553848695077634,0.9972222222222222
2017,0.657978196233895,0.9972222222222222
2018,0.6580112322431451,0.9972222222222222
2019,0.6581103402708953,0.9972222222222222
2020,0.6581433762801454,0.9972222222222222
2021,0.6589197224975223,0.9972222222222222
2022,0.6589527585067724,0.9972222222222222
2023,0.6607697390155269,0.9972222222222222
2024,0.660802775024777,0.9972222222222222
2025,0.6616286752560291,0.9972222222222222
2026,0.6616617112652792,0.9972222222222222
2027,0.6623554674595309,0.9972222222222222
2028,0.662388503468781,0.9972222222222222
2029,0.6625702015196564,0.9972222222222222
2030,0.6626032375289065,0.9972222222222222
2031,0.6646845061116617,0.9972222222222222
2032,0.6647175421209118,0.9972222222222222
2033,0.6672447968285431,0.9972222222222222
2034,0.6672778328377932,0.9972222222222222
2035,0.6698050875454246,0.9972222222222222
2036,0.6698381235546746,0.9972222222222222
2037,0.6705649157581764,0.9972222222222222
2038,0.6705979517674265,0.9972222222222222
2039,0.6719359101420549,0.9972222222222222
2040,0.6719689461513049,0.9972222222222222
2041,0.6738024446646845,0.9972222222222222
2042,0.6738354806739346,0.9972222222222222
2043,0.6749917409976874,0.9972222222222222
2044,0.6750247770069375,0.9972222222222222
2045,0.6759828212751899,0.9972222222222222
2046,0.67601585728444,0.9972222222222222
2047,0.6773042616451933,0.9972222222222222
2048,0.6773372976544434,0.9972222222222222
2049,0.679203832177073,0.9972222222222222
2050,0.6792368681863231,0.9972222222222222
2051,0.6794020482325736,0.9972222222222222
2052,0.6794350842418236,0.9972222222222222
2053,0.6823257350512059,0.9972222222222222
2054,0.682358771060456,0.9972222222222222
2055,0.6835150313842088,0.9972222222222222
2056,0.6835480673934589,0.9972222222222222
2057,0.6841261975553353,0.9972222222222222
2058,0.6841592335645854,0.9972222222222222
2059,0.6868847043277172,0.9972222222222222
2060,0.6869177403369673,0.9972222222222222
2061,0.6884869507763463,0.9972222222222222
2062,0.6885199867855963,0.9972222222222222
2063,0.6896266930954741,0.9972222222222222
2064,0.6896597291047242,0.9972222222222222
2065,0.6917079616782292,0.9972222222222222
2066,0.6917409976874793,0.9972222222222222
2067,0.6923026098447308,0.9972222222222222
2068,0.6923356458539809,0.9972222222222222
2069,0.6933102081268583,0.9972222222222222
2070,0.6933432441361084,0.9972222222222222
2071,0.6948298645523621,0.9972222222222222
2072,0.6948629005616122,0.9972222222222222
2073,0.7004955401387513,0.9972222222222222
2074,0.7005285761480013,0.9972222222222222
2075,0.702015196564255,0.9972222222222222
2076,0.7020482325735051,0.9972222222222222
2077,0.7047076313181367,0.9972222222222222
2078,0.7047406673273868,0.9972222222222222
2079,0.7049388833828873,0.9972222222222222
2080,0.7049719193921374,0.9972222222222222
2081,0.7059629996696399,0.9972222222222222
2082,0.70599603567889,0.9972222222222222
2083,0.7070366699702676,0.9972222222222222
2084,0.7070697059795177,0.9972222222222222
2085,0.7085232903865213,0.9972222222222222
2086,0.7085563263957714,0.9972222222222222
2087,0.7085728444003965,0.9972222222222222
2088,0.7086058804096466,0.9972222222222222
2089,0.7088371324743971,0.9972222222222222
2090,0.7088701684836471,0.9972222222222222
2091,0.7099438387842748,0.9972222222222222
2092,0.7099768747935249,0.9972222222222222
2093,0.7129335976214073,0.9972222222222222
2094,0.7129666336306574,0.9972222222222222
2095,0.7149322761810374,0.9972222222222222
2096,0.7149653121902874,0.9972222222222222
2097,0.7158903204492897,0.9972222222222222
2098,0.7159233564585398,0.9972222222222222
2099,0.7182358771060456,0.9972222222222222
2100,0.7182689131152957,0.9972222222222222
2101,0.7218533201189297,0.9972222222222222
2102,0.7218863561281798,0.9972222222222222
2103,0.7225801123224315,0.9972222222222222
2104,0.7226131483316816,0.9972222222222222
2105,0.7244796828543112,0.9972222222222222
2106,0.7245127188635613,0.9972222222222222
2107,0.7256524611826891,0.9972222222222222
2108,0.7256854971919392,0.9972222222222222
2109,0.7266270234555666,0.9972222222222222
2110,0.7266600594648166,0.9972222222222222
2111,0.7281797158903205,0.9972222222222222
2112,0.7282127518995706,0.9972222222222222
2113,0.728410967955071,0.9972222222222222
2114,0.7284440039643211,0.9972222222222222
2115,0.7293524942186984,0.9972222222222222
2116,0.7293855302279485,0.9972222222222222
2117,0.7310868847043277,0.9972222222222222
2118,0.7311199207135778,0.9972222222222222
2119,0.731169474727453,0.9972222222222222
2120,0.7312025107367031,0.9972222222222222
2121,0.7317145688800792,0.9972222222222222
2122,0.7317476048893293,0.9972222222222222
2123,0.7322101090188305,0.9972222222222222
2124,0.7322431450280806,0.9972222222222222
2125,0.7327221671622068,0.9972222222222222
2126,0.7327552031714569,0.9972222222222222
2127,0.7331185992732078,0.9972222222222222
2128,0.7331516352824579,0.9972222222222222
2129,0.7348695077634622,0.9972222222222222
2130,0.7348695077634622,0.9979166666666667
2131,0.7349355797819623,0.9979166666666667
2132,0.7349355797819623,0.9986111111111111
2133,0.7355467459530889,0.9986111111111111
2134,0.735579781962339,0.9986111111111111
2135,0.7366038982490916,0.9986111111111111
2136,0.7366369342583416,0.9986111111111111
2137,0.7376940865543442,0.9986111111111111
2138,0.7376940865543442,0.9993055555555556
2139,0.7386686488272217,0.9993055555555556
2140,0.7387016848364718,0.9993055555555556
2141,0.7392467789890981,0.9993055555555556
2142,0.7392798149983482,0.9993055555555556
2143,0.7397753551370995,0.9993055555555556
2144,0.7398083911463496,0.9993055555555556
2145,0.7411133135117278,0.9993055555555556
2146,0.7411463495209779,0.9993055555555556
2147,0.7412454575487281,0.9993055555555556
2148,0.7413115295672282,0.9993055555555556
2149,0.7413941195903535,0.9993055555555556
2150,0.7414271555996036,0.9993055555555556
2151,0.742798149983482,0.9993055555555556
2152,0.7428311859927321,0.9993055555555556
2153,0.7428642220019822,0.9993055555555556
2154,0.7428972580112323,0.9993055555555556
2155,0.7433267261314833,0.9993055555555556
2156,0.7433267261314833,1.0
2157,0.7444334324413611,1.0
2158,0.7444664684506112,1.0
2159,0.7455566567558639,1.0
2160,0.745589692765114,1.0
2161,0.7459035348529898,1.0
2162,0.7459365708622399,1.0
2163,0.7466633630657417,1.0
2164,0.7466963990749917,1.0
2165,0.7468946151304923,1.0
2166,0.7469276511397424,1.0
2167,0.7474892632969937,1.0
2168,0.7475222993062438,1.0
2169,0.748397753551371,1.0
2170,0.748430789560621,1.0
2171,0.7522464486290056,1.0
2172,0.7522794846382557,1.0
2173,0.752411628675256,1.0
2174,0.7524446646845061,1.0
2175,0.7539312851007598,1.0
2176,0.7539643211100099,1.0
2177,0.7557152296002643,1.0
2178,0.7557482656095144,1.0
2179,0.762405021473406,1.0
2180,0.7624380574826561,1.0
2181,0.7638255698711596,1.0
2182,0.7638586058804097,1.0
2183,0.7647175421209118,1.0
2184,0.7647505781301619,1.0
2185,0.7648992401717872,1.0
2186,0.7649322761810373,1.0
2187,0.765626032375289,1.0
2188,0.7656590683845391,1.0
2189,0.7699867855963,1.0
2190,0.77001982160555,1.0
2191,0.7719028741328048,1.0
2192,0.7719359101420549,1.0
2193,0.7765609514370664,1.0
2194,0.7765939874463165,1.0
2195,0.7787248100429468,1.0
2196,0.7787578460521969,1.0
2197,0.7822761810373307,1.0
2198,0.7823092170465807,1.0
2199,0.7823257350512058,1.0
2200,0.7823587710604559,1.0
2201,0.782771721176082,1.0
2202,0.782804757185332,1.0
2203,0.7829864552362075,1.0
2204,0.7830194912454576,1.0
2205,0.7867690782953419,1.0
2206,0.786802114304592,1.0
2207,0.7908820614469773,1.0
2208,0.7909150974562272,1.0
2209,0.7911793855302279,1.0
2210,0.791212421539478,1.0
2211,0.7919061777337297,1.0
2212,0.7919392137429798,1.0
2213,0.7935249421869838,1.0
2214,0.7935579781962339,1.0
2215,0.7951106706309877,1.0
2216,0.7951437066402378,1.0
2217,0.7955071027419888,1.0
2218,0.7955401387512389,1.0
2219,0.7968615791212421,1.0
2220,0.7968946151304922,1.0
2221,0.797621407333994,1.0
2222,0.7976544433432441,1.0
2223,0.79796828543112,1.0
2224,0.79803435744962,1.0
2225,0.7988272216716221,1.0
2226,0.7988602576808721,1.0
2227,0.8006111661711265,1.0
2228,0.8006442021803766,1.0
2229,0.8006937561942518,1.0
2230,0.8007267922035018,1.0
2231,0.8035348529897588,1.0
2232,0.8035678889990089,1.0
2233,0.8036174430128841,1.0
2234,0.8036504790221342,1.0
2235,0.8059464816650148,1.0
2236,0.8059795176742649,1.0
2237,0.806012553683515,1.0
2238,0.8060455896927651,1.0
2239,0.8073174760488933,1.0
2240,0.8073505120581433,1.0
2241,0.8078790882061447,1.0
2242,0.8079121242153948,1.0
2243,0.8080442682523951,1.0
2244,0.8080773042616451,1.0
2245,0.8088040964651471,1.0
2246,0.8088371324743971,1.0
2247,0.8118434093161546,1.0
2248,0.8118764453254047,1.0
2249,0.8150479022134126,1.0
2250,0.8150809382226627,1.0
2251,0.815180046250413,1.0
2252,0.815213082259663,1.0
2253,0.8166666666666667,1.0
2254,0.8166997026759167,1.0
2255,0.817195242814668,1.0
2256,0.817228278823918,1.0
2257,0.8189296333002973,1.0
2258,0.8189626693095474,1.0
2259,0.8217376940865544,1.0
2260,0.8217707300958045,1.0
2261,0.8242814667988108,1.0
2262,0.8243145028080607,1.0
2263,0.824777006937562,1.0
2264,0.824810042946812,1.0
2265,0.8288239180706971,1.0
2266,0.8288569540799472,1.0
2267,0.8290551701354476,1.0
2268,0.8290882061446977,1.0
2269,0.830426164519326,1.0
2270,0.8304592005285761,1.0
2271,0.8305417905517014,1.0
2272,0.8305748265609514,1.0
2273,0.8319788569540799,1.0
2274,0.83201189296333,1.0
2275,0.8320449289725801,1.0
2276,0.8320779649818302,1.0
2277,0.8328543111992072,1.0
2278,0.8328873472084573,1.0
2279,0.8349686157912124,1.0
2280,0.8350016518004625,1.0
2281,0.8377601585728444,1.0
2282,0.8377931945820944,1.0
2283,0.8410307234886025,1.0
2284,0.8410637594978526,1.0
2285,0.8416914436736043,1.0
2286,0.8417244796828544,1.0
2287,0.8445820944829865,1.0
2288,0.8446151304922366,1.0
2289,0.8448463825569871,1.0
2290,0.8448794185662372,1.0
2291,0.8457218368021143,1.0
2292,0.8457548728113644,1.0
2293,0.8503138420878757,1.0
2294,0.8503468780971258,1.0
2295,0.8510736703006276,1.0
2296,0.8511067063098777,1.0
2297,0.8555665675586389,1.0
2298,0.8556326395771391,1.0
2299,0.8579451602246448,1.0
2300,0.8579781962338949,1.0
2301,0.8581433762801454,1.0
2302,0.8581764122893955,1.0
2303,0.8584076643541461,1.0
2304,0.8584407003633961,1.0
2305,0.8586719524281466,1.0
2306,0.8587049884373967,1.0
2307,0.8593326726131484,1.0
2308,0.8593657086223984,1.0
2309,0.8599108027750247,1.0
2310,0.8599438387842748,1.0
2311,0.8633630657416584,1.0
2312,0.8633961017509085,1.0
2313,0.8635943178064089,1.0
2314,0.863627353815659,1.0
2315,0.8645853980839114,1.0
2316,0.8646184340931615,1.0
2317,0.8648662041625371,1.0
2318,0.8648992401717872,1.0
2319,0.8661380905186653,1.0
2320,0.8662041625371655,1.0
2321,0.8673769408655434,1.0
2322,0.8674099768747935,1.0
2323,0.8677073009580443,1.0
2324,0.8677403369672944,1.0
2325,0.8699537495870499,1.0
2326,0.8699867855962999,1.0
2327,0.8704658077304261,1.0
2328,0.8704988437396762,1.0
2329,0.8716551040634292,1.0
2330,0.8716881400726793,1.0
2331,0.872381896266931,1.0
2332,0.872414932276181,1.0
2333,0.8728774364056822,1.0
2334,0.8729104724149322,1.0
2335,0.8744796828543112,1.0
2336,0.8745127188635613,1.0
2337,0.8752560290716881,1.0
2338,0.8752890650809382,1.0
2339,0.8781136438718203,1.0
2340,0.8781466798810703,1.0
2341,0.8783614139411959,1.0
2342,0.878394449950446,1.0
2343,0.8786257020151965,1.0
2344,0.8786587380244466,1.0
2345,0.8809051866534523,1.0
2346,0.8809382226627024,1.0
2347,0.8811034027089527,1.0
2348,0.8811364387182028,1.0
2349,0.8813346547737033,1.0
2350,0.8813676907829534,1.0
2351,0.8822926990419557,1.0
2352,0.8823257350512058,1.0
2353,0.888800792864222,1.0
2354,0.8888338288734721,1.0
2355,0.8931615460852329,1.0
2356,0.893194582094483,1.0
2357,0.8941526263627354,1.0
2358,0.8941856623719855,1.0
2359,0.8971423851998679,1.0
2360,0.897175421209118,1.0
2361,0.8975057813016187,1.0
2362,0.8975388173108688,1.0
2363,0.8977205153617444,1.0
2364,0.8977535513709943,1.0
2365,0.8992732077964982,1.0
2366,0.8993062438057483,1.0
2367,0.9011067063098778,1.0
2368,0.9011397423191279,1.0
2369,0.9023290386521309,1.0
2370,0.9023620746613809,1.0
2371,0.9044598612487611,1.0
2372,0.9044928972580112,1.0
2373,0.9051205814337628,1.0
2374,0.9051536174430129,1.0
2375,0.907185332011893,1.0
2376,0.9072183680211431,1.0
2377,0.9077964981830194,1.0
2378,0.9078295341922695,1.0
2379,0.9085232903865214,1.0
2380,0.9085563263957714,1.0
2381,0.9087545424512719,1.0
2382,0.9087875784605219,1.0
2383,0.9094648166501487,1.0
2384,0.9094978526593988,1.0
2385,0.9104889329369013,1.0
2386,0.9105219689461513,1.0
2387,0.9111166171126528,1.0
2388,0.9111496531219029,1.0
2389,0.9115130492236538,1.0
2390,0.9115460852329038,1.0
2391,0.9130161876445325,1.0
2392,0.9130492236537826,1.0
2393,0.9178889990089197,1.0
2394,0.9179220350181698,1.0
2395,0.9184836471754212,1.0
2396,0.9185166831846713,1.0
2397,0.9249752229930625,1.0
2398,0.9250082590023125,1.0
2399,0.9269408655434423,1.0
2400,0.9269739015526924,1.0
2401,0.9297819623389495,1.0
2402,0.9298149983481996,1.0
2403,0.9308391146349521,1.0
2404,0.9308721506442021,1.0
2405,0.9311364387182028,1.0
2406,0.9311694747274529,1.0
2407,0.93201189296333,1.0
2408,0.9320449289725801,1.0
2409,0.9331351172778328,1.0
2410,0.9331681532870829,1.0
2411,0.9340766435414601,1.0
2412,0.9341096795507102,1.0
2413,0.9357945160224644,1.0
2414,0.9358275520317145,1.0
2415,0.9374958704988438,1.0
2416,0.9375289065080938,1.0
2417,0.939593657086224,1.0
2418,0.9396266930954741,1.0
2419,0.9403700033036009,1.0
2420,0.940403039312851,1.0
2421,0.9455236207466138,1.0
2422,0.9455566567558639,1.0
2423,0.9472745292368682,1.0
2424,0.9473075652461183,1.0
2425,0.9504625041295012,1.0
2426,0.9504955401387513,1.0
2427,0.9518995705318798,1.0
2428,0.9519326065411299,1.0
2429,0.9544598612487611,1.0
2430,0.9544928972580112,1.0
2431,0.9552362074661381,1.0
2432,0.9552692434753882,1.0
2433,0.9562272877436405,1.0
2434,0.9562603237528906,1.0
2435,0.956788899900892,1.0
2436,0.9568219359101421,1.0
2437,0.9575322101090188,1.0
2438,0.9575652461182689,1.0
2439,0.9580442682523951,1.0
2440,0.9580773042616452,1.0
2441,0.9584572183680211,1.0
2442,0.9584902543772712,1.0
2443,0.9585398083911464,1.0
2444,0.9585728444003965,1.0
2445,0.9603237528906509,1.0
2446,0.9603567888999008,1.0
2447,0.9627188635612818,1.0
2448,0.9627518995705319,1.0
2449,0.9645358440700363,1.0
2450,0.9645688800792864,1.0
2451,0.9649983481995374,1.0
2452,0.9650313842087875,1.0
2453,0.9675256029071688,1.0
2454,0.9675586389164189,1.0
2455,0.9705153617443013,1.0
2456,0.9705814337628015,1.0
2457,0.9712751899570532,1.0
2458,0.9713082259663033,1.0
2459,0.9713247439709283,1.0
2460,0.9713577799801784,1.0
2461,0.9714073339940535,1.0
2462,0.9714403700033036,1.0
2463,0.9734390485629336,1.0
2464,0.9734720845721837,1.0
2465,0.9736372646184341,1.0
2466,0.9736703006276842,1.0
2467,0.9741988767756855,1.0
2468,0.9742319127849356,1.0
2469,0.9772877436405683,1.0
2470,0.9773207796498183,1.0
2471,0.9804426825239511,1.0
2472,0.9804757185332011,1.0
2473,0.9830360092500826,1.0
2474,0.9830690452593327,1.0
2475,0.9835645853980839,1.0
2476,0.983597621407334,1.0
2477,0.9849686157912124,1.0
2478,0.9850016518004625,1.0
2479,0.9861083581103403,1.0
2480,0.9861413941195903,1.0
2481,0.9862405021473406,1.0
2482,0.9862735381565907,1.0
2483,0.9864882722167162,1.0
2484,0.9865213082259663,1.0
2485,0.9898414271555996,1.0
2486,0.9898744631648497,1.0
2487,0.9910472414932276,1.0
2488,0.9910802775024777,1.0
2489,0.9912784935579781,1.0
2490,0.9913115295672282,1.0
2491,0.9939378923026099,1.0
2492,0.99397092831186,1.0
2493,0.995226296663363,1.0
2494,0.9952593326726131,1.0
2495,0.9962669309547406,1.0
2496,0.9962999669639907,1.0
2497,0.9971589032044929,1.0
2498,0.9971919392137429,1.0
2499,0.9977535513709944,1.0
2500,0.9977865873802445,1.0
2501,0.9978691774033697,1.0
2502,0.9979022134126198,1.0
2503,0.9984473075652461,1.0
2504,0.9984803435744962,1.0
2505,1.0,1.0
