,fpr,tpr
0,0.0,0.0
1,0.0,0.0002745241581259151
2,0.0,0.007961200585651538
3,5.037732617303604e-06,0.007961200585651538
4,5.037732617303604e-06,0.01061493411420205
5,1.0075465234607208e-05,0.01061493411420205
6,1.0075465234607208e-05,0.03120424597364568
7,1.0075465234607208e-05,0.03138726207906296
8,1.0075465234607208e-05,0.05856515373352855
9,1.0075465234607208e-05,0.058748169838945825
10,1.0075465234607208e-05,0.0832723279648609
11,1.0075465234607208e-05,0.08345534407027819
12,1.0075465234607208e-05,0.09361273792093704
13,1.0075465234607208e-05,0.09379575402635432
14,1.0075465234607208e-05,0.10669838945827233
15,1.0075465234607208e-05,0.10688140556368961
16,1.0075465234607208e-05,0.10807101024890191
17,1.0075465234607208e-05,0.10825402635431917
18,1.0075465234607208e-05,0.11337847730600292
19,1.0075465234607208e-05,0.1135614934114202
20,1.0075465234607208e-05,0.11511713030746706
21,1.0075465234607208e-05,0.11530014641288433
22,1.0075465234607208e-05,0.13698755490483164
23,1.5113197851910811e-05,0.13698755490483164
24,1.5113197851910811e-05,0.15830893118594436
25,2.0150930469214415e-05,0.15830893118594436
26,2.0150930469214415e-05,0.21678257686676428
27,2.0150930469214415e-05,0.21696559297218154
28,2.0150930469214415e-05,0.24386896046852122
29,2.518866308651802e-05,0.24386896046852122
30,2.518866308651802e-05,0.25988286969253294
31,3.0226395703821623e-05,0.25988286969253294
32,3.0226395703821623e-05,0.2695827232796486
33,3.526412832112523e-05,0.2695827232796486
34,3.526412832112523e-05,0.26967423133235724
35,4.030186093842883e-05,0.26967423133235724
36,4.030186093842883e-05,0.28358345534407026
37,4.533959355573244e-05,0.28358345534407026
38,4.533959355573244e-05,0.28989751098096633
39,5.037732617303604e-05,0.28989751098096633
40,5.037732617303604e-05,0.3070095168374817
41,5.5415058790339646e-05,0.3070095168374817
42,5.5415058790339646e-05,0.3106698389458272
43,5.5415058790339646e-05,0.3108528550512445
44,5.5415058790339646e-05,0.31240849194729137
45,6.0452791407643246e-05,0.31240849194729137
46,6.0452791407643246e-05,0.31643484626647145
47,6.549052402494685e-05,0.31643484626647145
48,6.549052402494685e-05,0.31899707174231334
49,7.052825664225046e-05,0.31899707174231334
50,7.052825664225046e-05,0.3267752562225476
51,7.556598925955406e-05,0.3267752562225476
52,7.556598925955406e-05,0.3295204978038067
53,8.060372187685766e-05,0.3295204978038067
54,8.060372187685766e-05,0.3530380673499268
55,8.564145449416126e-05,0.3530380673499268
56,8.564145449416126e-05,0.3560578330893119
57,9.067918711146488e-05,0.3560578330893119
58,9.067918711146488e-05,0.36099926793557835
59,9.571691972876848e-05,0.36099926793557835
60,9.571691972876848e-05,0.3661237188872621
61,0.00010075465234607208,0.3661237188872621
62,0.00010075465234607208,0.36694729136163984
63,0.00010579238496337569,0.36694729136163984
64,0.00010579238496337569,0.36731332357247437
65,0.00011083011758067929,0.36731332357247437
66,0.00011083011758067929,0.36767935578330896
67,0.00011586785019798289,0.36767935578330896
68,0.00011586785019798289,0.376006588579795
69,0.00012090558281528649,0.376006588579795
70,0.00012090558281528649,0.3810395314787701
71,0.0001259433154325901,0.3810395314787701
72,0.0001259433154325901,0.381314055636896
73,0.0001309810480498937,0.381314055636896
74,0.0001309810480498937,0.38460834553440704
75,0.00013601878066719732,0.38460834553440704
76,0.00013601878066719732,0.38488286969253294
77,0.00014105651328450092,0.38488286969253294
78,0.00014105651328450092,0.3857064421669107
79,0.00014609424590180452,0.3857064421669107
80,0.00014609424590180452,0.387902635431918
81,0.00015113197851910812,0.387902635431918
82,0.00015113197851910812,0.38799414348462663
83,0.00015616971113641172,0.38799414348462663
84,0.00015616971113641172,0.39064787701317716
85,0.00016120744375371532,0.39064787701317716
86,0.00016120744375371532,0.39183748169838944
87,0.00016624517637101892,0.39183748169838944
88,0.00016624517637101892,0.39229502196193267
89,0.00017128290898832252,0.39229502196193267
90,0.00017128290898832252,0.39256954612005857
91,0.00017632064160562615,0.39256954612005857
92,0.00017632064160562615,0.39412518301610544
93,0.00018135837422292975,0.39412518301610544
94,0.00018135837422292975,0.3942166910688141
95,0.00018639610684023335,0.3942166910688141
96,0.00018639610684023335,0.39632137628111275
97,0.00019143383945753695,0.39632137628111275
98,0.00019143383945753695,0.3983345534407028
99,0.00019647157207484055,0.3983345534407028
100,0.00019647157207484055,0.39915812591508054
101,0.00020150930469214415,0.39915812591508054
102,0.00020150930469214415,0.3996156661786237
103,0.00020654703730944775,0.3996156661786237
104,0.00020654703730944775,0.4015373352855051
105,0.00021158476992675138,0.4015373352855051
106,0.00021158476992675138,0.4062042459736457
107,0.00021662250254405498,0.4062042459736457
108,0.00021662250254405498,0.4074853587115666
109,0.00022166023516135858,0.4074853587115666
110,0.00022166023516135858,0.41279282576866766
111,0.00022669796777866218,0.41279282576866766
112,0.00022669796777866218,0.41334187408491946
113,0.00023173570039596578,0.41334187408491946
114,0.00023173570039596578,0.4136163982430454
115,0.00023677343301326938,0.4136163982430454
116,0.00023677343301326938,0.41398243045387995
117,0.00024181116563057298,0.41398243045387995
118,0.00024181116563057298,0.4140739385065886
119,0.0002468488982478766,0.4140739385065886
120,0.0002468488982478766,0.41489751098096633
121,0.0002518866308651802,0.41489751098096633
122,0.0002518866308651802,0.41755124450951686
123,0.0002569243634824838,0.41755124450951686
124,0.0002569243634824838,0.41837481698389456
125,0.0002619620960997874,0.41837481698389456
126,0.0002619620960997874,0.4185578330893119
127,0.000266999828717091,0.4185578330893119
128,0.000266999828717091,0.42066251830161056
129,0.00027203756133439464,0.42066251830161056
130,0.00027203756133439464,0.4216691068814056
131,0.0002770752939516982,0.4216691068814056
132,0.0002770752939516982,0.42185212298682284
133,0.00028211302656900184,0.42185212298682284
134,0.00028211302656900184,0.4222181551976574
135,0.0002871507591863054,0.4222181551976574
136,0.0002871507591863054,0.4239568081991215
137,0.00029218849180360904,0.4239568081991215
138,0.00029218849180360904,0.4265190336749634
139,0.0002972262244209126,0.4265190336749634
140,0.0002972262244209126,0.4279831625183016
141,0.00030226395703821624,0.4279831625183016
142,0.00030226395703821624,0.4289897510980966
143,0.0003073016896555198,0.4289897510980966
144,0.0003073016896555198,0.43072840409956076
145,0.00031233942227282344,0.43072840409956076
146,0.00031233942227282344,0.43191800878477304
147,0.00031737715489012707,0.43191800878477304
148,0.00031737715489012707,0.43228404099560763
149,0.00032241488750743065,0.43228404099560763
150,0.00032241488750743065,0.43356515373352855
151,0.00032745262012473427,0.43356515373352855
152,0.00032745262012473427,0.4346632503660322
153,0.00033249035274203785,0.4346632503660322
154,0.00033249035274203785,0.4353038067349927
155,0.0003375280853593415,0.4353038067349927
156,0.0003375280853593415,0.43731698389458273
157,0.00034256581797664505,0.43731698389458273
158,0.00034256581797664505,0.4375
159,0.0003476035505939487,0.4375
160,0.0003476035505939487,0.43759150805270863
161,0.0003526412832112523,0.43759150805270863
162,0.0003526412832112523,0.43804904831625185
163,0.0003627167484458595,0.43804904831625185
164,0.0003627167484458595,0.438506588579795
165,0.0003677544810631631,0.438506588579795
166,0.0003677544810631631,0.4394216691068814
167,0.0003727922136804667,0.4394216691068814
168,0.0003727922136804667,0.4396961932650073
169,0.0003778299462977703,0.4396961932650073
170,0.0003778299462977703,0.4398792093704246
171,0.0003828676789150739,0.4398792093704246
172,0.0003828676789150739,0.4407027818448023
173,0.00038790541153237753,0.4407027818448023
174,0.00038790541153237753,0.44207540263543194
175,0.0003929431441496811,0.44207540263543194
176,0.0003929431441496811,0.4422584187408492
177,0.00039798087676698473,0.4422584187408492
178,0.00039798087676698473,0.4425329428989751
179,0.0004030186093842883,0.4425329428989751
180,0.0004030186093842883,0.4444546120058565
181,0.00040805634200159193,0.4444546120058565
182,0.00040805634200159193,0.44838945827232796
183,0.0004130940746188955,0.44838945827232796
184,0.0004130940746188955,0.450402635431918
185,0.00041813180723619913,0.450402635431918
186,0.00041813180723619913,0.451409224011713
187,0.00042316953985350276,0.451409224011713
188,0.00042316953985350276,0.45150073206442165
189,0.00042820727247080634,0.45150073206442165
190,0.00042820727247080634,0.4561676427525622
191,0.00043324500508810996,0.4561676427525622
192,0.00043324500508810996,0.4572657393850659
193,0.00043828273770541354,0.4572657393850659
194,0.00043828273770541354,0.45763177159590046
195,0.00044332047032271716,0.45763177159590046
196,0.00044332047032271716,0.45818081991215226
197,0.00044835820294002074,0.45818081991215226
198,0.00044835820294002074,0.45845534407027816
199,0.00045339593555732436,0.45845534407027816
200,0.00045339593555732436,0.46357979502196195
201,0.00045843366817462794,0.46357979502196195
202,0.00045843366817462794,0.46412884333821375
203,0.00046347140079193157,0.46412884333821375
204,0.00046347140079193157,0.46504392386530014
205,0.0004685091334092352,0.46504392386530014
206,0.0004685091334092352,0.46513543191800877
207,0.00047354686602653877,0.46513543191800877
208,0.00047354686602653877,0.4689787701317716
209,0.0004785845986438424,0.4689787701317716
210,0.0004785845986438424,0.46952781844802344
211,0.00048362233126114597,0.46952781844802344
212,0.00048362233126114597,0.4706259150805271
213,0.0004886600638784495,0.4706259150805271
214,0.0004886600638784495,0.470900439238653
215,0.0004936977964957532,0.470900439238653
216,0.0004936977964957532,0.47172401171303074
217,0.0004987355291130568,0.47172401171303074
218,0.0004987355291130568,0.47199853587115664
219,0.0005037732617303604,0.47199853587115664
220,0.0005037732617303604,0.47263909224011713
221,0.000508810994347664,0.47263909224011713
222,0.000508810994347664,0.4735541727672035
223,0.0005138487269649676,0.4735541727672035
224,0.0005138487269649676,0.47492679355783307
225,0.0005188864595822712,0.47492679355783307
226,0.0005188864595822712,0.4750183016105417
227,0.0005239241921995748,0.4750183016105417
228,0.0005239241921995748,0.4773060029282577
229,0.0005289619248168785,0.4773060029282577
230,0.0005289619248168785,0.47776354319180087
231,0.000533999657434182,0.47776354319180087
232,0.000533999657434182,0.47812957540263545
233,0.0005390373900514856,0.47812957540263545
234,0.0005390373900514856,0.47840409956076135
235,0.0005440751226687893,0.47840409956076135
236,0.0005440751226687893,0.4797767203513909
237,0.0005491128552860929,0.4797767203513909
238,0.0005491128552860929,0.4816068814055637
239,0.0005541505879033964,0.4816068814055637
240,0.0005541505879033964,0.48178989751098095
241,0.0005591883205207,0.48178989751098095
242,0.0005591883205207,0.4823389458272328
243,0.0005642260531380037,0.4823389458272328
244,0.0005642260531380037,0.48243045387994143
245,0.0005692637857553073,0.48243045387994143
246,0.0005692637857553073,0.48252196193265007
247,0.0005743015183726108,0.48252196193265007
248,0.0005743015183726108,0.4826134699853587
249,0.0005793392509899145,0.4826134699853587
250,0.0005793392509899145,0.4829795021961933
251,0.0005843769836072181,0.4829795021961933
252,0.0005843769836072181,0.4832540263543192
253,0.0005894147162245217,0.4832540263543192
254,0.0005894147162245217,0.4842606149341142
255,0.0005944524488418252,0.4842606149341142
256,0.0005944524488418252,0.48435212298682284
257,0.0005994901814591289,0.48435212298682284
258,0.0005994901814591289,0.4854502196193265
259,0.0006045279140764325,0.4854502196193265
260,0.0006045279140764325,0.486090775988287
261,0.0006146033793110396,0.486090775988287
262,0.0006146033793110396,0.4863653001464129
263,0.0006196411119283433,0.4863653001464129
264,0.0006196411119283433,0.48654831625183015
265,0.0006246788445456469,0.48654831625183015
266,0.0006246788445456469,0.48911054172767204
267,0.0006297165771629505,0.48911054172767204
268,0.0006297165771629505,0.49158125915080525
269,0.0006347543097802541,0.49158125915080525
270,0.0006347543097802541,0.49203879941434847
271,0.0006397920423975577,0.49203879941434847
272,0.0006397920423975577,0.49515007320644217
273,0.0006448297750148613,0.49515007320644217
274,0.0006448297750148613,0.4956076134699854
275,0.0006498675076321649,0.4956076134699854
276,0.0006498675076321649,0.4961566617862372
277,0.0006549052402494685,0.4961566617862372
278,0.0006549052402494685,0.49633967789165445
279,0.0006649807054840757,0.49633967789165445
280,0.0006649807054840757,0.4971632503660322
281,0.000675056170718683,0.4971632503660322
282,0.000675056170718683,0.4988103953147877
283,0.0006800939033359865,0.4988103953147877
284,0.0006800939033359865,0.4990849194729136
285,0.0006851316359532901,0.4990849194729136
286,0.0006851316359532901,0.5006405563689604
287,0.0006952071011878973,0.5006405563689604
288,0.0006952071011878973,0.501281112737921
289,0.0007002448338052009,0.501281112737921
290,0.0007002448338052009,0.5019216691068814
291,0.0007052825664225046,0.5019216691068814
292,0.0007052825664225046,0.50201317715959
293,0.0007103202990398082,0.50201317715959
294,0.0007103202990398082,0.5021046852122987
295,0.0007153580316571118,0.5021046852122987
296,0.0007153580316571118,0.5032027818448024
297,0.0007203957642744153,0.5032027818448024
298,0.0007203957642744153,0.5036603221083455
299,0.000725433496891719,0.5036603221083455
300,0.000725433496891719,0.5040263543191801
301,0.0007304712295090226,0.5040263543191801
302,0.0007304712295090226,0.5045754026354319
303,0.0007355089621263262,0.5045754026354319
304,0.0007355089621263262,0.5049414348462665
305,0.0007405466947436298,0.5049414348462665
306,0.0007405466947436298,0.5064055636896047
307,0.0007455844273609334,0.5064055636896047
308,0.0007455844273609334,0.5071376281112738
309,0.0007556598925955406,0.5071376281112738
310,0.0007556598925955406,0.5095168374816984
311,0.0007606976252128442,0.5095168374816984
312,0.0007606976252128442,0.509608345534407
313,0.0007657353578301478,0.509608345534407
314,0.0007657353578301478,0.5098828696925329
315,0.0007707730904474514,0.5098828696925329
316,0.0007707730904474514,0.5101573938506588
317,0.0007758108230647551,0.5101573938506588
318,0.0007758108230647551,0.510614934114202
319,0.0007808485556820586,0.510614934114202
320,0.0007808485556820586,0.5127196193265008
321,0.0007858862882993622,0.5127196193265008
322,0.0007858862882993622,0.5129941434846267
323,0.0007909240209166658,0.5129941434846267
324,0.0007909240209166658,0.513909224011713
325,0.0007959617535339695,0.513909224011713
326,0.0007959617535339695,0.5142752562225475
327,0.0008060372187685766,0.5142752562225475
328,0.0008060372187685766,0.5148243045387995
329,0.0008110749513858803,0.5148243045387995
330,0.0008110749513858803,0.5150073206442167
331,0.0008161126840031839,0.5150073206442167
332,0.0008161126840031839,0.5159224011713031
333,0.0008211504166204874,0.5159224011713031
334,0.0008211504166204874,0.5161054172767203
335,0.000826188149237791,0.5161054172767203
336,0.000826188149237791,0.5162884333821376
337,0.0008362636144723983,0.5162884333821376
338,0.0008362636144723983,0.5173865300146413
339,0.0008413013470897018,0.5173865300146413
340,0.0008413013470897018,0.5179355783308931
341,0.0008463390797070055,0.5179355783308931
342,0.0008463390797070055,0.5185761346998536
343,0.0008513768123243091,0.5185761346998536
344,0.0008513768123243091,0.5213213762811127
345,0.0008564145449416127,0.5213213762811127
346,0.0008564145449416127,0.5231515373352855
347,0.0008614522775589162,0.5231515373352855
348,0.0008614522775589162,0.5233345534407028
349,0.0008715277427935235,0.5233345534407028
350,0.0008715277427935235,0.5246156661786238
351,0.0008765654754108271,0.5246156661786238
352,0.0008765654754108271,0.5247071742313324
353,0.0008816032080281306,0.5247071742313324
354,0.0008816032080281306,0.5249816983894583
355,0.0008866409406454343,0.5249816983894583
356,0.0008866409406454343,0.5255307467057101
357,0.0008916786732627379,0.5255307467057101
358,0.0008916786732627379,0.5257137628111274
359,0.0008967164058800415,0.5257137628111274
360,0.0008967164058800415,0.5267203513909224
361,0.0009017541384973452,0.5267203513909224
362,0.0009017541384973452,0.5282759882869692
363,0.0009067918711146487,0.5282759882869692
364,0.0009067918711146487,0.5286420204978038
365,0.0009118296037319523,0.5286420204978038
366,0.0009118296037319523,0.5301976573938506
367,0.0009168673363492559,0.5301976573938506
368,0.0009168673363492559,0.5310212298682284
369,0.0009219050689665596,0.5310212298682284
370,0.0009219050689665596,0.531112737920937
371,0.0009269428015838631,0.531112737920937
372,0.0009269428015838631,0.5323023426061494
373,0.0009319805342011667,0.5323023426061494
374,0.0009319805342011667,0.5332174231332357
375,0.0009470937320530775,0.5332174231332357
376,0.0009470937320530775,0.5333089311859444
377,0.0009521314646703811,0.5333089311859444
378,0.0009521314646703811,0.533400439238653
379,0.0009571691972876848,0.533400439238653
380,0.0009571691972876848,0.5338579795021962
381,0.0009622069299049884,0.5338579795021962
382,0.0009622069299049884,0.5348645680819912
383,0.0009672446625222919,0.5348645680819912
384,0.0009672446625222919,0.5359626647144948
385,0.0009722823951395956,0.5359626647144948
386,0.0009722823951395956,0.5360541727672035
387,0.0009823578603742028,0.5360541727672035
388,0.0009823578603742028,0.5362371888726208
389,0.00099243332560881,0.5362371888726208
390,0.00099243332560881,0.5366032210834554
391,0.0009974710582261136,0.5366032210834554
392,0.0009974710582261136,0.5367862371888726
393,0.0010075465234607207,0.5367862371888726
394,0.0010075465234607207,0.5371522693997072
395,0.0010125842560780244,0.5371522693997072
396,0.0010125842560780244,0.5374267935578331
397,0.001017621988695328,0.5374267935578331
398,0.001017621988695328,0.5376098096632503
399,0.0010226597213126316,0.5376098096632503
400,0.0010226597213126316,0.537701317715959
401,0.0010276974539299352,0.537701317715959
402,0.0010276974539299352,0.5384333821376281
403,0.0010327351865472387,0.5384333821376281
404,0.0010327351865472387,0.5386163982430454
405,0.001042810651781846,0.5386163982430454
406,0.001042810651781846,0.5394399707174231
407,0.0010478483843991495,0.5394399707174231
408,0.0010478483843991495,0.539714494875549
409,0.0010528861170164532,0.539714494875549
410,0.0010528861170164532,0.5399890190336749
411,0.001057923849633757,0.5399890190336749
412,0.001057923849633757,0.5408125915080527
413,0.001067999314868364,0.5408125915080527
414,0.001067999314868364,0.5414531478770132
415,0.0010730370474856677,0.5414531478770132
416,0.0010730370474856677,0.5432833089311859
417,0.0010780747801029712,0.5432833089311859
418,0.0010780747801029712,0.5441068814055637
419,0.0010831125127202749,0.5441068814055637
420,0.0010831125127202749,0.5443814055636896
421,0.0010881502453375786,0.5443814055636896
422,0.0010881502453375786,0.5456625183016105
423,0.001093187977954882,0.5456625183016105
424,0.001093187977954882,0.5457540263543191
425,0.0010982257105721857,0.5457540263543191
426,0.0010982257105721857,0.5466691068814056
427,0.0011032634431894892,0.5466691068814056
428,0.0011032634431894892,0.5478587115666179
429,0.0011083011758067929,0.5478587115666179
430,0.0011083011758067929,0.5489568081991215
431,0.0011133389084240965,0.5489568081991215
432,0.0011133389084240965,0.549597364568082
433,0.0011183766410414,0.549597364568082
434,0.0011183766410414,0.5502379209370425
435,0.0011234143736587037,0.5502379209370425
436,0.0011234143736587037,0.5507869692532943
437,0.0011284521062760074,0.5507869692532943
438,0.0011284521062760074,0.5513360175695461
439,0.0011385275715106145,0.5513360175695461
440,0.0011385275715106145,0.551885065885798
441,0.0011385275715106145,0.5520680819912153
442,0.0011385275715106145,0.5521595900439239
443,0.0011435653041279182,0.5521595900439239
444,0.0011435653041279182,0.5526171303074671
445,0.0011486030367452217,0.5526171303074671
446,0.0011486030367452217,0.5529831625183016
447,0.0011536407693625253,0.5529831625183016
448,0.0011536407693625253,0.553898243045388
449,0.001158678501979829,0.553898243045388
450,0.001158678501979829,0.5541727672035139
451,0.0011637162345971325,0.5541727672035139
452,0.0011637162345971325,0.5542642752562226
453,0.0011687539672144362,0.5542642752562226
454,0.0011687539672144362,0.5555453879941434
455,0.0011737916998317396,0.5555453879941434
456,0.0011737916998317396,0.5566434846266471
457,0.0011788294324490433,0.5566434846266471
458,0.0011788294324490433,0.5574670571010248
459,0.001183867165066347,0.5574670571010248
460,0.001183867165066347,0.5575585651537335
461,0.0011889048976836505,0.5575585651537335
462,0.0011889048976836505,0.5607613469985359
463,0.0011939426303009541,0.5607613469985359
464,0.0011939426303009541,0.5617679355783309
465,0.0011989803629182578,0.5617679355783309
466,0.0011989803629182578,0.5628660322108345
467,0.0012040180955355613,0.5628660322108345
468,0.0012040180955355613,0.5641471449487555
469,0.0012140935607701687,0.5641471449487555
470,0.0012140935607701687,0.5647877013177159
471,0.0012241690260047758,0.5647877013177159
472,0.0012241690260047758,0.5648792093704246
473,0.0012292067586220793,0.5648792093704246
474,0.0012292067586220793,0.5660688140556369
475,0.001234244491239383,0.5660688140556369
476,0.001234244491239383,0.5663433382137628
477,0.0012493576890912938,0.5663433382137628
478,0.0012493576890912938,0.5674414348462665
479,0.0012543954217085975,0.5674414348462665
480,0.0012543954217085975,0.5687225475841874
481,0.001259433154325901,0.5687225475841874
482,0.001259433154325901,0.5696376281112738
483,0.0012644708869432046,0.5696376281112738
484,0.0012644708869432046,0.5697291361639825
485,0.0012695086195605083,0.5697291361639825
486,0.0012695086195605083,0.5706442166910688
487,0.0012745463521778118,0.5706442166910688
488,0.0012745463521778118,0.5711932650073206
489,0.0012795840847951154,0.5711932650073206
490,0.0012795840847951154,0.5718338213762811
491,0.0012846218174124191,0.5718338213762811
492,0.0012846218174124191,0.5721998535871157
493,0.0012896595500297226,0.5721998535871157
494,0.0012896595500297226,0.5730234260614934
495,0.0012946972826470263,0.5730234260614934
496,0.0012946972826470263,0.5737554904831625
497,0.0012997350152643297,0.5737554904831625
498,0.0012997350152643297,0.574396046852123
499,0.0013047727478816334,0.574396046852123
500,0.0013047727478816334,0.5749450951683748
501,0.001309810480498937,0.5749450951683748
502,0.001309810480498937,0.5750366032210834
503,0.0013198859457335442,0.5750366032210834
504,0.0013198859457335442,0.5753111273792094
505,0.0013299614109681514,0.5753111273792094
506,0.0013299614109681514,0.575402635431918
507,0.001334999143585455,0.575402635431918
508,0.001334999143585455,0.5760431918008785
509,0.0013400368762027587,0.5760431918008785
510,0.0013400368762027587,0.5762262079062958
511,0.0013450746088200622,0.5762262079062958
512,0.0013450746088200622,0.5767752562225475
513,0.001350112341437366,0.5767752562225475
514,0.001350112341437366,0.5771412884333821
515,0.0013551500740546696,0.5771412884333821
516,0.0013551500740546696,0.5775988286969254
517,0.001360187806671973,0.5775988286969254
518,0.001360187806671973,0.577690336749634
519,0.0013652255392892767,0.577690336749634
520,0.0013652255392892767,0.5777818448023426
521,0.0013702632719065802,0.5777818448023426
522,0.0013702632719065802,0.5780563689604685
523,0.0013753010045238839,0.5780563689604685
524,0.0013753010045238839,0.5784224011713031
525,0.001385376469758491,0.5784224011713031
526,0.001385376469758491,0.5793374816983895
527,0.0013904142023757947,0.5793374816983895
528,0.0013904142023757947,0.579703513909224
529,0.0013954519349930984,0.579703513909224
530,0.0013954519349930984,0.5798865300146413
531,0.0014004896676104018,0.5798865300146413
532,0.0014004896676104018,0.5810761346998536
533,0.0014055274002277055,0.5810761346998536
534,0.0014055274002277055,0.5811676427525623
535,0.0014105651328450092,0.5811676427525623
536,0.0014105651328450092,0.5812591508052709
537,0.0014156028654623127,0.5812591508052709
538,0.0014156028654623127,0.5815336749633968
539,0.0014206405980796164,0.5815336749633968
540,0.0014206405980796164,0.5824487554904831
541,0.00142567833069692,0.5824487554904831
542,0.00142567833069692,0.5829062957540263
543,0.0014307160633142235,0.5829062957540263
544,0.0014307160633142235,0.5829978038067349
545,0.0014407915285488306,0.5829978038067349
546,0.0014407915285488306,0.5830893118594437
547,0.0014458292611661343,0.5830893118594437
548,0.0014458292611661343,0.583272327964861
549,0.001450866993783438,0.583272327964861
550,0.001450866993783438,0.5833638360175696
551,0.0014609424590180452,0.5833638360175696
552,0.0014609424590180452,0.5837298682284041
553,0.0014659801916353488,0.5837298682284041
554,0.0014659801916353488,0.5838213762811127
555,0.0014710179242526523,0.5838213762811127
556,0.0014710179242526523,0.5843704245973645
557,0.001476055656869956,0.5843704245973645
558,0.001476055656869956,0.5846449487554904
559,0.0014810933894872597,0.5846449487554904
560,0.0014810933894872597,0.5853770131771596
561,0.0014861311221045631,0.5853770131771596
562,0.0014861311221045631,0.5859260614934114
563,0.0014911688547218668,0.5859260614934114
564,0.0014911688547218668,0.58601756954612
565,0.0014962065873391703,0.58601756954612
566,0.0014962065873391703,0.5861090775988287
567,0.0015062820525737776,0.5861090775988287
568,0.0015062820525737776,0.5866581259150805
569,0.001511319785191081,0.5866581259150805
570,0.001511319785191081,0.5869326500732065
571,0.0015163575178083848,0.5869326500732065
572,0.0015163575178083848,0.5872071742313324
573,0.0015213952504256885,0.5872071742313324
574,0.0015213952504256885,0.5875732064421669
575,0.0015415461808949028,0.5875732064421669
576,0.0015415461808949028,0.5885797950219619
577,0.0015465839135122064,0.5885797950219619
578,0.0015465839135122064,0.5887628111273792
579,0.0015516216461295101,0.5887628111273792
580,0.0015516216461295101,0.5892203513909224
581,0.0015667348439814207,0.5892203513909224
582,0.0015667348439814207,0.589586383601757
583,0.0015717725765987244,0.589586383601757
584,0.0015717725765987244,0.590318448023426
585,0.0015818480418333316,0.590318448023426
586,0.0015818480418333316,0.5912335285505125
587,0.0015868857744506353,0.5912335285505125
588,0.0015868857744506353,0.5913250366032211
589,0.0015969612396852424,0.5913250366032211
590,0.0015969612396852424,0.5922401171303074
591,0.0016070367049198498,0.5922401171303074
592,0.0016070367049198498,0.5925146412884333
593,0.0016120744375371532,0.5925146412884333
594,0.0016120744375371532,0.5926976573938506
595,0.001617112170154457,0.5926976573938506
596,0.001617112170154457,0.5929721815519766
597,0.0016221499027717606,0.5929721815519766
598,0.0016221499027717606,0.5934297218155198
599,0.001627187635389064,0.5934297218155198
600,0.001627187635389064,0.593612737920937
601,0.0016322253680063677,0.593612737920937
602,0.0016322253680063677,0.5942532942898975
603,0.0016372631006236712,0.5942532942898975
604,0.0016372631006236712,0.5943448023426061
605,0.0016423008332409749,0.5943448023426061
606,0.0016423008332409749,0.5949853587115667
607,0.0016574140310928857,0.5949853587115667
608,0.0016574140310928857,0.5957174231332357
609,0.0016674894963274929,0.5957174231332357
610,0.0016674894963274929,0.5977306002928258
611,0.0016725272289447965,0.5977306002928258
612,0.0016725272289447965,0.5984626647144948
613,0.0016775649615621002,0.5984626647144948
614,0.0016775649615621002,0.5985541727672035
615,0.001692678159414011,0.5985541727672035
616,0.001692678159414011,0.5996522693997072
617,0.0017027536246486182,0.5996522693997072
618,0.0017027536246486182,0.600201317715959
619,0.0017077913572659217,0.600201317715959
620,0.0017077913572659217,0.6004758418740849
621,0.0017128290898832253,0.6004758418740849
622,0.0017128290898832253,0.6006588579795022
623,0.001717866822500529,0.6006588579795022
624,0.001717866822500529,0.6008418740849195
625,0.0017229045551178325,0.6008418740849195
626,0.0017229045551178325,0.6013909224011713
627,0.0017279422877351362,0.6013909224011713
628,0.0017279422877351362,0.60148243045388
629,0.0017329800203524399,0.60148243045388
630,0.0017329800203524399,0.6021229868228404
631,0.0017480932182043507,0.6021229868228404
632,0.0017480932182043507,0.6025805270863837
633,0.0017581686834389578,0.6025805270863837
634,0.0017581686834389578,0.6029465592972182
635,0.0017632064160562613,0.6029465592972182
636,0.0017632064160562613,0.6030380673499268
637,0.001768244148673565,0.6030380673499268
638,0.001768244148673565,0.6035871156661786
639,0.0017732818812908687,0.6035871156661786
640,0.0017732818812908687,0.6036786237188873
641,0.0017783196139081721,0.6036786237188873
642,0.0017783196139081721,0.6038616398243045
643,0.0017984705443773866,0.6038616398243045
644,0.0017984705443773866,0.6043191800878477
645,0.0018035082769946903,0.6043191800878477
646,0.0018035082769946903,0.6046852122986823
647,0.0018085460096119938,0.6046852122986823
648,0.0018085460096119938,0.6051427525622255
649,0.0018135837422292975,0.6051427525622255
650,0.0018135837422292975,0.6052342606149341
651,0.0018186214748466011,0.6052342606149341
652,0.0018186214748466011,0.6062408491947291
653,0.0018286969400812083,0.6062408491947291
654,0.0018286969400812083,0.6064238653001464
655,0.0018337346726985118,0.6064238653001464
656,0.0018337346726985118,0.6066983894582724
657,0.0018387724053158154,0.6066983894582724
658,0.0018387724053158154,0.6073389458272328
659,0.0018438101379331191,0.6073389458272328
660,0.0018438101379331191,0.6075219619326501
661,0.0018538856031677263,0.6075219619326501
662,0.0018538856031677263,0.6085285505124451
663,0.00185892333578503,0.6085285505124451
664,0.00185892333578503,0.6086200585651538
665,0.0018639610684023334,0.6086200585651538
666,0.0018639610684023334,0.608803074670571
667,0.0018740365336369408,0.608803074670571
668,0.0018740365336369408,0.6088945827232797
669,0.0018790742662542442,0.6088945827232797
670,0.0018790742662542442,0.6090775988286969
671,0.001884111998871548,0.6090775988286969
672,0.001884111998871548,0.6091691068814056
673,0.0018891497314888516,0.6091691068814056
674,0.0018891497314888516,0.6092606149341142
675,0.001894187464106155,0.6092606149341142
676,0.001894187464106155,0.6096266471449487
677,0.0018992251967234587,0.6096266471449487
678,0.0018992251967234587,0.6099011713030746
679,0.0019042629293407622,0.6099011713030746
680,0.0019042629293407622,0.6099926793557833
681,0.001909300661958066,0.6099926793557833
682,0.001909300661958066,0.6105417276720352
683,0.0019143383945753696,0.6105417276720352
684,0.0019143383945753696,0.6112737920937042
685,0.001919376127192673,0.6112737920937042
686,0.001919376127192673,0.6122803806734992
687,0.0019344893250445839,0.6122803806734992
688,0.0019344893250445839,0.6124633967789166
689,0.0019395270576618876,0.6124633967789166
690,0.0019395270576618876,0.613103953147877
691,0.0019445647902791912,0.613103953147877
692,0.0019445647902791912,0.6132869692532943
693,0.001954640255513798,0.6132869692532943
694,0.001954640255513798,0.6135614934114202
695,0.0019647157207484055,0.6135614934114202
696,0.0019647157207484055,0.6140190336749634
697,0.001969753453365709,0.6140190336749634
698,0.001969753453365709,0.614385065885798
699,0.001974791185983013,0.614385065885798
700,0.001974791185983013,0.6151171303074671
701,0.00198486665121762,0.6151171303074671
702,0.00198486665121762,0.6152086383601757
703,0.0019899043838349237,0.6152086383601757
704,0.0019899043838349237,0.615391654465593
705,0.001994942116452227,0.615391654465593
706,0.001994942116452227,0.6155746705710102
707,0.0020050175816868345,0.6155746705710102
708,0.0020050175816868345,0.6157576866764275
709,0.002010055314304138,0.6157576866764275
710,0.002010055314304138,0.6160322108345534
711,0.0020150930469214415,0.6160322108345534
712,0.0020150930469214415,0.6167642752562226
713,0.0020201307795387454,0.6167642752562226
714,0.0020201307795387454,0.6170387994143485
715,0.002025168512156049,0.6170387994143485
716,0.002025168512156049,0.6172218155197657
717,0.0020302062447733523,0.6172218155197657
718,0.0020302062447733523,0.6173133235724744
719,0.002045319442625263,0.6173133235724744
720,0.002045319442625263,0.6179538799414348
721,0.002050357175242567,0.6179538799414348
722,0.002050357175242567,0.6185029282576867
723,0.002060432640477174,0.6185029282576867
724,0.002060432640477174,0.619418008784773
725,0.0020705081057117813,0.619418008784773
726,0.0020705081057117813,0.6197840409956076
727,0.002075545838329085,0.6197840409956076
728,0.002075545838329085,0.6199670571010248
729,0.0020906590361809956,0.6199670571010248
730,0.0020906590361809956,0.6206076134699854
731,0.002095696768798299,0.6206076134699854
732,0.002095696768798299,0.6208821376281113
733,0.002100734501415603,0.6208821376281113
734,0.002100734501415603,0.6210651537335286
735,0.0021057722340329064,0.6210651537335286
736,0.0021057722340329064,0.6217972181551976
737,0.00211080996665021,0.6217972181551976
738,0.00211080996665021,0.6218887262079063
739,0.002115847699267514,0.6218887262079063
740,0.002115847699267514,0.6233528550512445
741,0.0021208854318848173,0.6233528550512445
742,0.0021208854318848173,0.6235358711566618
743,0.0021259231645021207,0.6235358711566618
744,0.0021259231645021207,0.6238103953147877
745,0.0021309608971194246,0.6238103953147877
746,0.0021309608971194246,0.6244509516837482
747,0.002135998629736728,0.6244509516837482
748,0.002135998629736728,0.6248169838945827
749,0.0021410363623540316,0.6248169838945827
750,0.0021410363623540316,0.6249084919472914
751,0.0021460740949713355,0.6249084919472914
752,0.0021460740949713355,0.625
753,0.002151111827588639,0.625
754,0.002151111827588639,0.6250915080527086
755,0.0021561495602059424,0.6250915080527086
756,0.0021561495602059424,0.6251830161054173
757,0.0021611872928232463,0.6251830161054173
758,0.0021611872928232463,0.6255490483162518
759,0.0021662250254405498,0.6255490483162518
760,0.0021662250254405498,0.6258235724743777
761,0.002176300490675157,0.6258235724743777
762,0.002176300490675157,0.6260980966325037
763,0.0021813382232924606,0.6260980966325037
764,0.0021813382232924606,0.6268301610541728
765,0.002186375955909764,0.6268301610541728
766,0.002186375955909764,0.6271046852122987
767,0.002191413688527068,0.6271046852122987
768,0.002191413688527068,0.6272877013177159
769,0.0021964514211443714,0.6272877013177159
770,0.0021964514211443714,0.6274707174231332
771,0.002201489153761675,0.6274707174231332
772,0.002201489153761675,0.628294289897511
773,0.0022065268863789783,0.628294289897511
774,0.0022065268863789783,0.6292093704245973
775,0.0022115646189962822,0.6292093704245973
776,0.0022115646189962822,0.6294838945827232
777,0.0022166023516135857,0.6294838945827232
778,0.0022166023516135857,0.6303074670571011
779,0.002221640084230889,0.6303074670571011
780,0.002221640084230889,0.6303989751098097
781,0.002226677816848193,0.6303989751098097
782,0.002226677816848193,0.6304904831625183
783,0.0022317155494654965,0.6304904831625183
784,0.0022317155494654965,0.6306734992679356
785,0.002241791014700104,0.6306734992679356
786,0.002241791014700104,0.6309480234260615
787,0.002251866479934711,0.6309480234260615
788,0.002251866479934711,0.6310395314787701
789,0.002261941945169318,0.6310395314787701
790,0.002261941945169318,0.6311310395314788
791,0.0022720174104039256,0.6311310395314788
792,0.0022720174104039256,0.6319546120058566
793,0.002277055143021229,0.6319546120058566
794,0.002277055143021229,0.6324121522693997
795,0.0022820928756385325,0.6324121522693997
796,0.0022820928756385325,0.6331442166910688
797,0.0022871306082558364,0.6331442166910688
798,0.0022871306082558364,0.6341508052708639
799,0.00229216834087314,0.6341508052708639
800,0.00229216834087314,0.6342423133235725
801,0.0022972060734904433,0.6342423133235725
802,0.0022972060734904433,0.6347913616398243
803,0.0023022438061077472,0.6347913616398243
804,0.0023022438061077472,0.6350658857979502
805,0.0023072815387250507,0.6350658857979502
806,0.0023072815387250507,0.6353404099560761
807,0.002312319271342354,0.6353404099560761
808,0.002312319271342354,0.635614934114202
809,0.002317357003959658,0.635614934114202
810,0.002317357003959658,0.6357979502196194
811,0.0023223947365769615,0.6357979502196194
812,0.0023223947365769615,0.635889458272328
813,0.0023324702018115684,0.635889458272328
814,0.0023324702018115684,0.6362554904831625
815,0.002342545667046176,0.6362554904831625
816,0.002342545667046176,0.6365300146412884
817,0.0023475833996634793,0.6365300146412884
818,0.0023475833996634793,0.6368045387994143
819,0.00236269659751539,0.6368045387994143
820,0.00236269659751539,0.636896046852123
821,0.002367734330132694,0.636896046852123
822,0.002367734330132694,0.6371705710102489
823,0.0023727720627499975,0.6371705710102489
824,0.0023727720627499975,0.6373535871156661
825,0.002377809795367301,0.6373535871156661
826,0.002377809795367301,0.637628111273792
827,0.0023929229932192118,0.637628111273792
828,0.0023929229932192118,0.637902635431918
829,0.0024130739236884265,0.637902635431918
830,0.0024130739236884265,0.638177159590044
831,0.00241811165630573,0.638177159590044
832,0.00241811165630573,0.6384516837481699
833,0.0024231493889230334,0.6384516837481699
834,0.0024231493889230334,0.6390007320644217
835,0.0024281871215403373,0.6390007320644217
836,0.0024281871215403373,0.6394582723279648
837,0.0024332248541576408,0.6394582723279648
838,0.0024332248541576408,0.6397327964860908
839,0.0024382625867749442,0.6397327964860908
840,0.0024382625867749442,0.6398243045387995
841,0.0024483380520095516,0.6398243045387995
842,0.0024483380520095516,0.6400073206442167
843,0.002453375784626855,0.6400073206442167
844,0.002453375784626855,0.6400988286969254
845,0.0024634512498614624,0.6400988286969254
846,0.0024634512498614624,0.640190336749634
847,0.002468488982478766,0.640190336749634
848,0.002468488982478766,0.6402818448023426
849,0.0024735267150960694,0.6402818448023426
850,0.0024735267150960694,0.6405563689604685
851,0.0024785644477133733,0.6405563689604685
852,0.0024785644477133733,0.6416544655929722
853,0.0024836021803306767,0.6416544655929722
854,0.0024836021803306767,0.6418374816983895
855,0.00248863991294798,0.6418374816983895
856,0.00248863991294798,0.6419289897510981
857,0.002493677645565284,0.6419289897510981
858,0.002493677645565284,0.6424780380673499
859,0.0024987153781825876,0.6424780380673499
860,0.0024987153781825876,0.6433931185944363
861,0.002503753110799891,0.6433931185944363
862,0.002503753110799891,0.6436676427525623
863,0.002508790843417195,0.6436676427525623
864,0.002508790843417195,0.6438506588579795
865,0.0025138285760344984,0.6438506588579795
866,0.0025138285760344984,0.6439421669106882
867,0.002518866308651802,0.6439421669106882
868,0.002518866308651802,0.6441251830161054
869,0.002528941773886409,0.6441251830161054
870,0.002528941773886409,0.6443081991215227
871,0.0025339795065037127,0.6443081991215227
872,0.0025339795065037127,0.6445827232796486
873,0.00254405497173832,0.6445827232796486
874,0.00254405497173832,0.6446742313323572
875,0.0025541304369729274,0.6446742313323572
876,0.0025541304369729274,0.6448572474377745
877,0.002559168169590231,0.6448572474377745
878,0.002559168169590231,0.6449487554904831
879,0.0025642059022075343,0.6449487554904831
880,0.0025642059022075343,0.645223279648609
881,0.0025692436348248382,0.645223279648609
882,0.0025692436348248382,0.6454062957540263
883,0.0025742813674421417,0.6454062957540263
884,0.0025742813674421417,0.6455893118594437
885,0.002584356832676749,0.6455893118594437
886,0.002584356832676749,0.645772327964861
887,0.0025893945652940525,0.645772327964861
888,0.0025893945652940525,0.6458638360175696
889,0.002594432297911356,0.6458638360175696
890,0.002594432297911356,0.6462298682284041
891,0.0026045077631459634,0.6462298682284041
892,0.0026045077631459634,0.6466874084919473
893,0.002609545495763267,0.6466874084919473
894,0.002609545495763267,0.6467789165446559
895,0.0026145832283805703,0.6467789165446559
896,0.0026145832283805703,0.6472364568081991
897,0.002629696426232481,0.6472364568081991
898,0.002629696426232481,0.6479685212298683
899,0.002634734158849785,0.6479685212298683
900,0.002634734158849785,0.6493411420204978
901,0.0026397718914670885,0.6493411420204978
902,0.0026397718914670885,0.6495241581259151
903,0.002644809624084392,0.6495241581259151
904,0.002644809624084392,0.6500732064421669
905,0.0026599228219363028,0.6500732064421669
906,0.0026599228219363028,0.6504392386530015
907,0.0026649605545536067,0.6504392386530015
908,0.0026649605545536067,0.6508967789165446
909,0.00266999828717091,0.6508967789165446
910,0.00266999828717091,0.6511713030746705
911,0.0026750360197882136,0.6511713030746705
912,0.0026750360197882136,0.6512628111273792
913,0.002685111485022821,0.6512628111273792
914,0.002685111485022821,0.6519033674963397
915,0.0026901492176401244,0.6519033674963397
916,0.0026901492176401244,0.6523609077598829
917,0.0027052624154920353,0.6523609077598829
918,0.0027052624154920353,0.6525439238653001
919,0.002720375613343946,0.6525439238653001
920,0.002720375613343946,0.6526354319180088
921,0.0027254133459612495,0.6526354319180088
922,0.0027254133459612495,0.6530929721815519
923,0.0027304510785785534,0.6530929721815519
924,0.0027304510785785534,0.6532759882869692
925,0.0027405265438131604,0.6532759882869692
926,0.0027405265438131604,0.6536420204978038
927,0.0027506020090477677,0.6536420204978038
928,0.0027506020090477677,0.6538250366032211
929,0.002755639741665071,0.6538250366032211
930,0.002755639741665071,0.654099560761347
931,0.0027657152068996786,0.654099560761347
932,0.0027657152068996786,0.6541910688140556
933,0.002770752939516982,0.6541910688140556
934,0.002770752939516982,0.6543740849194729
935,0.002775790672134286,0.6543740849194729
936,0.002775790672134286,0.6544655929721815
937,0.002785866137368893,0.6544655929721815
938,0.002785866137368893,0.6546486090775988
939,0.0027909038699861968,0.6546486090775988
940,0.0027909038699861968,0.6550146412884333
941,0.0027959416026035002,0.6550146412884333
942,0.0027959416026035002,0.655106149341142
943,0.0028009793352208037,0.655106149341142
944,0.0028009793352208037,0.655380673499268
945,0.002811054800455411,0.655380673499268
946,0.002811054800455411,0.6560212298682284
947,0.0028160925330727145,0.6560212298682284
948,0.0028160925330727145,0.656112737920937
949,0.002826167998307322,0.656112737920937
950,0.002826167998307322,0.6564787701317716
951,0.0028412811961592327,0.6564787701317716
952,0.0028412811961592327,0.6569363103953147
953,0.002846318928776536,0.6569363103953147
954,0.002846318928776536,0.657393850658858
955,0.002861432126628447,0.657393850658858
956,0.002861432126628447,0.6580344070278185
957,0.0028715075918630544,0.6580344070278185
958,0.0028715075918630544,0.6582174231332357
959,0.002886620789714965,0.6582174231332357
960,0.002886620789714965,0.6583089311859444
961,0.002896696254949572,0.6583089311859444
962,0.002896696254949572,0.6585834553440703
963,0.0029067717201841795,0.6585834553440703
964,0.0029067717201841795,0.6589494875549048
965,0.002911809452801483,0.6589494875549048
966,0.002911809452801483,0.6590409956076134
967,0.002916847185418787,0.6590409956076134
968,0.002916847185418787,0.6594070278184481
969,0.0029218849180360903,0.6594070278184481
970,0.0029218849180360903,0.6597730600292826
971,0.0029269226506533938,0.6597730600292826
972,0.0029269226506533938,0.6598645680819912
973,0.0029319603832706977,0.6598645680819912
974,0.0029319603832706977,0.6614202049780381
975,0.002936998115888001,0.6614202049780381
976,0.002936998115888001,0.6617862371888726
977,0.0029420358485053046,0.6617862371888726
978,0.0029420358485053046,0.6620607613469985
979,0.0029470735811226085,0.6620607613469985
980,0.0029470735811226085,0.6625183016105417
981,0.0029571490463572154,0.6625183016105417
982,0.0029571490463572154,0.6627928257686676
983,0.002967224511591823,0.6627928257686676
984,0.002967224511591823,0.6628843338213762
985,0.0029722622442091263,0.6628843338213762
986,0.0029722622442091263,0.6629758418740849
987,0.00297729997682643,0.6629758418740849
988,0.00297729997682643,0.6637994143484627
989,0.0029823377094437336,0.6637994143484627
990,0.0029823377094437336,0.6640739385065886
991,0.002987375442061037,0.6640739385065886
992,0.002987375442061037,0.6642569546120058
993,0.0029924131746783406,0.6642569546120058
994,0.0029924131746783406,0.6643484626647145
995,0.003002488639912948,0.6643484626647145
996,0.003002488639912948,0.6644399707174231
997,0.0030176018377648588,0.6644399707174231
998,0.0030176018377648588,0.6648060029282576
999,0.003022639570382162,0.6648060029282576
1000,0.003022639570382162,0.6648975109809663
1001,0.003027677302999466,0.6648975109809663
1002,0.003027677302999466,0.6649890190336749
1003,0.003037752768234073,0.6649890190336749
1004,0.003037752768234073,0.6650805270863837
1005,0.003042790500851377,0.6650805270863837
1006,0.003042790500851377,0.6651720351390923
1007,0.0030579036987032878,0.6651720351390923
1008,0.0030579036987032878,0.6652635431918009
1009,0.003093167827024413,0.6652635431918009
1010,0.003093167827024413,0.6655380673499268
1011,0.003113318757493627,0.6655380673499268
1012,0.003113318757493627,0.6656295754026355
1013,0.003118356490110931,0.6656295754026355
1014,0.003118356490110931,0.66599560761347
1015,0.0031233942227282346,0.66599560761347
1016,0.0031233942227282346,0.6660871156661786
1017,0.003128431955345538,0.6660871156661786
1018,0.003128431955345538,0.6662701317715959
1019,0.0031385074205801454,0.6662701317715959
1020,0.0031385074205801454,0.6664531478770132
1021,0.003143545153197449,0.6664531478770132
1022,0.003143545153197449,0.6670021961932651
1023,0.0031485828858147523,0.6670021961932651
1024,0.0031485828858147523,0.6670937042459737
1025,0.003153620618432056,0.6670937042459737
1026,0.003153620618432056,0.6673682284040996
1027,0.0031586583510493597,0.6673682284040996
1028,0.0031586583510493597,0.6683748169838946
1029,0.003163696083666663,0.6683748169838946
1030,0.003163696083666663,0.6684663250366032
1031,0.003168733816283967,0.6684663250366032
1032,0.003168733816283967,0.6689238653001464
1033,0.0031737715489012705,0.6689238653001464
1034,0.0031737715489012705,0.669289897510981
1035,0.003178809281518574,0.669289897510981
1036,0.003178809281518574,0.6698389458272328
1037,0.003183847014135878,0.6698389458272328
1038,0.003183847014135878,0.6700219619326501
1039,0.003193922479370485,0.6700219619326501
1040,0.003193922479370485,0.6704795021961932
1041,0.0031989602119877887,0.6704795021961932
1042,0.0031989602119877887,0.6705710102489019
1043,0.003203997944605092,0.6705710102489019
1044,0.003203997944605092,0.6706625183016105
1045,0.0032140734098396995,0.6706625183016105
1046,0.0032140734098396995,0.6708455344070278
1047,0.003219111142457003,0.6708455344070278
1048,0.003219111142457003,0.6709370424597365
1049,0.0032241488750743065,0.6709370424597365
1050,0.0032241488750743065,0.6712115666178624
1051,0.0032291866076916103,0.6712115666178624
1052,0.0032291866076916103,0.671303074670571
1053,0.003234224340308914,0.671303074670571
1054,0.003234224340308914,0.6714860907759883
1055,0.0032392620729262173,0.6714860907759883
1056,0.0032392620729262173,0.6715775988286969
1057,0.003244299805543521,0.6715775988286969
1058,0.003244299805543521,0.672309663250366
1059,0.0032493375381608246,0.672309663250366
1060,0.0032493375381608246,0.6724011713030746
1061,0.0032594130033954316,0.6724011713030746
1062,0.0032594130033954316,0.6725841874084919
1063,0.0032745262012473424,0.6725841874084919
1064,0.0032745262012473424,0.6726756954612005
1065,0.0032795639338646463,0.6726756954612005
1066,0.0032795639338646463,0.6729502196193266
1067,0.0032846016664819498,0.6729502196193266
1068,0.0032846016664819498,0.6730417276720352
1069,0.0032896393990992532,0.6730417276720352
1070,0.0032896393990992532,0.6734077598828697
1071,0.003294677131716557,0.6734077598828697
1072,0.003294677131716557,0.673590775988287
1073,0.0032997148643338606,0.673590775988287
1074,0.0032997148643338606,0.6737737920937042
1075,0.003324903527420379,0.6737737920937042
1076,0.003324903527420379,0.6740483162518301
1077,0.0033299412600376822,0.6740483162518301
1078,0.0033299412600376822,0.6742313323572474
1079,0.0033400167252722896,0.6742313323572474
1080,0.0033400167252722896,0.674597364568082
1081,0.0033500921905068965,0.674597364568082
1082,0.0033500921905068965,0.6750549048316252
1083,0.0033551299231242004,0.6750549048316252
1084,0.0033551299231242004,0.6751464128843339
1085,0.0033652053883588074,0.6751464128843339
1086,0.0033652053883588074,0.6758784773060029
1087,0.0033702431209761113,0.6758784773060029
1088,0.0033702431209761113,0.6760614934114202
1089,0.003380318586210718,0.6760614934114202
1090,0.003380318586210718,0.6761530014641288
1091,0.003385356318828022,0.6761530014641288
1092,0.003385356318828022,0.6764275256222547
1093,0.0033903940514453256,0.6764275256222547
1094,0.0033903940514453256,0.6765190336749634
1095,0.003395431784062629,0.6765190336749634
1096,0.003395431784062629,0.6767935578330894
1097,0.0034004695166799325,0.6767935578330894
1098,0.0034004695166799325,0.6771595900439239
1099,0.0034206204471491472,0.6771595900439239
1100,0.0034206204471491472,0.6775256222547584
1101,0.003430695912383754,0.6775256222547584
1102,0.003430695912383754,0.6776171303074671
1103,0.0034407713776183615,0.6776171303074671
1104,0.0034407713776183615,0.6783491947291361
1105,0.003445809110235665,0.6783491947291361
1106,0.003445809110235665,0.6787152269399708
1107,0.003450846842852969,0.6787152269399708
1108,0.003450846842852969,0.678898243045388
1109,0.0034558845754702723,0.678898243045388
1110,0.0034558845754702723,0.6789897510980967
1111,0.003460922308087576,0.6789897510980967
1112,0.003460922308087576,0.6793557833089312
1113,0.003470997773322183,0.6793557833089312
1114,0.003470997773322183,0.6808199121522694
1115,0.003486110971174094,0.6808199121522694
1116,0.003486110971174094,0.6810029282576867
1117,0.0034911487037913975,0.6810029282576867
1118,0.0034911487037913975,0.6812774524158126
1119,0.003501224169026005,0.6812774524158126
1120,0.003501224169026005,0.6814604685212299
1121,0.0035062619016433083,0.6814604685212299
1122,0.0035062619016433083,0.6816434846266471
1123,0.003511299634260612,0.6816434846266471
1124,0.003511299634260612,0.6828330893118595
1125,0.003521375099495219,0.6828330893118595
1126,0.003521375099495219,0.6832906295754027
1127,0.0035314505647298265,0.6832906295754027
1128,0.0035314505647298265,0.6833821376281113
1129,0.0035415260299644334,0.6833821376281113
1130,0.0035415260299644334,0.6838396778916545
1131,0.0035465637625817373,0.6838396778916545
1132,0.0035465637625817373,0.6840226939970717
1133,0.0035516014951990408,0.6840226939970717
1134,0.0035516014951990408,0.6841142020497804
1135,0.003561676960433648,0.6841142020497804
1136,0.003561676960433648,0.684205710102489
1137,0.0035818278909028624,0.684205710102489
1138,0.0035818278909028624,0.6844802342606149
1139,0.0035969410887547733,0.6844802342606149
1140,0.0035969410887547733,0.6847547584187409
1141,0.0036019788213720767,0.6847547584187409
1142,0.0036019788213720767,0.6848462664714495
1143,0.0036221297518412915,0.6848462664714495
1144,0.0036221297518412915,0.6849377745241582
1145,0.003627167484458595,0.6849377745241582
1146,0.003627167484458595,0.6856698389458272
1147,0.0036322052170758984,0.6856698389458272
1148,0.0036322052170758984,0.6859443631039531
1149,0.0036372429496932023,0.6859443631039531
1150,0.0036372429496932023,0.6865849194729137
1151,0.003652356147545113,0.6865849194729137
1152,0.003652356147545113,0.6868594436310396
1153,0.0036573938801624166,0.6868594436310396
1154,0.0036573938801624166,0.6869509516837482
1155,0.00366243161277972,0.6869509516837482
1156,0.00366243161277972,0.6870424597364568
1157,0.0036674693453970235,0.6870424597364568
1158,0.0036674693453970235,0.6872254758418741
1159,0.0036725070780143274,0.6872254758418741
1160,0.0036725070780143274,0.6873169838945827
1161,0.003677544810631631,0.6873169838945827
1162,0.003677544810631631,0.6874084919472914
1163,0.0036825825432489343,0.6874084919472914
1164,0.0036825825432489343,0.6875915080527086
1165,0.0036876202758662382,0.6875915080527086
1166,0.0036876202758662382,0.6879575402635432
1167,0.0036926580084835417,0.6879575402635432
1168,0.0036926580084835417,0.6883235724743777
1169,0.003697695741100845,0.6883235724743777
1170,0.003697695741100845,0.6885980966325037
1171,0.003702733473718149,0.6885980966325037
1172,0.003702733473718149,0.6886896046852123
1173,0.003712808938952756,0.6886896046852123
1174,0.003712808938952756,0.688781112737921
1175,0.00371784667157006,0.688781112737921
1176,0.00371784667157006,0.6888726207906296
1177,0.0037329598694219707,0.6888726207906296
1178,0.0037329598694219707,0.6889641288433382
1179,0.0037430353346565776,0.6889641288433382
1180,0.0037430353346565776,0.6890556368960469
1181,0.003753110799891185,0.6890556368960469
1182,0.003753110799891185,0.6891471449487555
1183,0.003768223997743096,0.6891471449487555
1184,0.003768223997743096,0.6892386530014641
1185,0.0037732617303603993,0.6892386530014641
1186,0.0037732617303603993,0.68951317715959
1187,0.003778299462977703,0.68951317715959
1188,0.003778299462977703,0.6896046852122987
1189,0.00378837492821231,0.6896046852122987
1190,0.00378837492821231,0.6896961932650073
1191,0.0037934126608296136,0.6896961932650073
1192,0.0037934126608296136,0.6897877013177159
1193,0.003803488126064221,0.6897877013177159
1194,0.003803488126064221,0.6898792093704246
1195,0.0038085258586815244,0.6898792093704246
1196,0.0038085258586815244,0.6899707174231332
1197,0.0038236390565334353,0.6899707174231332
1198,0.0038236390565334353,0.6900622254758418
1199,0.003828676789150739,0.6900622254758418
1200,0.003828676789150739,0.6903367496339677
1201,0.003838752254385346,0.6903367496339677
1202,0.003838752254385346,0.6904282576866764
1203,0.003858903184854561,0.6904282576866764
1204,0.003858903184854561,0.690794289897511
1205,0.0038639409174718643,0.690794289897511
1206,0.0038639409174718643,0.6913433382137628
1207,0.0038689786500891677,0.6913433382137628
1208,0.0038689786500891677,0.6915263543191801
1209,0.0038740163827064716,0.6915263543191801
1210,0.0038740163827064716,0.6920754026354319
1211,0.0038840918479410786,0.6920754026354319
1212,0.0038840918479410786,0.693081991215227
1213,0.003909280511027596,0.693081991215227
1214,0.003909280511027596,0.6935395314787701
1215,0.0039143182436449,0.6935395314787701
1216,0.0039143182436449,0.6936310395314788
1217,0.003919355976262204,0.6936310395314788
1218,0.003919355976262204,0.6941800878477306
1219,0.003924393708879507,0.6941800878477306
1220,0.003924393708879507,0.6942715959004392
1221,0.003929431441496811,0.6942715959004392
1222,0.003929431441496811,0.6944546120058566
1223,0.003934469174114115,0.6944546120058566
1224,0.003934469174114115,0.6945461200585652
1225,0.003939506906731418,0.6945461200585652
1226,0.003939506906731418,0.6946376281112738
1227,0.003944544639348722,0.6946376281112738
1228,0.003944544639348722,0.6950036603221084
1229,0.003949582371966026,0.6950036603221084
1230,0.003949582371966026,0.695095168374817
1231,0.003954620104583329,0.695095168374817
1232,0.003954620104583329,0.6956442166910688
1233,0.003959657837200633,0.6956442166910688
1234,0.003959657837200633,0.6957357247437774
1235,0.003964695569817937,0.6957357247437774
1236,0.003964695569817937,0.696101756954612
1237,0.0039747710350525435,0.696101756954612
1238,0.0039747710350525435,0.6961932650073206
1239,0.0039798087676698474,0.6961932650073206
1240,0.0039798087676698474,0.696376281112738
1241,0.0039848465002871505,0.696376281112738
1242,0.0039848465002871505,0.6964677891654466
1243,0.003999959698139061,0.6964677891654466
1244,0.003999959698139061,0.6965592972181552
1245,0.004010035163373669,0.6965592972181552
1246,0.004010035163373669,0.6969253294289898
1247,0.004015072895990972,0.6969253294289898
1248,0.004015072895990972,0.6970168374816984
1249,0.00402514836122558,0.6970168374816984
1250,0.00402514836122558,0.6971998535871157
1251,0.004030186093842883,0.6971998535871157
1252,0.004030186093842883,0.6977489019033675
1253,0.004040261559077491,0.6977489019033675
1254,0.004040261559077491,0.6978404099560761
1255,0.004045299291694794,0.6978404099560761
1256,0.004045299291694794,0.698114934114202
1257,0.004050337024312098,0.698114934114202
1258,0.004050337024312098,0.6982064421669106
1259,0.004055374756929402,0.6982064421669106
1260,0.004055374756929402,0.6982979502196194
1261,0.004060412489546705,0.6982979502196194
1262,0.004060412489546705,0.6984809663250366
1263,0.004070487954781312,0.6984809663250366
1264,0.004070487954781312,0.6985724743777453
1265,0.0040755256873986154,0.6985724743777453
1266,0.0040755256873986154,0.6989385065885798
1267,0.004105752083102437,0.6989385065885798
1268,0.004105752083102437,0.6990300146412884
1269,0.004110789815719741,0.6990300146412884
1270,0.004110789815719741,0.6991215226939971
1271,0.004115827548337045,0.6991215226939971
1272,0.004115827548337045,0.6992130307467057
1273,0.004125903013571652,0.6992130307467057
1274,0.004125903013571652,0.6994875549048316
1275,0.004135978478806259,0.6994875549048316
1276,0.004135978478806259,0.6995790629575402
1277,0.0041561294092754735,0.6995790629575402
1278,0.0041561294092754735,0.6996705710102489
1279,0.0041611671418927765,0.6996705710102489
1280,0.0041611671418927765,0.6998535871156661
1281,0.00416620487451008,0.6998535871156661
1282,0.00416620487451008,0.700128111273792
1283,0.004171242607127384,0.700128111273792
1284,0.004171242607127384,0.7002196193265008
1285,0.004186355804979295,0.7002196193265008
1286,0.004186355804979295,0.7003111273792094
1287,0.004191393537596598,0.7003111273792094
1288,0.004191393537596598,0.7004941434846267
1289,0.004196431270213902,0.7004941434846267
1290,0.004196431270213902,0.700677159590044
1291,0.004216582200683117,0.700677159590044
1292,0.004216582200683117,0.7007686676427526
1293,0.00422161993330042,0.7007686676427526
1294,0.00422161993330042,0.7009516837481699
1295,0.004236733131152331,0.7009516837481699
1296,0.004236733131152331,0.7010431918008785
1297,0.0042417708637696346,0.7010431918008785
1298,0.0042417708637696346,0.7011346998535871
1299,0.0042468085963869385,0.7011346998535871
1300,0.0042468085963869385,0.701409224011713
1301,0.0042518463290042415,0.701409224011713
1302,0.0042518463290042415,0.7015007320644217
1303,0.004261921794238849,0.7015007320644217
1304,0.004261921794238849,0.7016837481698389
1305,0.004266959526856152,0.7016837481698389
1306,0.004266959526856152,0.7017752562225475
1307,0.004282072724708063,0.7017752562225475
1308,0.004282072724708063,0.7027818448023426
1309,0.004312299120411885,0.7027818448023426
1310,0.004312299120411885,0.7030563689604685
1311,0.004322374585646493,0.7030563689604685
1312,0.004322374585646493,0.7032393850658858
1313,0.004327412318263796,0.7032393850658858
1314,0.004327412318263796,0.7036054172767203
1315,0.00434756324873301,0.7036054172767203
1316,0.00434756324873301,0.7038799414348462
1317,0.004352600981350314,0.7038799414348462
1318,0.004352600981350314,0.7040629575402635
1319,0.004357638713967617,0.7040629575402635
1320,0.004357638713967617,0.7041544655929722
1321,0.004367714179202225,0.7041544655929722
1322,0.004367714179202225,0.7042459736456809
1323,0.004372751911819528,0.7042459736456809
1324,0.004372751911819528,0.7044289897510981
1325,0.004377789644436832,0.7044289897510981
1326,0.004377789644436832,0.7049780380673499
1327,0.004382827377054136,0.7049780380673499
1328,0.004382827377054136,0.7058016105417276
1329,0.004387865109671439,0.7058016105417276
1330,0.004387865109671439,0.7061676427525623
1331,0.004392902842288743,0.7061676427525623
1332,0.004392902842288743,0.7064421669106882
1333,0.004397940574906046,0.7064421669106882
1334,0.004397940574906046,0.7068081991215227
1335,0.004413053772757957,0.7068081991215227
1336,0.004413053772757957,0.7068997071742313
1337,0.0044231292379925645,0.7068997071742313
1338,0.0044231292379925645,0.70699121522694
1339,0.004433204703227171,0.70699121522694
1340,0.004433204703227171,0.7070827232796486
1341,0.004443280168461778,0.7070827232796486
1342,0.004443280168461778,0.7073572474377745
1343,0.004448317901079082,0.7073572474377745
1344,0.004448317901079082,0.7075402635431918
1345,0.004468468831548297,0.7075402635431918
1346,0.004468468831548297,0.7079978038067349
1347,0.0044735065641656,0.7079978038067349
1348,0.0044735065641656,0.7080893118594437
1349,0.004478544296782904,0.7080893118594437
1350,0.004478544296782904,0.7081808199121523
1351,0.004483582029400208,0.7081808199121523
1352,0.004483582029400208,0.7083638360175696
1353,0.004488619762017511,0.7083638360175696
1354,0.004488619762017511,0.7084553440702782
1355,0.004503732959869422,0.7084553440702782
1356,0.004503732959869422,0.7087298682284041
1357,0.0045087706924867256,0.7087298682284041
1358,0.0045087706924867256,0.70900439238653
1359,0.004523883890338636,0.70900439238653
1360,0.004523883890338636,0.7091874084919473
1361,0.004549072553425154,0.7091874084919473
1362,0.004549072553425154,0.7093704245973645
1363,0.004559148018659762,0.7093704245973645
1364,0.004559148018659762,0.7096449487554904
1365,0.004564185751277065,0.7096449487554904
1366,0.004564185751277065,0.7097364568081991
1367,0.004569223483894369,0.7097364568081991
1368,0.004569223483894369,0.7100109809663251
1369,0.004574261216511673,0.7100109809663251
1370,0.004574261216511673,0.7103770131771596
1371,0.004579298949128976,0.7103770131771596
1372,0.004579298949128976,0.7104685212298683
1373,0.004589374414363584,0.7104685212298683
1374,0.004589374414363584,0.7105600292825769
1375,0.004594412146980887,0.7105600292825769
1376,0.004594412146980887,0.7107430453879942
1377,0.0045994498795981905,0.7107430453879942
1378,0.0045994498795981905,0.7109260614934114
1379,0.0046044876122154944,0.7109260614934114
1380,0.0046044876122154944,0.71101756954612
1381,0.0046095253448327975,0.71101756954612
1382,0.0046095253448327975,0.7115666178623719
1383,0.004624638542684708,0.7115666178623719
1384,0.004624638542684708,0.7116581259150805
1385,0.004634714007919316,0.7116581259150805
1386,0.004634714007919316,0.7117496339677891
1387,0.004639751740536619,0.7117496339677891
1388,0.004639751740536619,0.7120241581259151
1389,0.00465486493838853,0.7120241581259151
1390,0.00465486493838853,0.7122071742313324
1391,0.004664940403623137,0.7122071742313324
1392,0.004664940403623137,0.7127562225475842
1393,0.004675015868857745,0.7127562225475842
1394,0.004675015868857745,0.7129392386530015
1395,0.004680053601475048,0.7129392386530015
1396,0.004680053601475048,0.7130307467057101
1397,0.004685091334092352,0.7130307467057101
1398,0.004685091334092352,0.7132137628111274
1399,0.0046951667993269585,0.7132137628111274
1400,0.0046951667993269585,0.713305270863836
1401,0.0047002045319442624,0.713305270863836
1402,0.0047002045319442624,0.7134882869692533
1403,0.004705242264561566,0.7134882869692533
1404,0.004705242264561566,0.7139458272327965
1405,0.004710279997178869,0.7139458272327965
1406,0.004710279997178869,0.7140373352855052
1407,0.00472539319503078,0.7140373352855052
1408,0.00472539319503078,0.7143118594436311
1409,0.004730430927648084,0.7143118594436311
1410,0.004730430927648084,0.7151354319180088
1411,0.004735468660265388,0.7151354319180088
1412,0.004735468660265388,0.7152269399707174
1413,0.004750581858117299,0.7152269399707174
1414,0.004750581858117299,0.7157759882869692
1415,0.00476569505596921,0.7157759882869692
1416,0.00476569505596921,0.7158674963396779
1417,0.004770732788586513,0.7158674963396779
1418,0.004770732788586513,0.7159590043923866
1419,0.004775770521203817,0.7159590043923866
1420,0.004775770521203817,0.7161420204978038
1421,0.0047808082538211205,0.7161420204978038
1422,0.0047808082538211205,0.7165080527086384
1423,0.004795921451673031,0.7165080527086384
1424,0.004795921451673031,0.716599560761347
1425,0.004811034649524942,0.716599560761347
1426,0.004811034649524942,0.7167825768667643
1427,0.004816072382142245,0.7167825768667643
1428,0.004816072382142245,0.7170571010248902
1429,0.004821110114759549,0.7170571010248902
1430,0.004821110114759549,0.7172401171303074
1431,0.004826147847376853,0.7172401171303074
1432,0.004826147847376853,0.7174231332357247
1433,0.00483622331261146,0.7174231332357247
1434,0.00483622331261146,0.7175146412884333
1435,0.004851336510463371,0.7175146412884333
1436,0.004851336510463371,0.717606149341142
1437,0.004856374243080675,0.717606149341142
1438,0.004856374243080675,0.7177891654465594
1439,0.004881562906167192,0.7177891654465594
1440,0.004881562906167192,0.7179721815519766
1441,0.004886600638784496,0.7179721815519766
1442,0.004886600638784496,0.7180636896046853
1443,0.004891638371401799,0.7180636896046853
1444,0.004891638371401799,0.7182467057101025
1445,0.004896676104019103,0.7182467057101025
1446,0.004896676104019103,0.7183382137628112
1447,0.00490675156925371,0.7183382137628112
1448,0.00490675156925371,0.718887262079063
1449,0.004931940232340228,0.718887262079063
1450,0.004931940232340228,0.7189787701317716
1451,0.004936977964957532,0.7189787701317716
1452,0.004936977964957532,0.7190702781844802
1453,0.004942015697574836,0.7190702781844802
1454,0.004942015697574836,0.7192532942898975
1455,0.004947053430192139,0.7192532942898975
1456,0.004947053430192139,0.7193448023426061
1457,0.0049571288954267465,0.7193448023426061
1458,0.0049571288954267465,0.719619326500732
1459,0.0049621666280440496,0.719619326500732
1460,0.0049621666280440496,0.7197108345534406
1461,0.005012543954217086,0.7197108345534406
1462,0.005012543954217086,0.7199853587115667
1463,0.00501758168683439,0.7199853587115667
1464,0.00501758168683439,0.7201683748169839
1465,0.005022619419451693,0.7201683748169839
1466,0.005022619419451693,0.7202598828696926
1467,0.005037732617303604,0.7202598828696926
1468,0.005037732617303604,0.7204428989751098
1469,0.0050478080825382115,0.7204428989751098
1470,0.0050478080825382115,0.7205344070278185
1471,0.0050528458151555145,0.7205344070278185
1472,0.0050528458151555145,0.7207174231332357
1473,0.005057883547772818,0.7207174231332357
1474,0.005057883547772818,0.720900439238653
1475,0.005062921280390122,0.720900439238653
1476,0.005062921280390122,0.7213579795021962
1477,0.005072996745624729,0.7213579795021962
1478,0.005072996745624729,0.7216325036603221
1479,0.005078034478242033,0.7216325036603221
1480,0.005078034478242033,0.7217240117130308
1481,0.005083072210859336,0.7217240117130308
1482,0.005083072210859336,0.7218155197657394
1483,0.00508810994347664,0.7218155197657394
1484,0.00508810994347664,0.7219070278184481
1485,0.005108260873945855,0.7219070278184481
1486,0.005108260873945855,0.722181551976574
1487,0.005113298606563158,0.722181551976574
1488,0.005113298606563158,0.7224560761346999
1489,0.005118336339180462,0.7224560761346999
1490,0.005118336339180462,0.7228221083455344
1491,0.0051435250022669795,0.7228221083455344
1492,0.0051435250022669795,0.722913616398243
1493,0.005153600467501587,0.722913616398243
1494,0.005153600467501587,0.7231881405563689
1495,0.00515863820011889,0.7231881405563689
1496,0.00515863820011889,0.7235541727672035
1497,0.005163675932736194,0.7235541727672035
1498,0.005163675932736194,0.7237371888726208
1499,0.005168713665353498,0.7237371888726208
1500,0.005168713665353498,0.7240117130307467
1501,0.005193902328440016,0.7240117130307467
1502,0.005193902328440016,0.7242862371888726
1503,0.005198940061057319,0.7242862371888726
1504,0.005198940061057319,0.7243777452415813
1505,0.005203977793674623,0.7243777452415813
1506,0.005203977793674623,0.7244692532942899
1507,0.00521405325890923,0.7244692532942899
1508,0.00521405325890923,0.7252928257686676
1509,0.005219090991526534,0.7252928257686676
1510,0.005219090991526534,0.7254758418740849
1511,0.0052241287241438375,0.7254758418740849
1512,0.0052241287241438375,0.726207906295754
1513,0.0052291664567611406,0.726207906295754
1514,0.0052291664567611406,0.7262994143484627
1515,0.0052342041893784445,0.7262994143484627
1516,0.0052342041893784445,0.7263909224011713
1517,0.005239241921995748,0.7263909224011713
1518,0.005239241921995748,0.72648243045388
1519,0.005254355119847659,0.72648243045388
1520,0.005254355119847659,0.7267569546120058
1521,0.005259392852464962,0.7267569546120058
1522,0.005259392852464962,0.7269399707174231
1523,0.005294656980786088,0.7269399707174231
1524,0.005294656980786088,0.7270314787701317
1525,0.005304732446020695,0.7270314787701317
1526,0.005304732446020695,0.7273060029282576
1527,0.005309770178637999,0.7273060029282576
1528,0.005309770178637999,0.7273975109809663
1529,0.0053198456438726055,0.7273975109809663
1530,0.0053198456438726055,0.7276720351390923
1531,0.0053248833764899094,0.7276720351390923
1532,0.0053248833764899094,0.7277635431918009
1533,0.005329921109107213,0.7277635431918009
1534,0.005329921109107213,0.7278550512445096
1535,0.00533999657434182,0.7278550512445096
1536,0.00533999657434182,0.7281295754026355
1537,0.005345034306959124,0.7281295754026355
1538,0.005345034306959124,0.7284040995607614
1539,0.005370222970045642,0.7284040995607614
1540,0.005370222970045642,0.7289531478770132
1541,0.005375260702662946,0.7289531478770132
1542,0.005375260702662946,0.7291361639824304
1543,0.005380298435280249,0.7291361639824304
1544,0.005380298435280249,0.7293191800878477
1545,0.005385336167897553,0.7293191800878477
1546,0.005385336167897553,0.7295937042459737
1547,0.005390373900514857,0.7295937042459737
1548,0.005390373900514857,0.7296852122986823
1549,0.005400449365749464,0.7296852122986823
1550,0.005400449365749464,0.729776720351391
1551,0.005415562563601374,0.729776720351391
1552,0.005415562563601374,0.7300512445095169
1553,0.005425638028835981,0.7300512445095169
1554,0.005425638028835981,0.7301427525622255
1555,0.005430675761453285,0.7301427525622255
1556,0.005430675761453285,0.7306918008784773
1557,0.005435713494070589,0.7306918008784773
1558,0.005435713494070589,0.7309663250366032
1559,0.005445788959305196,0.7309663250366032
1560,0.005445788959305196,0.7314238653001464
1561,0.005450826691922499,0.7314238653001464
1562,0.005450826691922499,0.7318814055636896
1563,0.00546593988977441,0.7318814055636896
1564,0.00546593988977441,0.7319729136163983
1565,0.005476015355009018,0.7319729136163983
1566,0.005476015355009018,0.7320644216691069
1567,0.005496166285478232,0.7320644216691069
1568,0.005496166285478232,0.7323389458272328
1569,0.005506241750712839,0.7323389458272328
1570,0.005506241750712839,0.7325219619326501
1571,0.00552135494856475,0.7325219619326501
1572,0.00552135494856475,0.732796486090776
1573,0.005526392681182053,0.732796486090776
1574,0.005526392681182053,0.7328879941434846
1575,0.005546543611651268,0.7328879941434846
1576,0.005546543611651268,0.7333455344070278
1577,0.005556619076885875,0.7333455344070278
1578,0.005556619076885875,0.7334370424597365
1579,0.005561656809503179,0.7334370424597365
1580,0.005561656809503179,0.7335285505124451
1581,0.005571732274737786,0.7335285505124451
1582,0.005571732274737786,0.7336200585651538
1583,0.00557677000735509,0.7336200585651538
1584,0.00557677000735509,0.7340775988286969
1585,0.0055818077399723935,0.7340775988286969
1586,0.0055818077399723935,0.7343521229868228
1587,0.0055868454725896965,0.7343521229868228
1588,0.0055868454725896965,0.7347181551976574
1589,0.0055918832052070004,0.7347181551976574
1590,0.0055918832052070004,0.7349926793557833
1591,0.005596920937824304,0.7349926793557833
1592,0.005596920937824304,0.7350841874084919
1593,0.005601958670441607,0.7350841874084919
1594,0.005601958670441607,0.7352672035139092
1595,0.005606996403058911,0.7352672035139092
1596,0.005606996403058911,0.7355417276720352
1597,0.005617071868293518,0.7355417276720352
1598,0.005617071868293518,0.7359992679355783
1599,0.005632185066145429,0.7359992679355783
1600,0.005632185066145429,0.736090775988287
1601,0.005637222798762733,0.736090775988287
1602,0.005637222798762733,0.7365483162518301
1603,0.00564729826399734,0.7365483162518301
1604,0.00564729826399734,0.7366398243045388
1605,0.005652335996614644,0.7366398243045388
1606,0.005652335996614644,0.7367313323572474
1607,0.005662411461849251,0.7367313323572474
1608,0.005662411461849251,0.7374633967789166
1609,0.005692637857553072,0.7374633967789166
1610,0.005692637857553072,0.7378294289897511
1611,0.005697675590170376,0.7378294289897511
1612,0.005697675590170376,0.7380124450951684
1613,0.00570271332278768,0.7380124450951684
1614,0.00570271332278768,0.7382869692532943
1615,0.005707751055404983,0.7382869692532943
1616,0.005707751055404983,0.7384699853587116
1617,0.005712788788022287,0.7384699853587116
1618,0.005712788788022287,0.7387445095168375
1619,0.00571782652063959,0.7387445095168375
1620,0.00571782652063959,0.7388360175695461
1621,0.005727901985874198,0.7388360175695461
1622,0.005727901985874198,0.7390190336749634
1623,0.005732939718491501,0.7390190336749634
1624,0.005732939718491501,0.7392935578330894
1625,0.005737977451108805,0.7392935578330894
1626,0.005737977451108805,0.7394765739385066
1627,0.005743015183726109,0.7394765739385066
1628,0.005743015183726109,0.7396595900439239
1629,0.005748052916343412,0.7396595900439239
1630,0.005748052916343412,0.7398426061493412
1631,0.005753090648960716,0.7398426061493412
1632,0.005753090648960716,0.7399341142020498
1633,0.005778279312047233,0.7399341142020498
1634,0.005778279312047233,0.7403001464128843
1635,0.005793392509899144,0.7403001464128843
1636,0.005793392509899144,0.740391654465593
1637,0.005798430242516448,0.740391654465593
1638,0.005798430242516448,0.7404831625183016
1639,0.005803467975133752,0.7404831625183016
1640,0.005803467975133752,0.7405746705710102
1641,0.005808505707751055,0.7405746705710102
1642,0.005808505707751055,0.7408491947291361
1643,0.005813543440368359,0.7408491947291361
1644,0.005813543440368359,0.7409407027818448
1645,0.005818581172985663,0.7409407027818448
1646,0.005818581172985663,0.7410322108345534
1647,0.005823618905602966,0.7410322108345534
1648,0.005823618905602966,0.741398243045388
1649,0.00582865663822027,0.741398243045388
1650,0.00582865663822027,0.7414897510980967
1651,0.005833694370837574,0.7414897510980967
1652,0.005833694370837574,0.7416727672035139
1653,0.005843769836072181,0.7416727672035139
1654,0.005843769836072181,0.7422218155197657
1655,0.005863920766541395,0.7422218155197657
1656,0.005863920766541395,0.7424963396778916
1657,0.005868958499158698,0.7424963396778916
1658,0.005868958499158698,0.7425878477306003
1659,0.005873996231776002,0.7425878477306003
1660,0.005873996231776002,0.7426793557833089
1661,0.005879033964393306,0.7426793557833089
1662,0.005879033964393306,0.7427708638360175
1663,0.005884071697010609,0.7427708638360175
1664,0.005884071697010609,0.7428623718887262
1665,0.005894147162245217,0.7428623718887262
1666,0.005894147162245217,0.7429538799414348
1667,0.00589918489486252,0.7429538799414348
1668,0.00589918489486252,0.7435944363103953
1669,0.005919335825331735,0.7435944363103953
1670,0.005919335825331735,0.7437774524158126
1671,0.005929411290566342,0.7437774524158126
1672,0.005929411290566342,0.7440519765739385
1673,0.0059445244884182525,0.7440519765739385
1674,0.0059445244884182525,0.7445095168374817
1675,0.005949562221035556,0.7445095168374817
1676,0.005949562221035556,0.7448755490483162
1677,0.00595459995365286,0.7448755490483162
1678,0.00595459995365286,0.7450585651537335
1679,0.005959637686270163,0.7450585651537335
1680,0.005959637686270163,0.7454245973645681
1681,0.005969713151504771,0.7454245973645681
1682,0.005969713151504771,0.7459736456808199
1683,0.005979788616739378,0.7459736456808199
1684,0.005979788616739378,0.7460651537335286
1685,0.005989864081973985,0.7460651537335286
1686,0.005989864081973985,0.7464311859443631
1687,0.005999939547208592,0.7464311859443631
1688,0.005999939547208592,0.7467972181551976
1689,0.006020090477677807,0.7467972181551976
1690,0.006020090477677807,0.7469802342606149
1691,0.006025128210295111,0.7469802342606149
1692,0.006025128210295111,0.7475292825768668
1693,0.006045279140764324,0.7475292825768668
1694,0.006045279140764324,0.7478038067349927
1695,0.006060392338616235,0.7478038067349927
1696,0.006060392338616235,0.7478953147877013
1697,0.006065430071233539,0.7478953147877013
1698,0.006065430071233539,0.7480783308931186
1699,0.006090618734320057,0.7480783308931186
1700,0.006090618734320057,0.7481698389458272
1701,0.006095656466937361,0.7481698389458272
1702,0.006095656466937361,0.7482613469985359
1703,0.006105731932171968,0.7482613469985359
1704,0.006105731932171968,0.7483528550512445
1705,0.006110769664789272,0.7483528550512445
1706,0.006110769664789272,0.7484443631039531
1707,0.006120845130023879,0.7484443631039531
1708,0.006120845130023879,0.7485358711566618
1709,0.0061258828626411825,0.7485358711566618
1710,0.0061258828626411825,0.7489019033674963
1711,0.006130920595258486,0.7489019033674963
1712,0.006130920595258486,0.7490849194729137
1713,0.006135958327875789,0.7490849194729137
1714,0.006135958327875789,0.7492679355783309
1715,0.006140996060493093,0.7492679355783309
1716,0.006140996060493093,0.7495424597364568
1717,0.0061510715257277,0.7495424597364568
1718,0.0061510715257277,0.7498169838945827
1719,0.006156109258345004,0.7498169838945827
1720,0.006156109258345004,0.7499084919472914
1721,0.006161146990962308,0.7499084919472914
1722,0.006161146990962308,0.7501830161054173
1723,0.006171222456196915,0.7501830161054173
1724,0.006171222456196915,0.7503660322108345
1725,0.00619137338666613,0.7503660322108345
1726,0.00619137338666613,0.7504575402635432
1727,0.006196411119283433,0.7504575402635432
1728,0.006196411119283433,0.7507320644216691
1729,0.0062064865845180405,0.7507320644216691
1730,0.0062064865845180405,0.7508235724743777
1731,0.0062115243171353435,0.7508235724743777
1732,0.0062115243171353435,0.7509150805270863
1733,0.006226637514987254,0.7509150805270863
1734,0.006226637514987254,0.7510065885797951
1735,0.006241750712839165,0.7510065885797951
1736,0.006241750712839165,0.7510980966325037
1737,0.006246788445456469,0.7510980966325037
1738,0.006246788445456469,0.751281112737921
1739,0.006251826178073772,0.751281112737921
1740,0.006251826178073772,0.7514641288433382
1741,0.006297165771629505,0.7514641288433382
1742,0.006297165771629505,0.7516471449487555
1743,0.0063022035042468085,0.7516471449487555
1744,0.0063022035042468085,0.7518301610541728
1745,0.006307241236864112,0.7518301610541728
1746,0.006307241236864112,0.7523792093704246
1747,0.0063122789694814154,0.7523792093704246
1748,0.0063122789694814154,0.7529282576866764
1749,0.006322354434716023,0.7529282576866764
1750,0.006322354434716023,0.7530197657393851
1751,0.006362656295654452,0.7530197657393851
1752,0.006362656295654452,0.753294289897511
1753,0.006372731760889059,0.753294289897511
1754,0.006372731760889059,0.7536603221083455
1755,0.0063828072261236666,0.7536603221083455
1756,0.0063828072261236666,0.7538433382137628
1757,0.006397920423975577,0.7538433382137628
1758,0.006397920423975577,0.7542093704245973
1759,0.006407995889210184,0.7542093704245973
1760,0.006407995889210184,0.754300878477306
1761,0.006413033621827488,0.754300878477306
1762,0.006413033621827488,0.7543923865300146
1763,0.006423109087062095,0.7543923865300146
1764,0.006423109087062095,0.7546669106881405
1765,0.006428146819679399,0.7546669106881405
1766,0.006428146819679399,0.7547584187408491
1767,0.006433184552296702,0.7547584187408491
1768,0.006433184552296702,0.7549414348462665
1769,0.006438222284914006,0.7549414348462665
1770,0.006438222284914006,0.7550329428989752
1771,0.006453335482765917,0.7550329428989752
1772,0.006453335482765917,0.7552159590043924
1773,0.006458373215383221,0.7552159590043924
1774,0.006458373215383221,0.7553074670571011
1775,0.006463410948000524,0.7553074670571011
1776,0.006463410948000524,0.7553989751098097
1777,0.006488599611087042,0.7553989751098097
1778,0.006488599611087042,0.7554904831625183
1779,0.006508750541556256,0.7554904831625183
1780,0.006508750541556256,0.755581991215227
1781,0.00651378827417356,0.755581991215227
1782,0.00651378827417356,0.7558565153733529
1783,0.006523863739408167,0.7558565153733529
1784,0.006523863739408167,0.756314055636896
1785,0.006533939204642774,0.756314055636896
1786,0.006533939204642774,0.7564055636896047
1787,0.006549052402494685,0.7564055636896047
1788,0.006549052402494685,0.7565885797950219
1789,0.006554090135111989,0.7565885797950219
1790,0.006554090135111989,0.7566800878477306
1791,0.006559127867729293,0.7566800878477306
1792,0.006559127867729293,0.7567715959004392
1793,0.006564165600346596,0.7567715959004392
1794,0.006564165600346596,0.7571376281112738
1795,0.0065692033329638995,0.7571376281112738
1796,0.0065692033329638995,0.7573206442166911
1797,0.006589354263433114,0.7573206442166911
1798,0.006589354263433114,0.7575036603221084
1799,0.006604467461285025,0.7575036603221084
1800,0.006604467461285025,0.7577781844802343
1801,0.006614542926519632,0.7577781844802343
1802,0.006614542926519632,0.7578696925329429
1803,0.006619580659136936,0.7578696925329429
1804,0.006619580659136936,0.7579612005856515
1805,0.006624618391754239,0.7579612005856515
1806,0.006624618391754239,0.7580527086383602
1807,0.00663973158960615,0.7580527086383602
1808,0.00663973158960615,0.7584187408491947
1809,0.006654844787458061,0.7584187408491947
1810,0.006654844787458061,0.758601756954612
1811,0.006669957985309971,0.758601756954612
1812,0.006669957985309971,0.7586932650073206
1813,0.006674995717927275,0.7586932650073206
1814,0.006674995717927275,0.758876281112738
1815,0.006680033450544579,0.758876281112738
1816,0.006680033450544579,0.7589677891654466
1817,0.00669514664839649,0.7589677891654466
1818,0.00669514664839649,0.7590592972181552
1819,0.006705222113631097,0.7590592972181552
1820,0.006705222113631097,0.7592423133235725
1821,0.006745523974569526,0.7592423133235725
1822,0.006745523974569526,0.7593338213762811
1823,0.0067505617071868295,0.7593338213762811
1824,0.0067505617071868295,0.759608345534407
1825,0.006755599439804133,0.759608345534407
1826,0.006755599439804133,0.7596998535871157
1827,0.006760637172421436,0.7596998535871157
1828,0.006760637172421436,0.7600658857979502
1829,0.006780788102890651,0.7600658857979502
1830,0.006780788102890651,0.7603404099560761
1831,0.006795901300742562,0.7603404099560761
1832,0.006795901300742562,0.7604319180087847
1833,0.006805976765977169,0.7604319180087847
1834,0.006805976765977169,0.7607979502196194
1835,0.006811014498594473,0.7607979502196194
1836,0.006811014498594473,0.760889458272328
1837,0.006816052231211776,0.760889458272328
1838,0.006816052231211776,0.7609809663250366
1839,0.0068412408942982944,0.7609809663250366
1840,0.0068412408942982944,0.7611639824304539
1841,0.006856354092150205,0.7611639824304539
1842,0.006856354092150205,0.7614385065885798
1843,0.006896655953088634,0.7614385065885798
1844,0.006896655953088634,0.7615300146412884
1845,0.006901693685705938,0.7615300146412884
1846,0.006901693685705938,0.7617130307467057
1847,0.006906731418323241,0.7617130307467057
1848,0.006906731418323241,0.7619875549048316
1849,0.0069369578140270624,0.7619875549048316
1850,0.0069369578140270624,0.7621705710102489
1851,0.00694703327926167,0.7621705710102489
1852,0.00694703327926167,0.762628111273792
1853,0.006952071011878973,0.762628111273792
1854,0.006952071011878973,0.7628111273792094
1855,0.006957108744496277,0.7628111273792094
1856,0.006957108744496277,0.7629941434846267
1857,0.006972221942348188,0.7629941434846267
1858,0.006972221942348188,0.763177159590044
1859,0.006992372872817403,0.763177159590044
1860,0.006992372872817403,0.7633601756954612
1861,0.0070074860706693136,0.7633601756954612
1862,0.0070074860706693136,0.7635431918008785
1863,0.0070175615359039205,0.7635431918008785
1864,0.0070175615359039205,0.7638177159590044
1865,0.007022599268521224,0.7638177159590044
1866,0.007022599268521224,0.763909224011713
1867,0.007032674733755831,0.763909224011713
1868,0.007032674733755831,0.7641837481698389
1869,0.007057863396842349,0.7641837481698389
1870,0.007057863396842349,0.7642752562225475
1871,0.007062901129459653,0.7642752562225475
1872,0.007062901129459653,0.7646412884333821
1873,0.007067938862076956,0.7646412884333821
1874,0.007067938862076956,0.7647327964860908
1875,0.00707297659469426,0.7647327964860908
1876,0.00707297659469426,0.7650073206442167
1877,0.007083052059928867,0.7650073206442167
1878,0.007083052059928867,0.765190336749634
1879,0.007093127525163475,0.765190336749634
1880,0.007093127525163475,0.7652818448023426
1881,0.007098165257780778,0.7652818448023426
1882,0.007098165257780778,0.7654648609077599
1883,0.007133429386101903,0.7654648609077599
1884,0.007133429386101903,0.7656478770131772
1885,0.00714350485133651,0.7656478770131772
1886,0.00714350485133651,0.7657393850658858
1887,0.007163655781805725,0.7657393850658858
1888,0.007163655781805725,0.7658308931185944
1889,0.00718380671227494,0.7658308931185944
1890,0.00718380671227494,0.7659224011713031
1891,0.007188844444892243,0.7659224011713031
1892,0.007188844444892243,0.7660139092240117
1893,0.00719891991012685,0.7660139092240117
1894,0.00719891991012685,0.7661054172767203
1895,0.007224108573213368,0.7661054172767203
1896,0.007224108573213368,0.7662884333821376
1897,0.007229146305830672,0.7662884333821376
1898,0.007229146305830672,0.7664714494875549
1899,0.007234184038447975,0.7664714494875549
1900,0.007234184038447975,0.7666544655929722
1901,0.007244259503682583,0.7666544655929722
1902,0.007244259503682583,0.7668374816983895
1903,0.007259372701534494,0.7668374816983895
1904,0.007259372701534494,0.767203513909224
1905,0.007264410434151797,0.767203513909224
1906,0.007264410434151797,0.7678440702781845
1907,0.007274485899386405,0.7678440702781845
1908,0.007274485899386405,0.7679355783308931
1909,0.007279523632003708,0.7679355783308931
1910,0.007279523632003708,0.7681185944363104
1911,0.0072845613646210115,0.7681185944363104
1912,0.0072845613646210115,0.768210102489019
1913,0.007299674562472922,0.768210102489019
1914,0.007299674562472922,0.7683016105417276
1915,0.007329900958176744,0.7683016105417276
1916,0.007329900958176744,0.7686676427525623
1917,0.007334938690794047,0.7686676427525623
1918,0.007334938690794047,0.7688506588579795
1919,0.007345014156028655,0.7688506588579795
1920,0.007345014156028655,0.7689421669106882
1921,0.007360127353880566,0.7689421669106882
1922,0.007360127353880566,0.7690336749633968
1923,0.007390353749584387,0.7690336749633968
1924,0.007390353749584387,0.7691251830161054
1925,0.007405466947436298,0.7691251830161054
1926,0.007405466947436298,0.7693081991215227
1927,0.007410504680053601,0.7693081991215227
1928,0.007410504680053601,0.7693997071742313
1929,0.007425617877905512,0.7693997071742313
1930,0.007425617877905512,0.76949121522694
1931,0.007430655610522816,0.76949121522694
1932,0.007430655610522816,0.7698572474377745
1933,0.007450806540992031,0.7698572474377745
1934,0.007450806540992031,0.7699487554904831
1935,0.0074659197388439414,0.7699487554904831
1936,0.0074659197388439414,0.7701317715959004
1937,0.007475995204078548,0.7701317715959004
1938,0.007475995204078548,0.7703147877013177
1939,0.007486070669313155,0.7703147877013177
1940,0.007486070669313155,0.7704062957540263
1941,0.007501183867165066,0.7704062957540263
1942,0.007501183867165066,0.7704978038067349
1943,0.007511259332399674,0.7704978038067349
1944,0.007511259332399674,0.7705893118594437
1945,0.007526372530251585,0.7705893118594437
1946,0.007526372530251585,0.7706808199121523
1947,0.007546523460720799,0.7706808199121523
1948,0.007546523460720799,0.7708638360175696
1949,0.007556598925955406,0.7708638360175696
1950,0.007556598925955406,0.7709553440702782
1951,0.007566674391190013,0.7709553440702782
1952,0.007566674391190013,0.7710468521229868
1953,0.00757674985642462,0.7710468521229868
1954,0.00757674985642462,0.7711383601756955
1955,0.007606976252128442,0.7711383601756955
1956,0.007606976252128442,0.77150439238653
1957,0.007612013984745746,0.77150439238653
1958,0.007612013984745746,0.7716874084919473
1959,0.007617051717363049,0.7716874084919473
1960,0.007617051717363049,0.7717789165446559
1961,0.00763216491521496,0.7717789165446559
1962,0.00763216491521496,0.7720534407027818
1963,0.007637202647832264,0.7720534407027818
1964,0.007637202647832264,0.7721449487554904
1965,0.007672466776153389,0.7721449487554904
1966,0.007672466776153389,0.7722364568081991
1967,0.007677504508770692,0.7722364568081991
1968,0.007677504508770692,0.7723279648609077
1969,0.0076875799740053,0.7723279648609077
1970,0.0076875799740053,0.7726024890190337
1971,0.007692617706622603,0.7726024890190337
1972,0.007692617706622603,0.7726939970717424
1973,0.007702693171857211,0.7726939970717424
1974,0.007702693171857211,0.7729685212298683
1975,0.007712768637091818,0.7729685212298683
1976,0.007712768637091818,0.7731515373352855
1977,0.007722844102326425,0.7731515373352855
1978,0.007722844102326425,0.7732430453879942
1979,0.007742995032795639,0.7732430453879942
1980,0.007742995032795639,0.7733345534407028
1981,0.007753070498030246,0.7733345534407028
1982,0.007753070498030246,0.773792093704246
1983,0.00775810823064755,0.773792093704246
1984,0.00775810823064755,0.7739751098096632
1985,0.007763145963264854,0.7739751098096632
1986,0.007763145963264854,0.7740666178623719
1987,0.007778259161116765,0.7740666178623719
1988,0.007778259161116765,0.7742496339677891
1989,0.007788334626351372,0.7742496339677891
1990,0.007788334626351372,0.7743411420204978
1991,0.007798410091585979,0.7743411420204978
1992,0.007798410091585979,0.7746156661786238
1993,0.007803447824203283,0.7746156661786238
1994,0.007803447824203283,0.7747071742313324
1995,0.007853825150376319,0.7747071742313324
1996,0.007853825150376319,0.774798682284041
1997,0.00786893834822823,0.774798682284041
1998,0.00786893834822823,0.7749816983894583
1999,0.007873976080845533,0.7749816983894583
2000,0.007873976080845533,0.7751647144948756
2001,0.007879013813462836,0.7751647144948756
2002,0.007879013813462836,0.7753477306002928
2003,0.00788405154608014,0.7753477306002928
2004,0.00788405154608014,0.7756222547584187
2005,0.007894127011314747,0.7756222547584187
2006,0.007894127011314747,0.7757137628111274
2007,0.007909240209166658,0.7757137628111274
2008,0.007909240209166658,0.775805270863836
2009,0.007914277941783962,0.775805270863836
2010,0.007914277941783962,0.7758967789165446
2011,0.007919315674401265,0.7758967789165446
2012,0.007919315674401265,0.7761713030746705
2013,0.007924353407018568,0.7761713030746705
2014,0.007924353407018568,0.7762628111273792
2015,0.007949542070105087,0.7762628111273792
2016,0.007949542070105087,0.7766288433382138
2017,0.00795457980272239,0.7766288433382138
2018,0.00795457980272239,0.7767203513909224
2019,0.007959617535339695,0.7767203513909224
2020,0.007959617535339695,0.7768118594436311
2021,0.007964655267956998,0.7768118594436311
2022,0.007964655267956998,0.7769033674963397
2023,0.007969693000574301,0.7769033674963397
2024,0.007969693000574301,0.777086383601757
2025,0.007974730733191606,0.777086383601757
2026,0.007974730733191606,0.7771778916544656
2027,0.007989843931043517,0.7771778916544656
2028,0.007989843931043517,0.7775439238653001
2029,0.00799488166366082,0.7775439238653001
2030,0.00799488166366082,0.7779099560761347
2031,0.008015032594130033,0.7779099560761347
2032,0.008015032594130033,0.7780014641288433
2033,0.008040221257216552,0.7780014641288433
2034,0.008040221257216552,0.7781844802342606
2035,0.008045258989833855,0.7781844802342606
2036,0.008045258989833855,0.7782759882869692
2037,0.008055334455068463,0.7782759882869692
2038,0.008055334455068463,0.7783674963396779
2039,0.008060372187685766,0.7783674963396779
2040,0.008060372187685766,0.7784590043923866
2041,0.00806540992030307,0.7784590043923866
2042,0.00806540992030307,0.7790080527086384
2043,0.008070447652920374,0.7790080527086384
2044,0.008070447652920374,0.7792825768667643
2045,0.008075485385537677,0.7792825768667643
2046,0.008075485385537677,0.7793740849194729
2047,0.008095636316006892,0.7793740849194729
2048,0.008095636316006892,0.7794655929721815
2049,0.008110749513858803,0.7794655929721815
2050,0.008110749513858803,0.7795571010248902
2051,0.008130900444328017,0.7795571010248902
2052,0.008130900444328017,0.7799231332357247
2053,0.00813593817694532,0.7799231332357247
2054,0.00813593817694532,0.780106149341142
2055,0.008171202305266446,0.780106149341142
2056,0.008171202305266446,0.780380673499268
2057,0.00817624003788375,0.780380673499268
2058,0.00817624003788375,0.7810212298682284
2059,0.008181277770501053,0.7810212298682284
2060,0.008181277770501053,0.781112737920937
2061,0.00819135323573566,0.781112737920937
2062,0.00819135323573566,0.7812957540263543
2063,0.008196390968352963,0.7812957540263543
2064,0.008196390968352963,0.7814787701317716
2065,0.008201428700970268,0.7814787701317716
2066,0.008201428700970268,0.7816617862371888
2067,0.008206466433587571,0.7816617862371888
2068,0.008206466433587571,0.7817532942898975
2069,0.008211504166204874,0.7817532942898975
2070,0.008211504166204874,0.7818448023426061
2071,0.008221579631439482,0.7818448023426061
2072,0.008221579631439482,0.7820278184480234
2073,0.008226617364056785,0.7820278184480234
2074,0.008226617364056785,0.782119326500732
2075,0.00823165509667409,0.782119326500732
2076,0.00823165509667409,0.7823023426061494
2077,0.008236692829291393,0.7823023426061494
2078,0.008236692829291393,0.782393850658858
2079,0.008251806027143304,0.782393850658858
2080,0.008251806027143304,0.7825768667642753
2081,0.008271956957612518,0.7825768667642753
2082,0.008271956957612518,0.7826683748169839
2083,0.008282032422847125,0.7826683748169839
2084,0.008282032422847125,0.7827598828696926
2085,0.00830218335331634,0.7827598828696926
2086,0.00830218335331634,0.7828513909224012
2087,0.008307221085933642,0.7828513909224012
2088,0.008307221085933642,0.7830344070278185
2089,0.008352560679489375,0.7830344070278185
2090,0.008352560679489375,0.7831259150805271
2091,0.00837271160995859,0.7831259150805271
2092,0.00837271160995859,0.783400439238653
2093,0.008382787075193196,0.783400439238653
2094,0.008382787075193196,0.7834919472913616
2095,0.008387824807810501,0.7834919472913616
2096,0.008387824807810501,0.7838579795021962
2097,0.008392862540427804,0.7838579795021962
2098,0.008392862540427804,0.7839494875549048
2099,0.008397900273045107,0.7839494875549048
2100,0.008397900273045107,0.7842240117130308
2101,0.008418051203514323,0.7842240117130308
2102,0.008418051203514323,0.7843155197657394
2103,0.008428126668748929,0.7843155197657394
2104,0.008428126668748929,0.7844070278184481
2105,0.008438202133983537,0.7844070278184481
2106,0.008438202133983537,0.7845900439238653
2107,0.00844323986660084,0.7845900439238653
2108,0.00844323986660084,0.7848645680819912
2109,0.008463390797070055,0.7848645680819912
2110,0.008463390797070055,0.7850475841874085
2111,0.008483541727539269,0.7850475841874085
2112,0.008483541727539269,0.7852306002928258
2113,0.008543994518946912,0.7852306002928258
2114,0.008543994518946912,0.785413616398243
2115,0.008549032251564215,0.785413616398243
2116,0.008549032251564215,0.7855966325036603
2117,0.008564145449416126,0.7855966325036603
2118,0.008564145449416126,0.7857796486090776
2119,0.008569183182033431,0.7857796486090776
2120,0.008569183182033431,0.7858711566617862
2121,0.008584296379885342,0.7858711566617862
2122,0.008584296379885342,0.7859626647144948
2123,0.008614522775589164,0.7859626647144948
2124,0.008614522775589164,0.7860541727672035
2125,0.008619560508206467,0.7860541727672035
2126,0.008619560508206467,0.7863286969253295
2127,0.00862459824082377,0.7863286969253295
2128,0.00862459824082377,0.7864202049780381
2129,0.008669937834379502,0.7864202049780381
2130,0.008669937834379502,0.7866032210834554
2131,0.008690088764848718,0.7866032210834554
2132,0.008690088764848718,0.7867862371888726
2133,0.00869512649746602,0.7867862371888726
2134,0.00869512649746602,0.7868777452415813
2135,0.008725352893169842,0.7868777452415813
2136,0.008725352893169842,0.7871522693997072
2137,0.008750541556256361,0.7871522693997072
2138,0.008750541556256361,0.7872437774524158
2139,0.008755579288873664,0.7872437774524158
2140,0.008755579288873664,0.7873352855051244
2141,0.008770692486725575,0.7873352855051244
2142,0.008770692486725575,0.7874267935578331
2143,0.008795881149812092,0.7874267935578331
2144,0.008795881149812092,0.7875183016105417
2145,0.008810994347664003,0.7875183016105417
2146,0.008810994347664003,0.7876098096632503
2147,0.008816032080281307,0.7876098096632503
2148,0.008816032080281307,0.7877928257686676
2149,0.008826107545515913,0.7877928257686676
2150,0.008826107545515913,0.7878843338213762
2151,0.008851296208602432,0.7878843338213762
2152,0.008851296208602432,0.7879758418740849
2153,0.008866409406454343,0.7879758418740849
2154,0.008866409406454343,0.7880673499267935
2155,0.008881522604306254,0.7880673499267935
2156,0.008881522604306254,0.7882503660322109
2157,0.008906711267392772,0.7882503660322109
2158,0.008906711267392772,0.7883418740849195
2159,0.008926862197861986,0.7883418740849195
2160,0.008926862197861986,0.7885248901903368
2161,0.008957088593565808,0.7885248901903368
2162,0.008957088593565808,0.7886163982430454
2163,0.00896212632618311,0.7886163982430454
2164,0.00896212632618311,0.7887994143484627
2165,0.008972201791417719,0.7887994143484627
2166,0.008972201791417719,0.7888909224011713
2167,0.008977239524035022,0.7888909224011713
2168,0.008977239524035022,0.78898243045388
2169,0.008997390454504237,0.78898243045388
2170,0.008997390454504237,0.7890739385065886
2171,0.009007465919738843,0.7890739385065886
2172,0.009007465919738843,0.7893484626647145
2173,0.009047767780677273,0.7893484626647145
2174,0.009047767780677273,0.7894399707174231
2175,0.009052805513294576,0.7894399707174231
2176,0.009052805513294576,0.7895314787701317
2177,0.009062880978529184,0.7895314787701317
2178,0.009062880978529184,0.7896229868228404
2179,0.009077994176381094,0.7896229868228404
2180,0.009077994176381094,0.7898060029282576
2181,0.009083031908998397,0.7898060029282576
2182,0.009083031908998397,0.7899890190336749
2183,0.009088069641615702,0.7899890190336749
2184,0.009088069641615702,0.7900805270863837
2185,0.009098145106850308,0.7900805270863837
2186,0.009098145106850308,0.7902635431918009
2187,0.00911325830470222,0.7902635431918009
2188,0.00911325830470222,0.7903550512445096
2189,0.00912837150255413,0.7903550512445096
2190,0.00912837150255413,0.7905380673499268
2191,0.009133409235171435,0.7905380673499268
2192,0.009133409235171435,0.7906295754026355
2193,0.009153560165640649,0.7906295754026355
2194,0.009153560165640649,0.79099560761347
2195,0.009163635630875256,0.79099560761347
2196,0.009163635630875256,0.7910871156661786
2197,0.009198899759196381,0.7910871156661786
2198,0.009198899759196381,0.7913616398243045
2199,0.009214012957048292,0.7913616398243045
2200,0.009214012957048292,0.7914531478770132
2201,0.0092240884222829,0.7914531478770132
2202,0.0092240884222829,0.7915446559297218
2203,0.009229126154900203,0.7915446559297218
2204,0.009229126154900203,0.7916361639824304
2205,0.009249277085369417,0.7916361639824304
2206,0.009249277085369417,0.791727672035139
2207,0.009259352550604024,0.791727672035139
2208,0.009259352550604024,0.7918191800878477
2209,0.009269428015838632,0.7918191800878477
2210,0.009269428015838632,0.7920021961932651
2211,0.009304692144159757,0.7920021961932651
2212,0.009304692144159757,0.7920937042459737
2213,0.00930972987677706,0.7920937042459737
2214,0.00930972987677706,0.792276720351391
2215,0.009314767609394363,0.792276720351391
2216,0.009314767609394363,0.7923682284040996
2217,0.009334918539863579,0.7923682284040996
2218,0.009334918539863579,0.7925512445095169
2219,0.00935003173771549,0.7925512445095169
2220,0.00935003173771549,0.7926427525622255
2221,0.009360107202950095,0.7926427525622255
2222,0.009360107202950095,0.7927342606149341
2223,0.0093651449355674,0.7927342606149341
2224,0.0093651449355674,0.7928257686676428
2225,0.009385295866036614,0.7928257686676428
2226,0.009385295866036614,0.7929172767203514
2227,0.009395371331271222,0.7929172767203514
2228,0.009395371331271222,0.7931002928257687
2229,0.009405446796505828,0.7931002928257687
2230,0.009405446796505828,0.7931918008784773
2231,0.009430635459592347,0.7931918008784773
2232,0.009430635459592347,0.7932833089311859
2233,0.009440710924826954,0.7932833089311859
2234,0.009440710924826954,0.7933748169838946
2235,0.009460861855296168,0.7933748169838946
2236,0.009460861855296168,0.7935578330893118
2237,0.009465899587913471,0.7935578330893118
2238,0.009465899587913471,0.7937408491947291
2239,0.009475975053148079,0.7937408491947291
2240,0.009475975053148079,0.7940153733528551
2241,0.009501163716234598,0.7940153733528551
2242,0.009501163716234598,0.794289897510981
2243,0.00953139011193842,0.794289897510981
2244,0.00953139011193842,0.7944729136163983
2245,0.009536427844555722,0.7944729136163983
2246,0.009536427844555722,0.7945644216691069
2247,0.00954650330979033,0.7945644216691069
2248,0.00954650330979033,0.7946559297218155
2249,0.009551541042407633,0.7946559297218155
2250,0.009551541042407633,0.7947474377745242
2251,0.009561616507642241,0.7947474377745242
2252,0.009561616507642241,0.7948389458272328
2253,0.009566654240259544,0.7948389458272328
2254,0.009566654240259544,0.7949304538799414
2255,0.009576729705494152,0.7949304538799414
2256,0.009576729705494152,0.795296486090776
2257,0.009581767438111455,0.795296486090776
2258,0.009581767438111455,0.7953879941434846
2259,0.009596880635963366,0.7953879941434846
2260,0.009596880635963366,0.7954795021961932
2261,0.009611993833815276,0.7954795021961932
2262,0.009611993833815276,0.7955710102489019
2263,0.00963214476428449,0.7955710102489019
2264,0.00963214476428449,0.7958455344070278
2265,0.009652295694753706,0.7958455344070278
2266,0.009652295694753706,0.7961200585651538
2267,0.00967244662522292,0.7961200585651538
2268,0.00967244662522292,0.796303074670571
2269,0.009682522090457528,0.796303074670571
2270,0.009682522090457528,0.7964860907759883
2271,0.00968755982307483,0.7964860907759883
2272,0.00968755982307483,0.7965775988286969
2273,0.009697635288309438,0.7965775988286969
2274,0.009697635288309438,0.7967606149341142
2275,0.00971274848616135,0.7967606149341142
2276,0.00971274848616135,0.7968521229868228
2277,0.009742974881865171,0.7968521229868228
2278,0.009742974881865171,0.7970351390922401
2279,0.009748012614482474,0.7970351390922401
2280,0.009748012614482474,0.7971266471449487
2281,0.009753050347099777,0.7971266471449487
2282,0.009753050347099777,0.7972181551976574
2283,0.009768163544951688,0.7972181551976574
2284,0.009768163544951688,0.797309663250366
2285,0.009778239010186296,0.797309663250366
2286,0.009778239010186296,0.7974011713030746
2287,0.009793352208038206,0.7974011713030746
2288,0.009793352208038206,0.7974926793557833
2289,0.009808465405890117,0.7974926793557833
2290,0.009808465405890117,0.7976756954612005
2291,0.00981350313850742,0.7976756954612005
2292,0.00981350313850742,0.7977672035139092
2293,0.009838691801593939,0.7977672035139092
2294,0.009838691801593939,0.7978587115666179
2295,0.009848767266828545,0.7978587115666179
2296,0.009848767266828545,0.7979502196193266
2297,0.009863880464680456,0.7979502196193266
2298,0.009863880464680456,0.7980417276720352
2299,0.009889069127766974,0.7980417276720352
2300,0.009889069127766974,0.7981332357247438
2301,0.009924333256088099,0.7981332357247438
2302,0.009924333256088099,0.7982247437774525
2303,0.009944484186557315,0.7982247437774525
2304,0.009944484186557315,0.7984077598828697
2305,0.00995455965179192,0.7984077598828697
2306,0.00995455965179192,0.798590775988287
2307,0.00997974831487844,0.798590775988287
2308,0.00997974831487844,0.7986822840409956
2309,0.010015012443199564,0.7986822840409956
2310,0.010015012443199564,0.7987737920937042
2311,0.010030125641051475,0.7987737920937042
2312,0.010030125641051475,0.7988653001464129
2313,0.010060352036755297,0.7988653001464129
2314,0.010060352036755297,0.7989568081991215
2315,0.010065389769372601,0.7989568081991215
2316,0.010065389769372601,0.7990483162518301
2317,0.010075465234607207,0.7990483162518301
2318,0.010075465234607207,0.7994143484626647
2319,0.010085540699841815,0.7994143484626647
2320,0.010085540699841815,0.7995058565153733
2321,0.010100653897693726,0.7995058565153733
2322,0.010100653897693726,0.799597364568082
2323,0.010110729362928334,0.799597364568082
2324,0.010110729362928334,0.7996888726207906
2325,0.010130880293397548,0.7996888726207906
2326,0.010130880293397548,0.7997803806734992
2327,0.010145993491249458,0.7997803806734992
2328,0.010145993491249458,0.7999633967789166
2329,0.010145993491249458,0.8000549048316252
2330,0.01016110668910137,0.8000549048316252
2331,0.01016110668910137,0.8002379209370425
2332,0.010171182154335977,0.8002379209370425
2333,0.010171182154335977,0.8004209370424598
2334,0.010181257619570583,0.8004209370424598
2335,0.010181257619570583,0.8005124450951684
2336,0.010226597213126316,0.8005124450951684
2337,0.010226597213126316,0.800603953147877
2338,0.010236672678360923,0.800603953147877
2339,0.010236672678360923,0.8007869692532943
2340,0.010266899074064745,0.8007869692532943
2341,0.010266899074064745,0.8009699853587116
2342,0.010287050004533959,0.8009699853587116
2343,0.010287050004533959,0.8010614934114202
2344,0.010297125469768567,0.8010614934114202
2345,0.010297125469768567,0.8011530014641288
2346,0.010307200935003175,0.8011530014641288
2347,0.010307200935003175,0.8012445095168375
2348,0.010312238667620478,0.8012445095168375
2349,0.010312238667620478,0.8015190336749634
2350,0.01031727640023778,0.8015190336749634
2351,0.01031727640023778,0.801610541727672
2352,0.010322314132855085,0.801610541727672
2353,0.010322314132855085,0.8017020497803806
2354,0.010332389598089691,0.8017020497803806
2355,0.010332389598089691,0.8017935578330894
2356,0.010347502795941602,0.8017935578330894
2357,0.010347502795941602,0.801885065885798
2358,0.010352540528558907,0.801885065885798
2359,0.010352540528558907,0.8019765739385066
2360,0.010372691459028121,0.8019765739385066
2361,0.010372691459028121,0.8020680819912153
2362,0.010387804656880032,0.8020680819912153
2363,0.010387804656880032,0.8021595900439239
2364,0.010407955587349246,0.8021595900439239
2365,0.010407955587349246,0.8026171303074671
2366,0.010418031052583853,0.8026171303074671
2367,0.010418031052583853,0.8027086383601757
2368,0.010423068785201156,0.8027086383601757
2369,0.010423068785201156,0.8028001464128843
2370,0.01042810651781846,0.8028001464128843
2371,0.01042810651781846,0.8030746705710102
2372,0.010448257448287675,0.8030746705710102
2373,0.010448257448287675,0.8031661786237189
2374,0.010463370646139586,0.8031661786237189
2375,0.010463370646139586,0.8032576866764275
2376,0.010528861170164532,0.8032576866764275
2377,0.010528861170164532,0.8033491947291361
2378,0.010533898902781835,0.8033491947291361
2379,0.010533898902781835,0.8034407027818448
2380,0.01053893663539914,0.8034407027818448
2381,0.01053893663539914,0.8035322108345534
2382,0.010549012100633746,0.8035322108345534
2383,0.010549012100633746,0.803623718887262
2384,0.01055404983325105,0.803623718887262
2385,0.01055404983325105,0.8037152269399708
2386,0.010564125298485657,0.8037152269399708
2387,0.010564125298485657,0.8038067349926794
2388,0.010569163031102962,0.8038067349926794
2389,0.010569163031102962,0.8040812591508053
2390,0.010574200763720265,0.8040812591508053
2391,0.010574200763720265,0.8041727672035139
2392,0.010584276228954873,0.8041727672035139
2393,0.010584276228954873,0.8042642752562226
2394,0.010589313961572176,0.8042642752562226
2395,0.010589313961572176,0.8044472913616398
2396,0.010594351694189479,0.8044472913616398
2397,0.010594351694189479,0.8047218155197657
2398,0.010639691287745211,0.8047218155197657
2399,0.010639691287745211,0.8048133235724744
2400,0.01066487995083173,0.8048133235724744
2401,0.01066487995083173,0.804904831625183
2402,0.010685030881300944,0.804904831625183
2403,0.010685030881300944,0.8051793557833089
2404,0.010690068613918248,0.8051793557833089
2405,0.010690068613918248,0.8053623718887262
2406,0.010710219544387462,0.8053623718887262
2407,0.010710219544387462,0.8054538799414348
2408,0.01072029500962207,0.8054538799414348
2409,0.01072029500962207,0.8056368960468521
2410,0.010750521405325892,0.8056368960468521
2411,0.010750521405325892,0.8057284040995608
2412,0.010785785533647016,0.8057284040995608
2413,0.010785785533647016,0.8059114202049781
2414,0.010800898731498927,0.8059114202049781
2415,0.010800898731498927,0.8060029282576867
2416,0.010821049661968141,0.8060029282576867
2417,0.010821049661968141,0.8060944363103953
2418,0.010831125127202749,0.8060944363103953
2419,0.010831125127202749,0.806185944363104
2420,0.01084623832505466,0.806185944363104
2421,0.01084623832505466,0.8062774524158126
2422,0.010896615651227695,0.8062774524158126
2423,0.010896615651227695,0.8063689604685212
2424,0.010921804314314214,0.8063689604685212
2425,0.010921804314314214,0.8066434846266471
2426,0.010926842046931517,0.8066434846266471
2427,0.010926842046931517,0.8068265007320644
2428,0.010936917512166125,0.8068265007320644
2429,0.010936917512166125,0.8070095168374817
2430,0.010952030710018035,0.8070095168374817
2431,0.010952030710018035,0.8071010248901903
2432,0.010957068442635338,0.8071010248901903
2433,0.010957068442635338,0.8073755490483162
2434,0.010962106175252641,0.8073755490483162
2435,0.010962106175252641,0.8075585651537335
2436,0.010992332570956463,0.8075585651537335
2437,0.010992332570956463,0.8076500732064422
2438,0.010997370303573768,0.8076500732064422
2439,0.010997370303573768,0.8077415812591509
2440,0.011012483501425679,0.8077415812591509
2441,0.011012483501425679,0.8078330893118595
2442,0.0110427098971295,0.8078330893118595
2443,0.0110427098971295,0.8080161054172768
2444,0.011057823094981411,0.8080161054172768
2445,0.011057823094981411,0.8081076134699854
2446,0.011062860827598714,0.8081076134699854
2447,0.011062860827598714,0.808199121522694
2448,0.011093087223302536,0.808199121522694
2449,0.011093087223302536,0.8084736456808199
2450,0.01111323815377175,0.8084736456808199
2451,0.01111323815377175,0.8085651537335286
2452,0.011118275886389055,0.8085651537335286
2453,0.011118275886389055,0.8087481698389458
2454,0.01112835135162366,0.8087481698389458
2455,0.01112835135162366,0.8088396778916545
2456,0.011133389084240965,0.8088396778916545
2457,0.011133389084240965,0.8090226939970717
2458,0.011203917340883215,0.8090226939970717
2459,0.011203917340883215,0.809205710102489
2460,0.011213992806117823,0.809205710102489
2461,0.011213992806117823,0.8092972181551976
2462,0.011229106003969733,0.8092972181551976
2463,0.011229106003969733,0.8093887262079063
2464,0.011239181469204341,0.8093887262079063
2465,0.011239181469204341,0.8094802342606149
2466,0.011264370132290858,0.8094802342606149
2467,0.011264370132290858,0.8095717423133236
2468,0.011284521062760074,0.8095717423133236
2469,0.011284521062760074,0.8096632503660323
2470,0.011329860656315806,0.8096632503660323
2471,0.011329860656315806,0.8097547584187409
2472,0.011339936121550412,0.8097547584187409
2473,0.011339936121550412,0.8099377745241582
2474,0.01135001158678502,0.8099377745241582
2475,0.01135001158678502,0.8100292825768668
2476,0.011355049319402323,0.8100292825768668
2477,0.011355049319402323,0.8101207906295754
2478,0.01136512478463693,0.8101207906295754
2479,0.01136512478463693,0.8102122986822841
2480,0.011380237982488842,0.8102122986822841
2481,0.011385275715106145,0.8103038067349927
2482,0.01140542664557536,0.8103038067349927
2483,0.01140542664557536,0.8105783308931186
2484,0.011410464378192663,0.8105783308931186
2485,0.011410464378192663,0.8107613469985359
2486,0.01143565304127918,0.8107613469985359
2487,0.01143565304127918,0.8108528550512445
2488,0.011455803971748396,0.8108528550512445
2489,0.011455803971748396,0.8109443631039531
2490,0.01147595490221761,0.8109443631039531
2491,0.01147595490221761,0.8110358711566618
2492,0.011486030367452217,0.8110358711566618
2493,0.011486030367452217,0.8111273792093704
2494,0.011496105832686824,0.8111273792093704
2495,0.011496105832686824,0.811218887262079
2496,0.011501143565304128,0.811218887262079
2497,0.011501143565304128,0.8113103953147877
2498,0.011536407693625253,0.8113103953147877
2499,0.011536407693625253,0.8114019033674963
2500,0.011561596356711772,0.8114019033674963
2501,0.011561596356711772,0.8114934114202049
2502,0.011566634089329075,0.8114934114202049
2503,0.011566634089329075,0.8115849194729137
2504,0.011576709554563682,0.8115849194729137
2505,0.011576709554563682,0.8116764275256223
2506,0.011606935950267504,0.8116764275256223
2507,0.011606935950267504,0.8117679355783309
2508,0.011611973682884807,0.8117679355783309
2509,0.011611973682884807,0.8119509516837482
2510,0.011632124613354021,0.8119509516837482
2511,0.011632124613354021,0.8120424597364568
2512,0.011652275543823237,0.8120424597364568
2513,0.011652275543823237,0.8121339677891655
2514,0.01165731327644054,0.8121339677891655
2515,0.01165731327644054,0.8122254758418741
2516,0.011667388741675147,0.8122254758418741
2517,0.011667388741675147,0.8124084919472914
2518,0.01167242647429245,0.8124084919472914
2519,0.01167242647429245,0.8125
2520,0.011682501939527058,0.8125
2521,0.011682501939527058,0.8125915080527086
2522,0.011687539672144361,0.8125915080527086
2523,0.011687539672144361,0.8127745241581259
2524,0.011702652869996272,0.8127745241581259
2525,0.011702652869996272,0.8128660322108345
2526,0.011722803800465486,0.8128660322108345
2527,0.011722803800465486,0.8130490483162518
2528,0.011773181126638523,0.8130490483162518
2529,0.011773181126638523,0.8131405563689604
2530,0.011793332057107737,0.8131405563689604
2531,0.011793332057107737,0.8132320644216691
2532,0.01179836978972504,0.8132320644216691
2533,0.01179836978972504,0.8135065885797951
2534,0.011803407522342345,0.8135065885797951
2535,0.011803407522342345,0.813781112737921
2536,0.011808445254959648,0.813781112737921
2537,0.011808445254959648,0.8139641288433382
2538,0.011813482987576951,0.8139641288433382
2539,0.011813482987576951,0.8141471449487555
2540,0.01183867165066347,0.8141471449487555
2541,0.01183867165066347,0.8142386530014641
2542,0.011843709383280773,0.8142386530014641
2543,0.011843709383280773,0.8143301610541728
2544,0.011863860313749988,0.8143301610541728
2545,0.011863860313749988,0.8144216691068814
2546,0.011868898046367291,0.8144216691068814
2547,0.011868898046367291,0.8146961932650073
2548,0.011873935778984594,0.8146961932650073
2549,0.011873935778984594,0.8147877013177159
2550,0.011878973511601899,0.8147877013177159
2551,0.011878973511601899,0.8148792093704246
2552,0.011899124442071113,0.8148792093704246
2553,0.011899124442071113,0.8149707174231332
2554,0.01190919990730572,0.8149707174231332
2555,0.01190919990730572,0.8150622254758418
2556,0.011914237639923024,0.8150622254758418
2557,0.011914237639923024,0.8151537335285505
2558,0.011949501768244148,0.8151537335285505
2559,0.011954539500861453,0.8152452415812591
2560,0.011969652698713362,0.8152452415812591
2561,0.011969652698713362,0.8156112737920937
2562,0.01197972816394797,0.8156112737920937
2563,0.01197972816394797,0.815794289897511
2564,0.011984765896565273,0.815794289897511
2565,0.011984765896565273,0.8158857979502196
2566,0.011999879094417184,0.8158857979502196
2567,0.011999879094417184,0.8159773060029283
2568,0.012014992292269095,0.8159773060029283
2569,0.012014992292269095,0.8161603221083455
2570,0.0120200300248864,0.8161603221083455
2571,0.0120200300248864,0.8163433382137628
2572,0.012025067757503703,0.8163433382137628
2573,0.012025067757503703,0.8165263543191801
2574,0.012040180955355613,0.8165263543191801
2575,0.012040180955355613,0.8167093704245973
2576,0.012075445083676738,0.8167093704245973
2577,0.012075445083676738,0.8168923865300146
2578,0.012085520548911346,0.8168923865300146
2579,0.012085520548911346,0.8169838945827232
2580,0.012090558281528649,0.8169838945827232
2581,0.012090558281528649,0.8170754026354319
2582,0.012100633746763257,0.8170754026354319
2583,0.012100633746763257,0.8171669106881405
2584,0.01210567147938056,0.8171669106881405
2585,0.01210567147938056,0.8172584187408491
2586,0.012110709211997864,0.8172584187408491
2587,0.012110709211997864,0.8173499267935578
2588,0.012115746944615167,0.8173499267935578
2589,0.012115746944615167,0.8174414348462665
2590,0.012130860142467078,0.8174414348462665
2591,0.012130860142467078,0.8175329428989752
2592,0.012151011072936292,0.8175329428989752
2593,0.012151011072936292,0.8177159590043924
2594,0.012156048805553597,0.8177159590043924
2595,0.012156048805553597,0.8178074670571011
2596,0.0121610865381709,0.8178074670571011
2597,0.0121610865381709,0.8178989751098097
2598,0.012186275201257419,0.8178989751098097
2599,0.012186275201257419,0.818081991215227
2600,0.012191312933874722,0.818081991215227
2601,0.012191312933874722,0.8181734992679356
2602,0.01220138839910933,0.8181734992679356
2603,0.01220138839910933,0.8182650073206442
2604,0.012206426131726632,0.8182650073206442
2605,0.012206426131726632,0.8183565153733529
2606,0.012251765725282365,0.8183565153733529
2607,0.012251765725282365,0.8184480234260615
2608,0.012281992120986187,0.8184480234260615
2609,0.012281992120986187,0.8185395314787701
2610,0.01228702985360349,0.8185395314787701
2611,0.01228702985360349,0.8186310395314788
2612,0.012292067586220794,0.8186310395314788
2613,0.012292067586220794,0.8187225475841874
2614,0.012307180784072705,0.8187225475841874
2615,0.012307180784072705,0.818814055636896
2616,0.01235755811024574,0.818814055636896
2617,0.01235755811024574,0.8189055636896047
2618,0.012372671308097652,0.8189055636896047
2619,0.012372671308097652,0.8189970717423133
2620,0.012392822238566865,0.8189970717423133
2621,0.012392822238566865,0.8190885797950219
2622,0.012433124099505295,0.8190885797950219
2623,0.012433124099505295,0.8193631039531479
2624,0.012448237297357206,0.8193631039531479
2625,0.012448237297357206,0.8194546120058566
2626,0.012463350495209117,0.8194546120058566
2627,0.012463350495209117,0.8195461200585652
2628,0.01246838822782642,0.8195461200585652
2629,0.01246838822782642,0.8196376281112738
2630,0.012473425960443724,0.8196376281112738
2631,0.012473425960443724,0.8197291361639825
2632,0.012478463693061027,0.8197291361639825
2633,0.012478463693061027,0.8198206442166911
2634,0.012488539158295633,0.8198206442166911
2635,0.012488539158295633,0.8200036603221084
2636,0.01252380328661676,0.8200036603221084
2637,0.01252380328661676,0.820095168374817
2638,0.012528841019234063,0.820095168374817
2639,0.012528841019234063,0.8201866764275256
2640,0.012564105147555188,0.8201866764275256
2641,0.012564105147555188,0.8203696925329429
2642,0.012599369275876314,0.8203696925329429
2643,0.012599369275876314,0.8204612005856515
2644,0.012614482473728225,0.8204612005856515
2645,0.012614482473728225,0.8205527086383602
2646,0.012619520206345528,0.8206442166910688
2647,0.012669897532518563,0.8206442166910688
2648,0.012669897532518563,0.8207357247437774
2649,0.012674935265135868,0.8207357247437774
2650,0.012674935265135868,0.8208272327964861
2651,0.012690048462987779,0.8208272327964861
2652,0.012690048462987779,0.8209187408491947
2653,0.01270516166083969,0.8209187408491947
2654,0.01270516166083969,0.8210102489019033
2655,0.012715237126074296,0.8210102489019033
2656,0.012715237126074296,0.821101756954612
2657,0.012725312591308904,0.821101756954612
2658,0.012725312591308904,0.8211932650073206
2659,0.012750501254395422,0.8211932650073206
2660,0.012750501254395422,0.821376281112738
2661,0.012765614452247333,0.821376281112738
2662,0.012765614452247333,0.8215592972181552
2663,0.012810954045803066,0.8215592972181552
2664,0.012810954045803066,0.8216508052708639
2665,0.012851255906741493,0.8216508052708639
2666,0.012851255906741493,0.8218338213762811
2667,0.012866369104593404,0.8218338213762811
2668,0.012866369104593404,0.8219253294289898
2669,0.012881482302445315,0.8219253294289898
2670,0.012881482302445315,0.8220168374816984
2671,0.012896595500297226,0.8220168374816984
2672,0.012896595500297226,0.822108345534407
2673,0.012926821896001047,0.822108345534407
2674,0.012926821896001047,0.8222913616398243
2675,0.012957048291704869,0.8222913616398243
2676,0.012957048291704869,0.8223828696925329
2677,0.01298727468740869,0.8223828696925329
