,fpr,tpr
0,0.0,0.0
1,0.0,0.0006944444444444445
2,1.6518004625041296e-05,0.0006944444444444445
3,1.6518004625041296e-05,0.0020833333333333333
4,3.303600925008259e-05,0.0020833333333333333
5,3.303600925008259e-05,0.002777777777777778
6,4.955401387512388e-05,0.002777777777777778
7,4.955401387512388e-05,0.016666666666666666
8,6.607201850016519e-05,0.016666666666666666
9,6.607201850016519e-05,0.029861111111111113
10,8.259002312520647e-05,0.029861111111111113
11,8.259002312520647e-05,0.041666666666666664
12,9.910802775024777e-05,0.041666666666666664
13,9.910802775024777e-05,0.06597222222222222
14,9.910802775024777e-05,0.06736111111111111
15,9.910802775024777e-05,0.07708333333333334
16,0.00011562603237528906,0.07708333333333334
17,0.00011562603237528906,0.0798611111111111
18,0.00011562603237528906,0.08125
19,0.00011562603237528906,0.08888888888888889
20,0.00013214403700033037,0.08888888888888889
21,0.00013214403700033037,0.10138888888888889
22,0.00014866204162537167,0.10138888888888889
23,0.00014866204162537167,0.11805555555555555
24,0.00014866204162537167,0.11944444444444445
25,0.00014866204162537167,0.125
26,0.00016518004625041294,0.125
27,0.00016518004625041294,0.1388888888888889
28,0.00018169805087545423,0.1388888888888889
29,0.00018169805087545423,0.15138888888888888
30,0.00019821605550049553,0.15138888888888888
31,0.00019821605550049553,0.15208333333333332
32,0.00021473406012553683,0.15208333333333332
33,0.00021473406012553683,0.15833333333333333
34,0.00023125206475057812,0.15833333333333333
35,0.0002477700693756194,0.15902777777777777
36,0.0002477700693756194,0.16666666666666666
37,0.00026428807400066074,0.16666666666666666
38,0.00026428807400066074,0.1736111111111111
39,0.000280806078625702,0.1736111111111111
40,0.000280806078625702,0.18125
41,0.00029732408325074334,0.18125
42,0.00029732408325074334,0.18472222222222223
43,0.0003138420878757846,0.18472222222222223
44,0.0003138420878757846,0.20347222222222222
45,0.0003303600925008259,0.20347222222222222
46,0.0003303600925008259,0.20555555555555555
47,0.0003468780971258672,0.20555555555555555
48,0.0003468780971258672,0.21180555555555555
49,0.0003468780971258672,0.21319444444444444
50,0.0003468780971258672,0.22013888888888888
51,0.00036339610175090847,0.22013888888888888
52,0.00036339610175090847,0.22083333333333333
53,0.0003799141063759498,0.22083333333333333
54,0.0003799141063759498,0.24097222222222223
55,0.0003799141063759498,0.2423611111111111
56,0.0003799141063759498,0.24305555555555555
57,0.0003799141063759498,0.24444444444444444
58,0.0003799141063759498,0.25833333333333336
59,0.00039643211100099106,0.25833333333333336
60,0.00039643211100099106,0.26319444444444445
61,0.0004129501156260324,0.26319444444444445
62,0.0004129501156260324,0.2638888888888889
63,0.00042946812025107365,0.2638888888888889
64,0.00042946812025107365,0.26805555555555555
65,0.000445986124876115,0.26805555555555555
66,0.000445986124876115,0.2743055555555556
67,0.00046250412950115625,0.2743055555555556
68,0.00046250412950115625,0.2798611111111111
69,0.00047902213412619757,0.2798611111111111
70,0.00047902213412619757,0.2861111111111111
71,0.0004955401387512388,0.2861111111111111
72,0.0004955401387512388,0.28958333333333336
73,0.0005120581433762802,0.28958333333333336
74,0.0005120581433762802,0.30486111111111114
75,0.0005120581433762802,0.30625
76,0.0005120581433762802,0.3104166666666667
77,0.0005285761480013215,0.3104166666666667
78,0.0005285761480013215,0.3194444444444444
79,0.0005450941526263627,0.3194444444444444
80,0.0005450941526263627,0.3263888888888889
81,0.000561612157251404,0.3263888888888889
82,0.000561612157251404,0.33125
83,0.0005946481665014867,0.33125
84,0.0005946481665014867,0.3347222222222222
85,0.0006111661711265279,0.3347222222222222
86,0.0006111661711265279,0.3416666666666667
87,0.0006276841757515692,0.3416666666666667
88,0.0006276841757515692,0.34305555555555556
89,0.0006442021803766105,0.34305555555555556
90,0.0006442021803766105,0.3472222222222222
91,0.0006607201850016518,0.3472222222222222
92,0.0006607201850016518,0.34791666666666665
93,0.0006607201850016518,0.34930555555555554
94,0.0006607201850016518,0.35138888888888886
95,0.0006772381896266931,0.35138888888888886
96,0.0006772381896266931,0.35625
97,0.0006937561942517344,0.35625
98,0.0006937561942517344,0.35694444444444445
99,0.0007102741988767757,0.35694444444444445
100,0.0007102741988767757,0.37083333333333335
101,0.0007267922035018169,0.37083333333333335
102,0.0007267922035018169,0.37222222222222223
103,0.0007433102081268583,0.37222222222222223
104,0.0007433102081268583,0.3729166666666667
105,0.0007598282127518996,0.3729166666666667
106,0.0007598282127518996,0.375
107,0.0007763462173769409,0.375
108,0.0007763462173769409,0.38125
109,0.0008093822266270234,0.38125
110,0.0008093822266270234,0.38263888888888886
111,0.0008259002312520648,0.38263888888888886
112,0.0008259002312520648,0.38472222222222224
113,0.0008424182358771061,0.38472222222222224
114,0.0008424182358771061,0.3854166666666667
115,0.0008424182358771061,0.38680555555555557
116,0.0008589362405021473,0.38680555555555557
117,0.0008589362405021473,0.3875
118,0.0008754542451271886,0.3875
119,0.0008754542451271886,0.3888888888888889
120,0.00089197224975223,0.3888888888888889
121,0.00089197224975223,0.39861111111111114
122,0.0009084902543772713,0.39861111111111114
123,0.0009084902543772713,0.40069444444444446
124,0.0009084902543772713,0.40208333333333335
125,0.0009084902543772713,0.4027777777777778
126,0.0009250082590023125,0.4027777777777778
127,0.0009250082590023125,0.4041666666666667
128,0.0009250082590023125,0.41388888888888886
129,0.0009415262636273538,0.41388888888888886
130,0.0009415262636273538,0.41458333333333336
131,0.0009580442682523951,0.41458333333333336
132,0.0009580442682523951,0.4173611111111111
133,0.0009745622728774364,0.4173611111111111
134,0.0009745622728774364,0.41944444444444445
135,0.0009910802775024777,0.41944444444444445
136,0.0009910802775024777,0.42916666666666664
137,0.001007598282127519,0.42916666666666664
138,0.001007598282127519,0.43125
139,0.0010241162867525603,0.43125
140,0.0010241162867525603,0.43472222222222223
141,0.0010406342913776017,0.43472222222222223
142,0.0010406342913776017,0.45416666666666666
143,0.001057152296002643,0.45416666666666666
144,0.001057152296002643,0.45902777777777776
145,0.001073670300627684,0.45902777777777776
146,0.001073670300627684,0.46111111111111114
147,0.0010901883052527254,0.46111111111111114
148,0.0010901883052527254,0.4618055555555556
149,0.0011397423191278494,0.4618055555555556
150,0.0011397423191278494,0.4625
151,0.0011562603237528907,0.4625
152,0.0011562603237528907,0.4638888888888889
153,0.001172778328377932,0.4638888888888889
154,0.001172778328377932,0.46805555555555556
155,0.0011892963330029733,0.46805555555555556
156,0.0011892963330029733,0.4736111111111111
157,0.0012058143376280145,0.4736111111111111
158,0.0012058143376280145,0.48055555555555557
159,0.0012223323422530558,0.48055555555555557
160,0.0012223323422530558,0.48194444444444445
161,0.001238850346878097,0.48194444444444445
162,0.001238850346878097,0.4847222222222222
163,0.0012718863561281797,0.4847222222222222
164,0.001288404360753221,0.48541666666666666
165,0.001288404360753221,0.48819444444444443
166,0.0013379583746283448,0.48819444444444443
167,0.0013379583746283448,0.4895833333333333
168,0.0013544763792533861,0.4895833333333333
169,0.0013544763792533861,0.49027777777777776
170,0.0013709943838784275,0.49027777777777776
171,0.0013709943838784275,0.49166666666666664
172,0.0013875123885034688,0.49166666666666664
173,0.0013875123885034688,0.4965277777777778
174,0.0014040303931285101,0.4965277777777778
175,0.0014040303931285101,0.5055555555555555
176,0.0014535844070036339,0.5055555555555555
177,0.0014535844070036339,0.5090277777777777
178,0.0014866204162537165,0.5090277777777777
179,0.0014866204162537165,0.5097222222222222
180,0.0015031384208787578,0.5097222222222222
181,0.0015031384208787578,0.5118055555555555
182,0.0015196564255037992,0.5118055555555555
183,0.0015196564255037992,0.5131944444444444
184,0.0015526924347538818,0.5131944444444444
185,0.0015526924347538818,0.5166666666666667
186,0.001569210439378923,0.5166666666666667
187,0.001569210439378923,0.5201388888888889
188,0.001618764453254047,0.5201388888888889
189,0.001618764453254047,0.5222222222222223
190,0.0016352824578790882,0.5222222222222223
191,0.0016352824578790882,0.5229166666666667
192,0.0016683184671291709,0.5229166666666667
193,0.0016683184671291709,0.5236111111111111
194,0.0016848364717542122,0.5236111111111111
195,0.0016848364717542122,0.5243055555555556
196,0.0017013544763792533,0.5243055555555556
197,0.0017013544763792533,0.5277777777777778
198,0.0017178724810042946,0.5277777777777778
199,0.0017178724810042946,0.5305555555555556
200,0.001734390485629336,0.5305555555555556
201,0.001734390485629336,0.5402777777777777
202,0.0017674264948794186,0.5402777777777777
203,0.0017674264948794186,0.54375
204,0.00178394449950446,0.54375
205,0.00178394449950446,0.5465277777777777
206,0.0018004625041295012,0.5465277777777777
207,0.0018004625041295012,0.5493055555555556
208,0.0018169805087545426,0.5493055555555556
209,0.0018169805087545426,0.5520833333333334
210,0.0018334985133795837,0.5520833333333334
211,0.0018334985133795837,0.5541666666666667
212,0.001850016518004625,0.5541666666666667
213,0.001850016518004625,0.55625
214,0.0018665345226296663,0.55625
215,0.0018665345226296663,0.5583333333333333
216,0.0018830525272547076,0.5583333333333333
217,0.0018830525272547076,0.5590277777777778
218,0.001899570531879749,0.5590277777777778
219,0.001899570531879749,0.5597222222222222
220,0.0019160885365047903,0.5597222222222222
221,0.0019160885365047903,0.5611111111111111
222,0.0019326065411298316,0.5611111111111111
223,0.0019326065411298316,0.5618055555555556
224,0.0019491245457548727,0.5618055555555556
225,0.0019491245457548727,0.5645833333333333
226,0.001965642550379914,0.5645833333333333
227,0.001965642550379914,0.5680555555555555
228,0.0019821605550049554,0.5680555555555555
229,0.0019821605550049554,0.5708333333333333
230,0.0019986785596299967,0.5708333333333333
231,0.0019986785596299967,0.5715277777777777
232,0.002015196564255038,0.5715277777777777
233,0.002015196564255038,0.5777777777777777
234,0.0020317145688800793,0.5777777777777777
235,0.0020317145688800793,0.5784722222222223
236,0.002064750578130162,0.5784722222222223
237,0.002064750578130162,0.5791666666666667
238,0.0020977865873802446,0.5791666666666667
239,0.0020977865873802446,0.5826388888888889
240,0.002114304592005286,0.5826388888888889
241,0.002114304592005286,0.5840277777777778
242,0.0021308225966303273,0.5840277777777778
243,0.0021308225966303273,0.5861111111111111
244,0.0021638586058804095,0.5861111111111111
245,0.0021638586058804095,0.5895833333333333
246,0.002196894615130492,0.5895833333333333
247,0.0022299306243805748,0.5895833333333333
248,0.0022794846382556988,0.5895833333333333
249,0.0022794846382556988,0.5902777777777778
250,0.00229600264288074,0.5902777777777778
251,0.00229600264288074,0.5923611111111111
252,0.0023125206475057814,0.5923611111111111
253,0.0023125206475057814,0.5944444444444444
254,0.0023290386521308227,0.5944444444444444
255,0.0023290386521308227,0.5965277777777778
256,0.002345556656755864,0.5965277777777778
257,0.002345556656755864,0.5972222222222222
258,0.0023620746613809054,0.5972222222222222
259,0.0023620746613809054,0.5979166666666667
260,0.0023785926660059467,0.5979166666666667
261,0.0023785926660059467,0.5986111111111111
262,0.0023951106706309876,0.5986111111111111
263,0.0023951106706309876,0.6006944444444444
264,0.002411628675256029,0.6006944444444444
265,0.002411628675256029,0.6027777777777777
266,0.0024281466798810702,0.6027777777777777
267,0.0024281466798810702,0.6069444444444444
268,0.0024446646845061116,0.6069444444444444
269,0.0024446646845061116,0.6076388888888888
270,0.002510736703006277,0.6076388888888888
271,0.002510736703006277,0.6104166666666667
272,0.002527254707631318,0.6104166666666667
273,0.002527254707631318,0.6111111111111112
274,0.002576808721506442,0.6111111111111112
275,0.002576808721506442,0.6159722222222223
276,0.0025933267261314835,0.6159722222222223
277,0.0025933267261314835,0.6166666666666667
278,0.002642880740006607,0.6166666666666667
279,0.002642880740006607,0.6173611111111111
280,0.0026593987446316483,0.6173611111111111
281,0.0026593987446316483,0.61875
282,0.0026759167492566896,0.61875
283,0.0026759167492566896,0.6208333333333333
284,0.0027254707631318136,0.6208333333333333
285,0.0027254707631318136,0.6222222222222222
286,0.002741988767756855,0.6222222222222222
287,0.002741988767756855,0.6236111111111111
288,0.002841096795507103,0.6236111111111111
289,0.002841096795507103,0.625
290,0.002857614800132144,0.625
291,0.002857614800132144,0.6263888888888889
292,0.0029071688140072677,0.6263888888888889
293,0.0029071688140072677,0.6284722222222222
294,0.002923686818632309,0.6284722222222222
295,0.002923686818632309,0.6305555555555555
296,0.0029402048232573504,0.6305555555555555
297,0.0029402048232573504,0.6326388888888889
298,0.002973240832507433,0.6326388888888889
299,0.002973240832507433,0.6347222222222222
300,0.003022794846382557,0.6347222222222222
301,0.003022794846382557,0.6361111111111111
302,0.0030393128510075983,0.6361111111111111
303,0.0030393128510075983,0.6375
304,0.0030558308556326397,0.6375
305,0.0030558308556326397,0.6388888888888888
306,0.003072348860257681,0.6388888888888888
307,0.003072348860257681,0.6409722222222223
308,0.0030888668648827223,0.6409722222222223
309,0.0030888668648827223,0.6479166666666667
310,0.0031053848695077636,0.6479166666666667
311,0.0031053848695077636,0.6493055555555556
312,0.003138420878757846,0.6493055555555556
313,0.003138420878757846,0.6506944444444445
314,0.00318797489263297,0.6506944444444445
315,0.00318797489263297,0.6513888888888889
316,0.003204492897258011,0.6513888888888889
317,0.003204492897258011,0.6520833333333333
318,0.003237528906508094,0.6520833333333333
319,0.003237528906508094,0.6527777777777778
320,0.0032870829203832178,0.6527777777777778
321,0.0032870829203832178,0.6534722222222222
322,0.003303600925008259,0.6534722222222222
323,0.003303600925008259,0.6548611111111111
324,0.0033201189296333004,0.6548611111111111
325,0.0033201189296333004,0.6583333333333333
326,0.003353154938883383,0.6583333333333333
327,0.003353154938883383,0.6597222222222222
328,0.003353154938883383,0.6611111111111111
329,0.003353154938883383,0.6625
330,0.0033696729435084244,0.6625
331,0.0033696729435084244,0.6631944444444444
332,0.0033861909481334653,0.6631944444444444
333,0.0033861909481334653,0.6638888888888889
334,0.0034027089527585066,0.6638888888888889
335,0.0034027089527585066,0.6645833333333333
336,0.0034522629666336306,0.6645833333333333
337,0.0034522629666336306,0.6652777777777777
338,0.00356788899900892,0.6652777777777777
339,0.00356788899900892,0.6659722222222222
340,0.003584407003633961,0.6659722222222222
341,0.003584407003633961,0.6680555555555555
342,0.0036009250082590025,0.6680555555555555
343,0.0036009250082590025,0.6694444444444444
344,0.0036669970267591673,0.6694444444444444
345,0.0036669970267591673,0.6715277777777777
346,0.0036835150313842087,0.6715277777777777
347,0.0036835150313842087,0.6722222222222223
348,0.00370003303600925,0.6722222222222223
349,0.00370003303600925,0.6729166666666667
350,0.0037165510406342913,0.6729166666666667
351,0.0037165510406342913,0.6736111111111112
352,0.0037661050545094153,0.6736111111111112
353,0.0037661050545094153,0.675
354,0.0037826230591344566,0.675
355,0.0037826230591344566,0.6763888888888889
356,0.003848695077634622,0.6763888888888889
357,0.003848695077634622,0.6770833333333334
358,0.003914767096134787,0.6770833333333334
359,0.003914767096134787,0.6777777777777778
360,0.003931285100759828,0.6777777777777778
361,0.003931285100759828,0.6784722222222223
362,0.00394780310538487,0.6784722222222223
363,0.00394780310538487,0.6791666666666667
364,0.003997357119259993,0.6791666666666667
365,0.003997357119259993,0.6798611111111111
366,0.004013875123885034,0.6798611111111111
367,0.004013875123885034,0.6840277777777778
368,0.004112983151635282,0.6840277777777778
369,0.004112983151635282,0.6847222222222222
370,0.004146019160885365,0.6847222222222222
371,0.004146019160885365,0.6868055555555556
372,0.0041790551701354475,0.6868055555555556
373,0.0041790551701354475,0.6875
374,0.004245127188635613,0.6875
375,0.004245127188635613,0.6895833333333333
376,0.0042616451932606545,0.6895833333333333
377,0.0042616451932606545,0.6916666666666667
378,0.0042781631978856954,0.6916666666666667
379,0.0042781631978856954,0.6930555555555555
380,0.004294681202510736,0.6930555555555555
381,0.004294681202510736,0.6944444444444444
382,0.004294681202510736,0.6951388888888889
383,0.004327717211760819,0.6951388888888889
384,0.004327717211760819,0.6972222222222222
385,0.004344235216385861,0.6972222222222222
386,0.004344235216385861,0.6979166666666666
387,0.004360753221010902,0.6979166666666666
388,0.004360753221010902,0.6993055555555555
389,0.004410307234886026,0.6993055555555555
390,0.004410307234886026,0.7
391,0.004492897258011232,0.7
392,0.004492897258011232,0.7013888888888888
393,0.004509415262636274,0.7013888888888888
394,0.004509415262636274,0.7020833333333333
395,0.004575487281136438,0.7020833333333333
396,0.004575487281136438,0.7034722222222223
397,0.004625041295011563,0.7034722222222223
398,0.004625041295011563,0.7069444444444445
399,0.004641559299636604,0.7069444444444445
400,0.004641559299636604,0.7076388888888889
401,0.0046580773042616454,0.7076388888888889
402,0.0046580773042616454,0.7083333333333334
403,0.004724149322761811,0.7083333333333334
404,0.004724149322761811,0.7090277777777778
405,0.004806739345887017,0.7090277777777778
406,0.004806739345887017,0.7097222222222223
407,0.004823257350512058,0.7097222222222223
408,0.004823257350512058,0.7111111111111111
409,0.0048562933597621405,0.7111111111111111
410,0.0048562933597621405,0.7125
411,0.004905847373637265,0.7125
412,0.004905847373637265,0.7131944444444445
413,0.0049388833828873475,0.7131944444444445
414,0.0049388833828873475,0.7138888888888889
415,0.004955401387512388,0.7138888888888889
416,0.004955401387512388,0.7145833333333333
417,0.004988437396762471,0.7145833333333333
418,0.004988437396762471,0.7152777777777778
419,0.004988437396762471,0.7166666666666667
420,0.005004955401387513,0.7166666666666667
421,0.005004955401387513,0.7180555555555556
422,0.005037991410637595,0.7180555555555556
423,0.005037991410637595,0.71875
424,0.005252725470763132,0.71875
425,0.005252725470763132,0.7194444444444444
426,0.005269243475388173,0.7194444444444444
427,0.005269243475388173,0.7201388888888889
428,0.005417905517013545,0.7201388888888889
429,0.005417905517013545,0.7208333333333333
430,0.005450941526263627,0.7208333333333333
431,0.005450941526263627,0.7215277777777778
432,0.005550049554013875,0.7215277777777778
433,0.005550049554013875,0.7222222222222222
434,0.0056161215725140405,0.7222222222222222
435,0.0056161215725140405,0.7243055555555555
436,0.005649157581764123,0.7243055555555555
437,0.005649157581764123,0.7256944444444444
438,0.005682193591014206,0.7256944444444444
439,0.005682193591014206,0.7263888888888889
440,0.005715229600264288,0.7263888888888889
441,0.005715229600264288,0.7277777777777777
442,0.005731747604889329,0.7277777777777777
443,0.005731747604889329,0.7291666666666666
444,0.005748265609514371,0.7291666666666666
445,0.005748265609514371,0.7298611111111111
446,0.005880409646514701,0.7298611111111111
447,0.005880409646514701,0.7305555555555555
448,0.0058969276511397425,0.7305555555555555
449,0.0058969276511397425,0.73125
450,0.0059960356788899905,0.73125
451,0.0059960356788899905,0.7319444444444444
452,0.006012553683515031,0.7319444444444444
453,0.006012553683515031,0.7326388888888888
454,0.006062107697390155,0.7326388888888888
455,0.006062107697390155,0.7340277777777777
456,0.006078625702015197,0.7340277777777777
457,0.006078625702015197,0.7354166666666667
458,0.006144697720515362,0.7354166666666667
459,0.006144697720515362,0.7361111111111112
460,0.006161215725140403,0.7361111111111112
461,0.006161215725140403,0.7368055555555556
462,0.00624380574826561,0.7368055555555556
463,0.00624380574826561,0.7381944444444445
464,0.006276841757515692,0.7381944444444445
465,0.006276841757515692,0.7388888888888889
466,0.006309877766765774,0.7388888888888889
467,0.006309877766765774,0.7395833333333334
468,0.006342913776015857,0.7395833333333334
469,0.006342913776015857,0.7409722222222223
470,0.00637594978526594,0.7409722222222223
471,0.00637594978526594,0.7416666666666667
472,0.006392467789890981,0.7416666666666667
473,0.006392467789890981,0.7423611111111111
474,0.006475057813016188,0.7423611111111111
475,0.006475057813016188,0.7430555555555556
476,0.006491575817641229,0.7430555555555556
477,0.006491575817641229,0.74375
478,0.006541129831516353,0.74375
479,0.006541129831516353,0.7451388888888889
480,0.006557647836141394,0.7451388888888889
481,0.006590683845391476,0.7451388888888889
482,0.006590683845391476,0.7458333333333333
483,0.006739345887016849,0.7458333333333333
484,0.006739345887016849,0.7465277777777778
485,0.006788899900891972,0.7465277777777778
486,0.006788899900891972,0.7472222222222222
487,0.006838453914767096,0.7472222222222222
488,0.006838453914767096,0.7486111111111111
489,0.006854971919392138,0.7486111111111111
490,0.006854971919392138,0.7493055555555556
491,0.006904525933267261,0.7493055555555556
492,0.006904525933267261,0.75
493,0.006970597951767426,0.75
494,0.006970597951767426,0.7506944444444444
495,0.007020151965642551,0.7506944444444444
496,0.007020151965642551,0.7513888888888889
497,0.007036669970267592,0.7513888888888889
498,0.007036669970267592,0.7520833333333333
499,0.007069705979517674,0.7520833333333333
500,0.007069705979517674,0.7527777777777778
501,0.0071522960026428805,0.7527777777777778
502,0.0071522960026428805,0.7534722222222222
503,0.007234886025768088,0.7534722222222222
504,0.007234886025768088,0.7548611111111111
505,0.007317476048893294,0.7548611111111111
506,0.007317476048893294,0.7555555555555555
507,0.007416584076643542,0.7555555555555555
508,0.007416584076643542,0.75625
509,0.007416584076643542,0.7576388888888889
510,0.007482656095143707,0.7576388888888889
511,0.007482656095143707,0.7583333333333333
512,0.00751569210439379,0.7583333333333333
513,0.007548728113643871,0.7583333333333333
514,0.007565246118268913,0.7583333333333333
515,0.007565246118268913,0.7590277777777777
516,0.007581764122893954,0.7590277777777777
517,0.007581764122893954,0.7597222222222222
518,0.007647836141394119,0.7597222222222222
519,0.007647836141394119,0.7604166666666666
520,0.007697390155269244,0.7604166666666666
521,0.007697390155269244,0.7618055555555555
522,0.007713908159894285,0.7618055555555555
523,0.007713908159894285,0.7625
524,0.007796498183019491,0.7625
525,0.007796498183019491,0.7638888888888888
526,0.008143376280145359,0.7638888888888888
527,0.008143376280145359,0.7645833333333333
528,0.00817641228939544,0.7645833333333333
529,0.00817641228939544,0.7652777777777777
530,0.008308556326395771,0.7652777777777777
531,0.008308556326395771,0.7666666666666667
532,0.008325074331020813,0.7666666666666667
533,0.008325074331020813,0.76875
534,0.00842418235877106,0.76875
535,0.00842418235877106,0.7694444444444445
536,0.008490254377271226,0.7694444444444445
537,0.008490254377271226,0.7701388888888889
538,0.008589362405021473,0.7701388888888889
539,0.008589362405021473,0.7708333333333334
540,0.008605880409646514,0.7708333333333334
541,0.008605880409646514,0.7715277777777778
542,0.008622398414271556,0.7715277777777778
543,0.008622398414271556,0.7729166666666667
544,0.008638916418896598,0.7729166666666667
545,0.008638916418896598,0.7736111111111111
546,0.008721506442021803,0.7736111111111111
547,0.008721506442021803,0.775
548,0.008771060455896929,0.775
549,0.008771060455896929,0.7763888888888889
550,0.008820614469772052,0.7763888888888889
551,0.008820614469772052,0.7770833333333333
552,0.008870168483647176,0.7770833333333333
553,0.008870168483647176,0.7777777777777778
554,0.008969276511397423,0.7777777777777778
555,0.008969276511397423,0.7798611111111111
556,0.009068384539147671,0.7798611111111111
557,0.009068384539147671,0.7805555555555556
558,0.009200528576148002,0.7805555555555556
559,0.009200528576148002,0.7819444444444444
560,0.009217046580773042,0.7819444444444444
561,0.009217046580773042,0.7826388888888889
562,0.009415262636273538,0.7826388888888889
563,0.009415262636273538,0.7840277777777778
564,0.00943178064089858,0.7840277777777778
565,0.00943178064089858,0.7847222222222222
566,0.009448298645523621,0.7847222222222222
567,0.009464816650148661,0.7854166666666667
568,0.00958044268252395,0.7854166666666667
569,0.00958044268252395,0.7861111111111111
570,0.0096795507102742,0.7861111111111111
571,0.0096795507102742,0.7868055555555555
572,0.009745622728774364,0.7868055555555555
573,0.009745622728774364,0.7881944444444444
574,0.009844730756524612,0.7881944444444444
575,0.009844730756524612,0.7888888888888889
576,0.009927320779649819,0.7888888888888889
577,0.009927320779649819,0.7895833333333333
578,0.010009910802775026,0.7895833333333333
579,0.010009910802775026,0.7902777777777777
580,0.010109018830525273,0.7902777777777777
581,0.010109018830525273,0.7909722222222222
582,0.010142054839775354,0.7909722222222222
583,0.010175090849025438,0.7909722222222222
584,0.010406342913776016,0.7909722222222222
585,0.010406342913776016,0.7916666666666666
586,0.010703666997026759,0.7916666666666666
587,0.010703666997026759,0.79375
588,0.010753221010901884,0.79375
589,0.010753221010901884,0.7944444444444444
590,0.010819293029402047,0.7944444444444444
591,0.010819293029402047,0.7951388888888888
592,0.011000991080277503,0.7951388888888888
593,0.011000991080277503,0.7958333333333333
594,0.011034027089527585,0.7958333333333333
595,0.011034027089527585,0.7972222222222223
596,0.011067063098777667,0.7972222222222223
597,0.011067063098777667,0.7979166666666667
598,0.011133135117277832,0.7979166666666667
599,0.011166171126527916,0.7979166666666667
600,0.011298315163528246,0.7979166666666667
601,0.011298315163528246,0.7986111111111112
602,0.011397423191278493,0.7986111111111112
603,0.011397423191278493,0.7993055555555556
604,0.011463495209778659,0.7993055555555556
605,0.011463495209778659,0.8
606,0.011529567228278824,0.8
607,0.011529567228278824,0.8006944444444445
608,0.011777337297654443,0.8006944444444445
609,0.011777337297654443,0.8013888888888889
610,0.01185992732077965,0.8013888888888889
611,0.01185992732077965,0.8020833333333334
612,0.01187644532540469,0.8020833333333334
613,0.01187644532540469,0.8027777777777778
614,0.012008589362405021,0.8027777777777778
615,0.012008589362405021,0.8034722222222223
616,0.012041625371655105,0.8034722222222223
617,0.012041625371655105,0.8041666666666667
618,0.012322431450280806,0.8041666666666667
619,0.012322431450280806,0.8048611111111111
620,0.012338949454905847,0.8048611111111111
621,0.012338949454905847,0.8055555555555556
622,0.012438057482656095,0.8055555555555556
623,0.012438057482656095,0.8069444444444445
624,0.012520647505781302,0.8069444444444445
625,0.012520647505781302,0.8076388888888889
626,0.012702345556656756,0.8076388888888889
627,0.012702345556656756,0.8090277777777778
628,0.01275189957053188,0.8090277777777778
629,0.01275189957053188,0.8104166666666667
630,0.012768417575156921,0.8104166666666667
631,0.012768417575156921,0.8111111111111111
632,0.012851007598282128,0.8111111111111111
633,0.012851007598282128,0.8125
634,0.01288404360753221,0.8125
635,0.01288404360753221,0.8131944444444444
636,0.012966633630657417,0.8131944444444444
637,0.012966633630657417,0.8145833333333333
638,0.013197885695407995,0.8145833333333333
639,0.013197885695407995,0.8159722222222222
640,0.013214403700033036,0.8159722222222222
641,0.013214403700033036,0.8166666666666667
642,0.01326395771390816,0.8166666666666667
643,0.01326395771390816,0.8173611111111111
644,0.013280475718533202,0.8173611111111111
645,0.013280475718533202,0.8180555555555555
646,0.013594317806408986,0.8180555555555555
647,0.013627353815659068,0.8180555555555555
648,0.013693425834159233,0.8180555555555555
649,0.013693425834159233,0.81875
650,0.013858605880409646,0.81875
651,0.01389164188965973,0.81875
652,0.013908159894284771,0.81875
653,0.013941195903534853,0.81875
654,0.014188965972910472,0.81875
655,0.014188965972910472,0.8194444444444444
656,0.014502808060786257,0.8194444444444444
657,0.014502808060786257,0.8201388888888889
658,0.014519326065411299,0.8201388888888889
659,0.014519326065411299,0.8208333333333333
660,0.01455236207466138,0.8208333333333333
661,0.01455236207466138,0.8215277777777777
662,0.014585398083911464,0.8215277777777777
663,0.014585398083911464,0.8222222222222222
664,0.014684506111661711,0.8222222222222222
665,0.014684506111661711,0.8229166666666666
666,0.014816650148662042,0.8229166666666666
667,0.014816650148662042,0.8236111111111111
668,0.015196564255037992,0.8236111111111111
669,0.015196564255037992,0.8243055555555555
670,0.01531219028741328,0.8243055555555555
671,0.01531219028741328,0.825
672,0.015328708292038322,0.825
673,0.015328708292038322,0.8256944444444444
674,0.015460852329038653,0.8256944444444444
675,0.015460852329038653,0.8263888888888888
676,0.0155599603567889,0.8263888888888888
677,0.0155599603567889,0.8270833333333333
678,0.015609514370664023,0.8270833333333333
679,0.015642550379914105,0.8270833333333333
680,0.01580773042616452,0.8270833333333333
681,0.01580773042616452,0.8277777777777777
682,0.015857284440039643,0.8277777777777777
683,0.015857284440039643,0.8291666666666667
684,0.016055500495540137,0.8291666666666667
685,0.016055500495540137,0.8298611111111112
686,0.016171126527915428,0.8298611111111112
687,0.016171126527915428,0.83125
688,0.016551040634291376,0.83125
689,0.016551040634291376,0.8319444444444445
690,0.016617112652791543,0.8319444444444445
691,0.016617112652791543,0.8326388888888889
692,0.016749256689791873,0.8326388888888889
693,0.016782292699041957,0.8326388888888889
694,0.016881400726792204,0.8326388888888889
695,0.016914436736042288,0.8326388888888889
696,0.017030062768417575,0.8326388888888889
697,0.017030062768417575,0.8333333333333334
698,0.017046580773042618,0.8333333333333334
699,0.017046580773042618,0.8340277777777778
700,0.017228278823918072,0.8340277777777778
701,0.017228278823918072,0.8347222222222223
702,0.017244796828543112,0.8347222222222223
703,0.017244796828543112,0.8354166666666667
704,0.01734390485629336,0.8354166666666667
705,0.01734390485629336,0.8361111111111111
706,0.017376940865543443,0.8361111111111111
707,0.017376940865543443,0.8368055555555556
708,0.017575156921043937,0.8368055555555556
709,0.01760819293029402,0.8368055555555556
710,0.017657746944169144,0.8368055555555556
711,0.017657746944169144,0.8375
712,0.017822926990419558,0.8375
713,0.017822926990419558,0.8381944444444445
714,0.017839444995044598,0.8381944444444445
715,0.017839444995044598,0.8388888888888889
716,0.017888999008919722,0.8388888888888889
717,0.017922035018169805,0.8388888888888889
718,0.018318467129170797,0.8388888888888889
719,0.018318467129170797,0.8395833333333333
720,0.01851668318467129,0.8395833333333333
721,0.018549719193921375,0.8395833333333333
722,0.018582755203171458,0.8395833333333333
723,0.018582755203171458,0.8402777777777778
724,0.018665345226296662,0.8402777777777778
725,0.018665345226296662,0.8409722222222222
726,0.01874793524942187,0.8409722222222222
727,0.01874793524942187,0.8416666666666667
728,0.019094813346547737,0.8416666666666667
729,0.019094813346547737,0.8423611111111111
730,0.019408655434423522,0.8423611111111111
731,0.019408655434423522,0.8430555555555556
732,0.019590353485298976,0.8430555555555556
733,0.019590353485298976,0.84375
734,0.019739015526924347,0.84375
735,0.019739015526924347,0.8444444444444444
736,0.019937231582424844,0.8444444444444444
737,0.019937231582424844,0.8451388888888889
738,0.019986785596299968,0.8451388888888889
739,0.019986785596299968,0.8465277777777778
740,0.020449289725801123,0.8465277777777778
741,0.020482325735051207,0.8465277777777778
742,0.020498843739676247,0.8465277777777778
743,0.020498843739676247,0.8472222222222222
744,0.02051536174430129,0.8472222222222222
745,0.02051536174430129,0.8479166666666667
746,0.020630987776676577,0.8479166666666667
747,0.020630987776676577,0.8486111111111111
748,0.020862239841427155,0.8486111111111111
749,0.020862239841427155,0.8493055555555555
750,0.020977865873802445,0.8493055555555555
751,0.02101090188305253,0.8493055555555555
752,0.021209117938553023,0.8493055555555555
753,0.021209117938553023,0.8506944444444444
754,0.021275189957053187,0.8506944444444444
755,0.02130822596630327,0.8506944444444444
756,0.021721176081929302,0.8506944444444444
757,0.021721176081929302,0.8513888888888889
758,0.021886356128179716,0.8513888888888889
759,0.021886356128179716,0.8520833333333333
760,0.02208457218368021,0.8520833333333333
761,0.02208457218368021,0.8527777777777777
762,0.0222001982160555,0.8527777777777777
763,0.022233234225305584,0.8527777777777777
764,0.022233234225305584,0.8534722222222222
765,0.02231582424843079,0.8534722222222222
766,0.02231582424843079,0.8541666666666666
767,0.0226792203501817,0.8541666666666666
768,0.0226792203501817,0.8548611111111111
769,0.022728774364056823,0.8548611111111111
770,0.022728774364056823,0.8555555555555555
771,0.022893954410307234,0.8555555555555555
772,0.022926990419557317,0.8555555555555555
773,0.022993062438057484,0.8555555555555555
774,0.022993062438057484,0.85625
775,0.023075652461182688,0.85625
776,0.023075652461182688,0.8569444444444444
777,0.023406012553683516,0.8569444444444444
778,0.023406012553683516,0.8576388888888888
779,0.02347208457218368,0.8576388888888888
780,0.02347208457218368,0.8583333333333333
781,0.023521638586058803,0.8583333333333333
782,0.023554674595308887,0.8583333333333333
783,0.023769408655434424,0.8583333333333333
784,0.023769408655434424,0.8590277777777777
785,0.024264948794185663,0.8590277777777777
786,0.024264948794185663,0.8597222222222223
787,0.024677898909811695,0.8597222222222223
788,0.024677898909811695,0.8604166666666667
789,0.024826560951437066,0.8604166666666667
790,0.024826560951437066,0.8611111111111112
791,0.02484307895606211,0.8611111111111112
792,0.02484307895606211,0.8618055555555556
793,0.02487611496531219,0.8618055555555556
794,0.02487611496531219,0.8625
795,0.025206475057813017,0.8625
796,0.025206475057813017,0.8631944444444445
797,0.025222993062438057,0.8631944444444445
798,0.025222993062438057,0.8638888888888889
799,0.025371655104063428,0.8638888888888889
800,0.02540469111331351,0.8638888888888889
801,0.025586389164188966,0.8638888888888889
802,0.025586389164188966,0.8645833333333334
803,0.02604889329369012,0.8645833333333334
804,0.02604889329369012,0.8659722222222223
805,0.02664354146019161,0.8659722222222223
806,0.02667657746944169,0.8659722222222223
807,0.02667657746944169,0.8666666666666667
808,0.026907829534192268,0.8666666666666667
809,0.02694086554344235,0.8666666666666667
810,0.027205153617443013,0.8666666666666667
811,0.027205153617443013,0.8673611111111111
812,0.027485959696068714,0.8673611111111111
813,0.027485959696068714,0.8680555555555556
814,0.027518995705318797,0.8680555555555556
815,0.027518995705318797,0.86875
816,0.027667657746944168,0.86875
817,0.027667657746944168,0.8694444444444445
818,0.027750247770069375,0.8694444444444445
819,0.027750247770069375,0.8701388888888889
820,0.02776676577469442,0.8701388888888889
821,0.02776676577469442,0.8708333333333333
822,0.027849355797819622,0.8708333333333333
823,0.027849355797819622,0.8715277777777778
824,0.02791542781631979,0.8715277777777778
825,0.027948463825569873,0.8715277777777778
826,0.02804757185332012,0.8715277777777778
827,0.02804757185332012,0.8722222222222222
828,0.028163197885695407,0.8722222222222222
829,0.028163197885695407,0.8729166666666667
830,0.02832837793194582,0.8729166666666667
831,0.028361413941195904,0.8729166666666667
832,0.02846052196894615,0.8729166666666667
833,0.02846052196894615,0.8736111111111111
834,0.028906508093822267,0.8736111111111111
835,0.028906508093822267,0.8743055555555556
836,0.02908820614469772,0.8743055555555556
837,0.02908820614469772,0.875
838,0.02943508424182359,0.875
839,0.02943508424182359,0.8756944444444444
840,0.029600264288074,0.8756944444444444
841,0.029600264288074,0.8763888888888889
842,0.029682854311199207,0.8763888888888889
843,0.029682854311199207,0.8770833333333333
844,0.03001321440370003,0.8770833333333333
845,0.03001321440370003,0.8777777777777778
846,0.030145358440700362,0.8777777777777778
847,0.030145358440700362,0.8784722222222222
848,0.030178394449950446,0.8784722222222222
849,0.030178394449950446,0.8791666666666667
850,0.030194912454575486,0.8791666666666667
851,0.030194912454575486,0.8798611111111111
852,0.03021143045920053,0.8798611111111111
853,0.03021143045920053,0.8805555555555555
854,0.03047571853320119,0.8805555555555555
855,0.03047571853320119,0.88125
856,0.030921704658077306,0.88125
857,0.030954740667327386,0.88125
858,0.03097125867195243,0.88125
859,0.03097125867195243,0.8819444444444444
860,0.031185992732077963,0.8819444444444444
861,0.031185992732077963,0.8826388888888889
862,0.031334654773703334,0.8826388888888889
863,0.031334654773703334,0.8833333333333333
864,0.031532870829203835,0.8833333333333333
865,0.031565906838453915,0.8833333333333333
866,0.03163197885695408,0.8833333333333333
867,0.03163197885695408,0.8840277777777777
868,0.0324413610835811,0.8840277777777777
869,0.0324413610835811,0.8847222222222222
870,0.03254046911133135,0.8847222222222222
871,0.03254046911133135,0.8854166666666666
872,0.032854311199207134,0.8854166666666666
873,0.032854311199207134,0.8861111111111111
874,0.03298645523620747,0.8861111111111111
875,0.03298645523620747,0.8868055555555555
876,0.0333994053518335,0.8868055555555555
877,0.0333994053518335,0.8875
878,0.03376280145358441,0.8875
879,0.03376280145358441,0.8881944444444444
880,0.03384539147670961,0.8881944444444444
881,0.03384539147670961,0.8888888888888888
882,0.033894945490584735,0.8888888888888888
883,0.033894945490584735,0.8895833333333333
884,0.03399405351833498,0.8895833333333333
885,0.03399405351833498,0.8902777777777777
886,0.03435744962008589,0.8902777777777777
887,0.03435744962008589,0.8909722222222223
888,0.035563263957713906,0.8909722222222223
889,0.03559629996696399,0.8909722222222223
890,0.03581103402708953,0.8909722222222223
891,0.03581103402708953,0.8916666666666667
892,0.036422200198216056,0.8916666666666667
893,0.036422200198216056,0.8923611111111112
894,0.037594978526593985,0.8923611111111112
895,0.037594978526593985,0.8930555555555556
896,0.03817310868847043,0.8930555555555556
897,0.03817310868847043,0.89375
898,0.038602576808721506,0.89375
899,0.038635612817971586,0.89375
900,0.04005616121572514,0.89375
901,0.04005616121572514,0.8944444444444445
902,0.04050214734060126,0.8944444444444445
903,0.04050214734060126,0.8951388888888889
904,0.04084902543772712,0.8951388888888889
905,0.0408820614469772,0.8951388888888889
906,0.04150974562272877,0.8951388888888889
907,0.04150974562272877,0.8958333333333334
908,0.04165840766435414,0.8958333333333334
909,0.04165840766435414,0.8972222222222223
910,0.04193921374297985,0.8972222222222223
911,0.04193921374297985,0.8979166666666667
912,0.04197224975222993,0.8979166666666667
913,0.04197224975222993,0.8986111111111111
914,0.04273207796498183,0.8986111111111111
915,0.04273207796498183,0.8993055555555556
916,0.043789230260984476,0.8993055555555556
917,0.043789230260984476,0.9
918,0.04479682854311199,0.9
919,0.04479682854311199,0.9006944444444445
920,0.04489593657086224,0.9006944444444445
921,0.04489593657086224,0.9013888888888889
922,0.04529236868186323,0.9013888888888889
923,0.04529236868186323,0.9020833333333333
924,0.04610175090849025,0.9020833333333333
925,0.04610175090849025,0.9027777777777778
926,0.04618434093161546,0.9027777777777778
927,0.04618434093161546,0.9034722222222222
928,0.046266930954740666,0.9034722222222222
929,0.046266930954740666,0.9041666666666667
930,0.047010241162867526,0.9041666666666667
931,0.047010241162867526,0.9048611111111111
932,0.047043277172117606,0.9048611111111111
933,0.047043277172117606,0.9055555555555556
934,0.04762140733399405,0.9055555555555556
935,0.04762140733399405,0.90625
936,0.04773703336636934,0.90625
937,0.04773703336636934,0.9069444444444444
938,0.04785265939874463,0.9069444444444444
939,0.04785265939874463,0.9076388888888889
940,0.048529897588371326,0.9076388888888889
941,0.048529897588371326,0.9083333333333333
942,0.04879418566237199,0.9083333333333333
943,0.04879418566237199,0.9090277777777778
944,0.04890981169474727,0.9090277777777778
945,0.04890981169474727,0.9097222222222222
946,0.04932276181037331,0.9097222222222222
947,0.04935579781962339,0.9097222222222222
948,0.04942186983812356,0.9097222222222222
949,0.04942186983812356,0.9104166666666667
950,0.05039643211100099,0.9104166666666667
951,0.05039643211100099,0.9111111111111111
952,0.05062768417575157,0.9111111111111111
953,0.05062768417575157,0.9118055555555555
954,0.05064420218037661,0.9118055555555555
955,0.05064420218037661,0.9125
956,0.05090849025437727,0.9125
957,0.05094152626362736,0.9125
958,0.050958044268252393,0.9125
959,0.050958044268252393,0.9131944444444444
960,0.05138751238850347,0.9131944444444444
961,0.05138751238850347,0.9138888888888889
962,0.05158572844400396,0.9138888888888889
963,0.05158572844400396,0.9145833333333333
964,0.05170135447637925,0.9145833333333333
965,0.0517178724810043,0.9152777777777777
966,0.05203171456888008,0.9152777777777777
967,0.05203171456888008,0.9159722222222222
968,0.05244466468450611,0.9159722222222222
969,0.05244466468450611,0.9166666666666666
970,0.05272547076313181,0.9166666666666666
971,0.05272547076313181,0.9173611111111111
972,0.053154938883382886,0.9173611111111111
973,0.053154938883382886,0.9180555555555555
974,0.054889329369012224,0.9180555555555555
975,0.054922365378262304,0.9180555555555555
976,0.057152296002642884,0.9180555555555555
977,0.057152296002642884,0.91875
978,0.05753221010901883,0.91875
979,0.05753221010901883,0.9194444444444444
980,0.05754872811364387,0.9194444444444444
981,0.05754872811364387,0.9201388888888888
982,0.05923356458539809,0.9201388888888888
983,0.05923356458539809,0.9208333333333333
984,0.05926660059464817,0.9208333333333333
985,0.05926660059464817,0.9215277777777777
986,0.05931615460852329,0.9215277777777777
987,0.05931615460852329,0.9222222222222223
988,0.06057152296002643,0.9222222222222223
989,0.06057152296002643,0.9229166666666667
990,0.060670630987776676,0.9229166666666667
991,0.060670630987776676,0.9236111111111112
992,0.06073670300627684,0.9236111111111112
993,0.06076973901552692,0.9236111111111112
994,0.06136438718202841,0.9236111111111112
995,0.06136438718202841,0.9243055555555556
996,0.06172778328377932,0.9243055555555556
997,0.0617608192930294,0.9243055555555556
998,0.06205814337628014,0.9243055555555556
999,0.06209117938553023,0.9243055555555556
1000,0.0623224314502808,0.9243055555555556
1001,0.0623224314502808,0.925
1002,0.06238850346878097,0.925
1003,0.06238850346878097,0.9256944444444445
1004,0.06266930954740667,0.9256944444444445
1005,0.06266930954740667,0.9263888888888889
1006,0.06433762801453584,0.9263888888888889
1007,0.06433762801453584,0.9277777777777778
1008,0.06461843409316155,0.9277777777777778
1009,0.06461843409316155,0.9284722222222223
1010,0.06491575817641229,0.9284722222222223
1011,0.06491575817641229,0.9291666666666667
1012,0.06531219028741328,0.9291666666666667
1013,0.06531219028741328,0.9298611111111111
1014,0.06534522629666337,0.9298611111111111
1015,0.06534522629666337,0.9305555555555556
1016,0.06562603237528906,0.9305555555555556
1017,0.06562603237528906,0.93125
1018,0.06640237859266601,0.93125
1019,0.06640237859266601,0.9319444444444445
1020,0.0677568549719194,0.9319444444444445
1021,0.0677568549719194,0.9326388888888889
1022,0.06835150313842088,0.9326388888888889
1023,0.06838453914767097,0.9326388888888889
1024,0.06841757515692104,0.9326388888888889
1025,0.06841757515692104,0.9333333333333333
1026,0.06912784935579781,0.9333333333333333
1027,0.06912784935579781,0.9340277777777778
1028,0.06993723158242485,0.9340277777777778
1029,0.06993723158242485,0.9347222222222222
1030,0.07031714568880079,0.9347222222222222
1031,0.07031714568880079,0.9354166666666667
1032,0.0708787578460522,0.9354166666666667
1033,0.0708787578460522,0.9361111111111111
1034,0.07163858605880409,0.9361111111111111
1035,0.07163858605880409,0.9368055555555556
1036,0.07317476048893294,0.9368055555555556
1037,0.07320779649818301,0.9368055555555556
1038,0.07330690452593326,0.9368055555555556
1039,0.0733234225305583,0.9375
1040,0.07337297654443344,0.9375
1041,0.07340601255368351,0.9375
1042,0.07347208457218368,0.9375
1043,0.07350512058143377,0.9375
1044,0.0745622728774364,0.9375
1045,0.07459530888668649,0.9375
1046,0.0749587049884374,0.9375
1047,0.0749587049884374,0.9381944444444444
1048,0.07898909811694747,0.9381944444444444
1049,0.07902213412619756,0.9381944444444444
1050,0.07918731417244797,0.9381944444444444
1051,0.07918731417244797,0.9388888888888889
1052,0.07925338619094813,0.9388888888888889
1053,0.07928642220019821,0.9388888888888889
1054,0.07941856623719855,0.9388888888888889
1055,0.07941856623719855,0.9395833333333333
1056,0.08002973240832507,0.9395833333333333
1057,0.08002973240832507,0.9402777777777778
1058,0.08224314502808061,0.9402777777777778
1059,0.08224314502808061,0.9409722222222222
1060,0.08232573505120581,0.9409722222222222
1061,0.0823587710604559,0.9409722222222222
1062,0.08427485959696068,0.9409722222222222
1063,0.08427485959696068,0.9416666666666667
1064,0.08470432771721176,0.9416666666666667
1065,0.08473736372646185,0.9416666666666667
1066,0.08475388173108689,0.9416666666666667
1067,0.08475388173108689,0.9423611111111111
1068,0.08534852989758837,0.9423611111111111
1069,0.08538156590683846,0.9423611111111111
1070,0.08629005616121573,0.9423611111111111
1071,0.08632309217046581,0.9423611111111111
1072,0.0864387182028411,0.9423611111111111
1073,0.08647175421209118,0.9423611111111111
1074,0.08693425834159234,0.9423611111111111
1075,0.08693425834159234,0.9430555555555555
1076,0.08777667657746945,0.9430555555555555
1077,0.08780971258671952,0.9430555555555555
1078,0.09065080938222662,0.9430555555555555
1079,0.09068384539147671,0.9430555555555555
1080,0.09152626362735382,0.9430555555555555
1081,0.09152626362735382,0.94375
1082,0.09222001982160555,0.94375
1083,0.09225305583085563,0.94375
1084,0.09246778989098117,0.94375
1085,0.09250082590023125,0.94375
1086,0.09263296993723158,0.94375
1087,0.09266600594648167,0.94375
1088,0.09410307234886026,0.94375
1089,0.09413610835811034,0.94375
1090,0.09520977865873803,0.94375
1091,0.09520977865873803,0.9444444444444444
1092,0.09557317476048893,0.9444444444444444
1093,0.09557317476048893,0.9451388888888889
1094,0.09694416914436736,0.9451388888888889
1095,0.09694416914436736,0.9458333333333333
1096,0.09823257350512059,0.9458333333333333
1097,0.09823257350512059,0.9465277777777777
1098,0.09912454575487281,0.9465277777777777
1099,0.09912454575487281,0.9472222222222222
1100,0.09975222993062438,0.9472222222222222
1101,0.09975222993062438,0.9479166666666666
1102,0.10018169805087546,0.9479166666666666
1103,0.10021473406012554,0.9479166666666666
1104,0.10232903865213082,0.9479166666666666
1105,0.1023620746613809,0.9479166666666666
1106,0.10295672282788239,0.9479166666666666
1107,0.10298975883713248,0.9479166666666666
1108,0.10330360092500826,0.9479166666666666
1109,0.10330360092500826,0.9486111111111111
1110,0.1045589692765114,0.9486111111111111
1111,0.10459200528576149,0.9486111111111111
1112,0.10480673934588702,0.9486111111111111
1113,0.1048397753551371,0.9486111111111111
1114,0.10493888338288734,0.9486111111111111
1115,0.10493888338288734,0.9493055555555555
1116,0.10530227948463826,0.9493055555555555
1117,0.10533531549388833,0.9493055555555555
1118,0.10555004955401387,0.9493055555555555
1119,0.10555004955401387,0.95
1120,0.10622728774364057,0.95
1121,0.10622728774364057,0.9506944444444444
1122,0.10738354806739346,0.9506944444444444
1123,0.10741658407664355,0.9506944444444444
1124,0.10758176412289396,0.9506944444444444
1125,0.10761480013214404,0.9506944444444444
1126,0.10761480013214404,0.9513888888888888
1127,0.10773042616451933,0.9513888888888888
1128,0.1077634621737694,0.9513888888888888
1129,0.1078790882061447,0.9513888888888888
1130,0.1078790882061447,0.9520833333333333
1131,0.10792864222001983,0.9520833333333333
1132,0.1079616782292699,0.9520833333333333
1133,0.10819293029402048,0.9520833333333333
1134,0.10819293029402048,0.9527777777777777
1135,0.11040634291377602,0.9527777777777777
1136,0.1104393789230261,0.9527777777777777
1137,0.1107201850016518,0.9527777777777777
1138,0.11075322101090189,0.9527777777777777
1139,0.11118268913115295,0.9527777777777777
1140,0.11118268913115295,0.9534722222222223
1141,0.11288404360753221,0.9534722222222223
1142,0.1129170796167823,0.9534722222222223
1143,0.11572514040303931,0.9534722222222223
1144,0.1157581764122894,0.9534722222222223
1145,0.11655104063429138,0.9534722222222223
1146,0.11658407664354146,0.9534722222222223
1147,0.11745953088866865,0.9534722222222223
1148,0.11749256689791873,0.9534722222222223
1149,0.11760819293029402,0.9534722222222223
1150,0.11760819293029402,0.9548611111111112
1151,0.11807069705979517,0.9548611111111112
1152,0.11807069705979517,0.9555555555555556
1153,0.11866534522629667,0.9555555555555556
1154,0.11866534522629667,0.95625
1155,0.11909481334654774,0.95625
1156,0.11909481334654774,0.9569444444444445
1157,0.11921043937892302,0.9569444444444445
1158,0.11921043937892302,0.9576388888888889
1159,0.11939213742979848,0.9576388888888889
1160,0.11942517343904856,0.9576388888888889
1161,0.12129170796167824,0.9576388888888889
1162,0.12129170796167824,0.9583333333333334
1163,0.12178724810042947,0.9583333333333334
1164,0.12182028410967954,0.9583333333333334
1165,0.1235216385860588,0.9583333333333334
1166,0.1235216385860588,0.9590277777777778
1167,0.123604228609184,0.9590277777777778
1168,0.12362074661380905,0.9597222222222223
1169,0.1257185332011893,0.9597222222222223
1170,0.1257185332011893,0.9604166666666667
1171,0.12781631978856955,0.9604166666666667
1172,0.1278493557978196,0.9604166666666667
1173,0.12821275189957054,0.9604166666666667
1174,0.1282292699041956,0.9611111111111111
1175,0.12898909811694748,0.9611111111111111
1176,0.12898909811694748,0.9618055555555556
1177,0.12984803435744963,0.9618055555555556
1178,0.12984803435744963,0.9625
1179,0.1315163528245788,0.9625
1180,0.1315163528245788,0.9631944444444445
1181,0.13186323092170465,0.9631944444444445
1182,0.13189626693095474,0.9631944444444445
1183,0.1321935910142055,0.9631944444444445
1184,0.13222662702345556,0.9631944444444445
1185,0.13247439709283118,0.9631944444444445
1186,0.13249091509745622,0.9638888888888889
1187,0.13257350512058144,0.9638888888888889
1188,0.13257350512058144,0.9645833333333333
1189,0.13267261314833168,0.9645833333333333
1190,0.13270564915758176,0.9645833333333333
1191,0.1327221671622068,0.9645833333333333
1192,0.1327552031714569,0.9645833333333333
1193,0.13280475718533202,0.9645833333333333
1194,0.13283779319458208,0.9645833333333333
1195,0.13678559629996698,0.9645833333333333
1196,0.13678559629996698,0.9652777777777778
1197,0.13752890650809382,0.9652777777777778
1198,0.13752890650809382,0.9659722222222222
1199,0.13787578460521968,0.9659722222222222
1200,0.13790882061446977,0.9659722222222222
1201,0.1391641889659729,0.9659722222222222
1202,0.139197224975223,0.9659722222222222
1203,0.14106375949785266,0.9659722222222222
1204,0.14109679550710275,0.9659722222222222
1205,0.1426494879418566,0.9659722222222222
1206,0.1426825239511067,0.9659722222222222
1207,0.14377271225635943,0.9659722222222222
1208,0.14380574826560952,0.9659722222222222
1209,0.14677898909811696,0.9659722222222222
1210,0.14677898909811696,0.9666666666666667
1211,0.14702675916749255,0.9666666666666667
1212,0.14705979517674264,0.9666666666666667
1213,0.14879418566237199,0.9666666666666667
1214,0.14882722167162207,0.9666666666666667
1215,0.1503138420878758,0.9666666666666667
1216,0.15034687809712588,0.9666666666666667
1217,0.15267591674925668,0.9666666666666667
1218,0.15267591674925668,0.9673611111111111
1219,0.15315493888338289,0.9673611111111111
1220,0.15315493888338289,0.9680555555555556
1221,0.1536339610175091,0.9680555555555556
1222,0.15366699702675918,0.9680555555555556
1223,0.1543607532210109,0.9680555555555556
1224,0.15439378923026098,0.9680555555555556
1225,0.15475718533201188,0.9680555555555556
1226,0.15479022134126197,0.9680555555555556
1227,0.1550049554013875,0.9680555555555556
1228,0.1550379914106376,0.9680555555555556
1229,0.1570862239841427,0.9680555555555556
1230,0.1571192599933928,0.9680555555555556
1231,0.1590023125206475,0.9680555555555556
1232,0.1590353485298976,0.9680555555555556
1233,0.15905186653452263,0.9680555555555556
1234,0.15908490254377272,0.9680555555555556
1235,0.15944829864552362,0.9680555555555556
1236,0.15944829864552362,0.96875
1237,0.16012553683515032,0.96875
1238,0.16012553683515032,0.9694444444444444
1239,0.16014205483977537,0.9694444444444444
1240,0.16014205483977537,0.9701388888888889
1241,0.16062107697390154,0.9701388888888889
1242,0.16065411298315163,0.9701388888888889
1243,0.1614800132144037,0.9701388888888889
1244,0.1614800132144037,0.9708333333333333
1245,0.16161215725140404,0.9708333333333333
1246,0.16161215725140404,0.9715277777777778
1247,0.16380905186653452,0.9715277777777778
1248,0.1638420878757846,0.9715277777777778
1249,0.16413941195903534,0.9715277777777778
1250,0.16413941195903534,0.9722222222222222
1251,0.16417244796828542,0.9722222222222222
1252,0.16435414601916087,0.9722222222222222
1253,0.16435414601916087,0.9729166666666667
1254,0.16521308225966302,0.9729166666666667
1255,0.16521308225966302,0.9743055555555555
1256,0.1656755863891642,0.9743055555555555
1257,0.16570862239841427,0.9743055555555555
1258,0.16686488272216715,0.9743055555555555
1259,0.16689791873141724,0.9743055555555555
1260,0.16889659729104725,0.9743055555555555
1261,0.1689296333002973,0.9743055555555555
1262,0.16921043937892302,0.9743055555555555
1263,0.1692434753881731,0.9743055555555555
1264,0.17091179385530228,0.9743055555555555
1265,0.17091179385530228,0.975
1266,0.17201850016518005,0.975
1267,0.17205153617443014,0.975
1268,0.17272877436405681,0.975
1269,0.1727618103733069,0.975
1270,0.17302609844730757,0.975
1271,0.17302609844730757,0.9756944444444444
1272,0.1731582424843079,0.9756944444444444
1273,0.17317476048893293,0.9763888888888889
1274,0.17461182689131152,0.9763888888888889
1275,0.17461182689131152,0.9770833333333333
1276,0.17482656095143706,0.9770833333333333
1277,0.17485959696068715,0.9770833333333333
1278,0.17616451932606542,0.9770833333333333
1279,0.1761975553353155,0.9770833333333333
1280,0.1781631978856954,0.9770833333333333
1281,0.1781962338949455,0.9770833333333333
1282,0.17898909811694746,0.9770833333333333
1283,0.17902213412619755,0.9770833333333333
1284,0.17933597621407335,0.9770833333333333
1285,0.1793690122233234,0.9770833333333333
1286,0.18093822266270235,0.9770833333333333
1287,0.18097125867195243,0.9770833333333333
1288,0.18295341922695738,0.9770833333333333
1289,0.18298645523620746,0.9770833333333333
1290,0.18417575156921043,0.9770833333333333
1291,0.18420878757846051,0.9770833333333333
1292,0.18447307565246118,0.9770833333333333
1293,0.18450611166171127,0.9770833333333333
1294,0.18766105054509416,0.9770833333333333
1295,0.18769408655434425,0.9770833333333333
1296,0.1879583746283449,0.9770833333333333
1297,0.1879583746283449,0.9777777777777777
1298,0.18815659068384538,0.9777777777777777
1299,0.18815659068384538,0.9784722222222222
1300,0.18865213082259663,0.9784722222222222
1301,0.18868516683184672,0.9784722222222222
1302,0.19002312520647505,0.9784722222222222
1303,0.19005616121572513,0.9784722222222222
1304,0.19109679550710273,0.9784722222222222
1305,0.19109679550710273,0.9791666666666666
1306,0.19278163197885695,0.9791666666666666
1307,0.19281466798810704,0.9791666666666666
1308,0.19573835480673935,0.9791666666666666
1309,0.19573835480673935,0.9798611111111111
1310,0.19633300297324083,0.9798611111111111
1311,0.19633300297324083,0.9805555555555555
1312,0.1973240832507433,0.9805555555555555
1313,0.19735711925999339,0.9805555555555555
1314,0.19795176742649487,0.9805555555555555
1315,0.19798480343574495,0.9805555555555555
1316,0.1990749917409977,0.9805555555555555
1317,0.1990749917409977,0.98125
1318,0.2001156260323753,0.98125
1319,0.20014866204162537,0.98125
1320,0.20051205814337628,0.98125
1321,0.20051205814337628,0.9819444444444444
1322,0.20099108027750248,0.9819444444444444
1323,0.20102411628675257,0.9819444444444444
1324,0.20117277832837793,0.9819444444444444
1325,0.20117277832837793,0.9826388888888888
1326,0.2014370664023786,0.9826388888888888
1327,0.2014701024116287,0.9826388888888888
1328,0.2023125206475058,0.9826388888888888
1329,0.20234555665675585,0.9826388888888888
1330,0.20292368681863232,0.9826388888888888
1331,0.20295672282788238,0.9826388888888888
1332,0.2042451271886356,0.9826388888888888
1333,0.2042451271886356,0.9833333333333333
1334,0.20485629335976213,0.9833333333333333
1335,0.20488932936901222,0.9833333333333333
1336,0.20614469772051536,0.9833333333333333
1337,0.20617773372976544,0.9833333333333333
1338,0.2063594317806409,0.9833333333333333
1339,0.2063594317806409,0.9840277777777777
1340,0.2065246118268913,0.9840277777777777
1341,0.2065576478361414,0.9840277777777777
1342,0.20698711595639246,0.9840277777777777
1343,0.20702015196564255,0.9840277777777777
1344,0.2070366699702676,0.9840277777777777
1345,0.20706970597951768,0.9840277777777777
1346,0.20825900231252065,0.9840277777777777
1347,0.20825900231252065,0.9847222222222223
1348,0.20982821275189958,0.9847222222222223
1349,0.20982821275189958,0.9854166666666667
1350,0.2101255368351503,0.9854166666666667
1351,0.2101585728444004,0.9854166666666667
1352,0.21025768087215063,0.9854166666666667
1353,0.21029071688140072,0.9854166666666667
1354,0.2108358110340271,0.9854166666666667
1355,0.21086884704327719,0.9854166666666667
1356,0.21157912124215394,0.9854166666666667
1357,0.21161215725140403,0.9854166666666667
1358,0.21179385530227948,0.9854166666666667
1359,0.21182689131152957,0.9854166666666667
1360,0.2119259993392798,0.9854166666666667
1361,0.21197555335315493,0.9854166666666667
1362,0.21425503799141063,0.9854166666666667
1363,0.21428807400066072,0.9854166666666667
1364,0.21442021803766104,0.9854166666666667
1365,0.21445325404691112,0.9854166666666667
1366,0.2147175421209118,0.9854166666666667
1367,0.21475057813016188,0.9854166666666667
1368,0.21524611826891313,0.9854166666666667
1369,0.21524611826891313,0.9861111111111112
1370,0.21617112652791542,0.9861111111111112
1371,0.2162041625371655,0.9861111111111112
1372,0.21622068054179056,0.9861111111111112
1373,0.21628675256029073,0.9861111111111112
1374,0.21790551701354477,0.9861111111111112
1375,0.21793855302279486,0.9861111111111112
1376,0.21997026759167493,0.9861111111111112
1377,0.22000330360092502,0.9861111111111112
1378,0.22033366369342583,0.9861111111111112
1379,0.22036669970267592,0.9861111111111112
1380,0.2219689461513049,0.9861111111111112
1381,0.222001982160555,0.9861111111111112
1382,0.22269573835480674,0.9861111111111112
1383,0.22269573835480674,0.9868055555555556
1384,0.22353815659068385,0.9868055555555556
1385,0.22357119259993394,0.9868055555555556
1386,0.22376940865543443,0.9868055555555556
1387,0.22376940865543443,0.9875
1388,0.22416584076643542,0.9875
1389,0.2241988767756855,0.9875
1390,0.22481004294681203,0.9875
1391,0.22484307895606212,0.9875
1392,0.2284440039643211,0.9875
1393,0.2284770399735712,0.9875
1394,0.22978196233894946,0.9875
1395,0.22981499834819955,0.9875
1396,0.23772712256359432,0.9875
1397,0.2377601585728444,0.9875
1398,0.23860257680872152,0.9875
1399,0.23863561281797158,0.9875
1400,0.240403039312851,0.9875
1401,0.2404360753221011,0.9875
1402,0.24269904195573175,0.9875
1403,0.24273207796498183,0.9875
1404,0.24484638255698712,0.9875
1405,0.2448794185662372,0.9875
1406,0.24492897258011231,0.9875
1407,0.2449620085893624,0.9875
1408,0.24514370664023785,0.9875
1409,0.24514370664023785,0.9881944444444445
1410,0.247604889329369,0.9881944444444445
1411,0.24763792533861909,0.9881944444444445
1412,0.24902543772712257,0.9881944444444445
1413,0.24905847373637266,0.9881944444444445
1414,0.24938883382887347,0.9881944444444445
1415,0.24942186983812356,0.9881944444444445
1416,0.24953749587049884,0.9881944444444445
1417,0.24953749587049884,0.9888888888888889
1418,0.24958704988437397,0.9888888888888889
1419,0.24962008589362406,0.9888888888888889
1420,0.25089197224975224,0.9888888888888889
1421,0.2509250082590023,0.9888888888888889
1422,0.25191608853650477,0.9888888888888889
1423,0.25194912454575485,0.9888888888888889
1424,0.25234555665675584,0.9888888888888889
1425,0.25237859266600593,0.9888888888888889
1426,0.2533531549388834,0.9888888888888889
1427,0.25338619094813347,0.9888888888888889
1428,0.255219689461513,0.9888888888888889
1429,0.2552527254707631,0.9888888888888889
1430,0.2589527585067724,0.9888888888888889
1431,0.25898579451602244,0.9888888888888889
1432,0.2590518665345226,0.9888888888888889
1433,0.2590849025437727,0.9888888888888889
1434,0.2593822266270235,0.9888888888888889
1435,0.2594152626362735,0.9888888888888889
1436,0.2608358110340271,0.9888888888888889
1437,0.2608688470432772,0.9888888888888889
1438,0.26141394119590355,0.9888888888888889
1439,0.26144697720515364,0.9888888888888889
1440,0.261612157251404,0.9888888888888889
1441,0.2616451932606541,0.9888888888888889
1442,0.2619590353485299,0.9888888888888889
1443,0.26199207135777997,0.9888888888888889
1444,0.26210769739015527,0.9888888888888889
1445,0.26214073339940536,0.9888888888888889
1446,0.2622233234225306,0.9888888888888889
1447,0.2622233234225306,0.9895833333333334
1448,0.2639411959035349,0.9895833333333334
1449,0.26397423191278496,0.9895833333333334
1450,0.2640898579451602,0.9895833333333334
1451,0.2641228939544103,0.9895833333333334
1452,0.2674430128840436,0.9895833333333334
1453,0.2674760488932937,0.9895833333333334
1454,0.26793855302279485,0.9895833333333334
1455,0.26797158903204493,0.9895833333333334
1456,0.26845061116617114,0.9895833333333334
1457,0.2684836471754212,0.9895833333333334
1458,0.2695573174760489,0.9895833333333334
1459,0.2695573174760489,0.9902777777777778
1460,0.2699537495870499,0.9902777777777778
1461,0.26998678559629996,0.9902777777777778
1462,0.2719359101420548,0.9902777777777778
1463,0.2719689461513049,0.9902777777777778
1464,0.27264618434093163,0.9902777777777778
1465,0.2726792203501817,0.9902777777777778
1466,0.27279484638255697,0.9902777777777778
1467,0.27282788239180705,0.9902777777777778
1468,0.27358771060455894,0.9902777777777778
1469,0.27362074661380903,0.9902777777777778
1470,0.27390155269243477,0.9902777777777778
1471,0.27393458870168486,0.9902777777777778
1472,0.27457879088206144,0.9902777777777778
1473,0.27461182689131153,0.9902777777777778
1474,0.27487611496531217,0.9902777777777778
1475,0.27490915097456226,0.9902777777777778
1476,0.27520647505781304,0.9902777777777778
1477,0.2752395110670631,0.9902777777777778
1478,0.2753716551040634,0.9902777777777778
1479,0.2754046911133135,0.9902777777777778
1480,0.277188635612818,0.9902777777777778
1481,0.27722167162206807,0.9902777777777778
1482,0.2783614139411959,0.9902777777777778
1483,0.278394449950446,0.9902777777777778
1484,0.27897258011232245,0.9902777777777778
1485,0.27900561612157254,0.9902777777777778
1486,0.27925338619094814,0.9902777777777778
1487,0.2792864222001982,0.9902777777777778
1488,0.28136769078295343,0.9902777777777778
1489,0.2814007267922035,0.9902777777777778
1490,0.28178064089857946,0.9902777777777778
1491,0.28181367690782955,0.9902777777777778
1492,0.2827221671622068,0.9902777777777778
1493,0.2827552031714569,0.9902777777777778
1494,0.28341592335645854,0.9902777777777778
1495,0.28344895936570863,0.9902777777777778
1496,0.28371324743970927,0.9902777777777778
1497,0.28374628344895936,0.9902777777777778
1498,0.2844235216385861,0.9902777777777778
1499,0.2844565576478361,0.9902777777777778
1500,0.2887182028410968,0.9902777777777778
1501,0.2887182028410968,0.9909722222222223
1502,0.28901552692434757,0.9909722222222223
1503,0.2890485629335976,0.9909722222222223
1504,0.28965972910472415,0.9909722222222223
1505,0.28969276511397424,0.9909722222222223
1506,0.2905186653452263,0.9909722222222223
1507,0.2905517013544764,0.9909722222222223
1508,0.29078295341922694,0.9909722222222223
1509,0.29081598942847703,0.9909722222222223
1510,0.29114634952097784,0.9909722222222223
1511,0.29114634952097784,0.9916666666666667
1512,0.29382226627023456,0.9916666666666667
1513,0.29382226627023456,0.9923611111111111
1514,0.29436736042286094,0.9923611111111111
1515,0.294400396432111,0.9923611111111111
1516,0.2973736372646184,0.9923611111111111
1517,0.2974066732738685,0.9923611111111111
1518,0.2987281136438718,0.9923611111111111
1519,0.2987611496531219,0.9923611111111111
1520,0.3019160885365048,0.9923611111111111
1521,0.3019491245457549,0.9923611111111111
1522,0.3076478361413941,0.9923611111111111
1523,0.3076808721506442,0.9923611111111111
1524,0.31316484968615793,0.9923611111111111
1525,0.31316484968615793,0.9930555555555556
1526,0.3137264618434093,0.9930555555555556
1527,0.3137264618434093,0.99375
1528,0.31627023455566566,0.99375
1529,0.31630327056491575,0.99375
1530,0.31745953088866863,0.99375
1531,0.3174925668979187,0.99375
1532,0.3183349851337958,0.99375
1533,0.3183680211430459,0.99375
1534,0.31861579121242156,0.99375
1535,0.31864882722167165,0.99375
1536,0.31886356128179716,0.99375
1537,0.31889659729104725,0.99375
1538,0.3190287413280476,0.99375
1539,0.3190617773372977,0.99375
1540,0.3195738354806739,0.99375
1541,0.319606871489924,0.99375
1542,0.320399735711926,0.99375
1543,0.32043277172117607,0.99375
1544,0.3209943838784275,0.99375
1545,0.3210274198876776,0.99375
1546,0.32229930624380576,0.99375
1547,0.32233234225305585,0.99375
1548,0.32286091840105713,0.99375
1549,0.3228939544103072,0.99375
1550,0.3230756524611827,0.99375
1551,0.3231086884704328,0.99375
1552,0.3236372646184341,0.99375
1553,0.32367030062768415,0.99375
1554,0.3253716551040634,0.99375
1555,0.3254046911133135,0.99375
1556,0.32893954410307236,0.99375
1557,0.32897258011232244,0.99375
1558,0.32978196233894946,0.99375
1559,0.32981499834819955,0.99375
1560,0.3308886686488272,0.99375
1561,0.3309217046580773,0.99375
1562,0.33098777667657747,0.99375
1563,0.33102081268582756,0.99375
1564,0.3310373306904526,0.99375
1565,0.3310373306904526,0.9944444444444445
1566,0.33181367690782954,0.9944444444444445
1567,0.3318467129170796,0.9944444444444445
1568,0.33202841096795505,0.9944444444444445
1569,0.33206144697720513,0.9944444444444445
1570,0.3328212751899571,0.9944444444444445
1571,0.3328543111992071,0.9944444444444445
1572,0.33642220019821606,0.9944444444444445
1573,0.33645523620746615,0.9944444444444445
1574,0.33977535513709944,0.9944444444444445
1575,0.33980839114634953,0.9944444444444445
1576,0.3403700033036009,0.9944444444444445
1577,0.340403039312851,0.9944444444444445
1578,0.3444334324413611,0.9944444444444445
1579,0.3444664684506112,0.9944444444444445
1580,0.34773703336636935,0.9944444444444445
1581,0.34777006937561944,0.9944444444444445
1582,0.34777006937561944,0.9951388888888889
1583,0.34798480343574495,0.9951388888888889
1584,0.34801783944499504,0.9951388888888889
1585,0.3482656095143707,0.9951388888888889
1586,0.3482986455236207,0.9951388888888889
1587,0.3504459861248761,0.9951388888888889
1588,0.3504790221341262,0.9951388888888889
1589,0.3551701354476379,0.9951388888888889
1590,0.355203171456888,0.9951388888888889
1591,0.35528576148001323,0.9951388888888889
1592,0.3553187974892633,0.9951388888888889
1593,0.35981169474727454,0.9951388888888889
1594,0.3598447307565246,0.9951388888888889
1595,0.36014205483977535,0.9951388888888889
1596,0.36017509084902544,0.9951388888888889
1597,0.3608853650479022,0.9951388888888889
1598,0.3609184010571523,0.9951388888888889
1599,0.3618764453254047,0.9951388888888889
1600,0.3619094813346548,0.9951388888888889
1601,0.3621572514040304,0.9951388888888889
1602,0.36219028741328047,0.9951388888888889
1603,0.36349520977865873,0.9951388888888889
1604,0.3635282457879088,0.9951388888888889
1605,0.3641724479682854,0.9951388888888889
1606,0.3642054839775355,0.9951388888888889
1607,0.3651635282457879,0.9951388888888889
1608,0.365196564255038,0.9951388888888889
1609,0.3685662371985464,0.9951388888888889
1610,0.3685992732077965,0.9951388888888889
1611,0.36901222332342254,0.9951388888888889
1612,0.3690452593326726,0.9951388888888889
1613,0.3709613478691774,0.9951388888888889
1614,0.3709943838784275,0.9951388888888889
1615,0.3710109018830525,0.9951388888888889
1616,0.3710439378923026,0.9951388888888889
1617,0.37120911793855305,0.9951388888888889
1618,0.37124215394780313,0.9951388888888889
1619,0.37130822596630325,0.9951388888888889
1620,0.37134126197555334,0.9951388888888889
1621,0.37565246118268913,0.9951388888888889
1622,0.37565246118268913,0.9958333333333333
1623,0.3756854971919392,0.9958333333333333
1624,0.37902213412619756,0.9958333333333333
1625,0.37908820614469774,0.9958333333333333
1626,0.3799471423851999,0.9958333333333333
1627,0.37998017839445,0.9958333333333333
1628,0.3851172778328378,0.9958333333333333
1629,0.38515031384208787,0.9958333333333333
1630,0.38858605880409647,0.9958333333333333
1631,0.38861909481334656,0.9958333333333333
1632,0.389610175090849,0.9958333333333333
1633,0.3896432111000991,0.9958333333333333
1634,0.3896927651139742,0.9958333333333333
1635,0.3896927651139742,0.9965277777777778
1636,0.39094813346547735,0.9965277777777778
1637,0.39098116947472744,0.9965277777777778
1638,0.3928642220019822,0.9965277777777778
1639,0.39289725801123226,0.9965277777777778
1640,0.3936736042286092,0.9965277777777778
1641,0.3937066402378593,0.9965277777777778
1642,0.39426825239511065,0.9965277777777778
1643,0.39430128840436074,0.9965277777777778
1644,0.3966798810703667,0.9965277777777778
1645,0.39671291707961676,0.9965277777777778
1646,0.39686157912124215,0.9965277777777778
1647,0.39689461513049223,0.9965277777777778
1648,0.39709283118599276,0.9965277777777778
1649,0.3971258671952428,0.9965277777777778
1650,0.39737363726461844,0.9965277777777778
1651,0.3974066732738685,0.9965277777777778
1652,0.39777006937561943,0.9965277777777778
1653,0.3978031053848695,0.9965277777777778
1654,0.39798480343574494,0.9965277777777778
1655,0.398017839444995,0.9965277777777778
1656,0.39882722167162205,0.9965277777777778
1657,0.39886025768087213,0.9965277777777778
1658,0.3995540138751239,0.9965277777777778
1659,0.399587049884374,0.9965277777777778
1660,0.4000495540138751,0.9965277777777778
1661,0.4000825900231252,0.9965277777777778
1662,0.40317145688800793,0.9965277777777778
1663,0.40317145688800793,0.9972222222222222
1664,0.4033036009250083,0.9972222222222222
1665,0.4033036009250083,0.9979166666666667
1666,0.4093987446316485,0.9979166666666667
1667,0.4094317806408986,0.9979166666666667
1668,0.4145523620746614,0.9979166666666667
1669,0.4145853980839115,0.9979166666666667
1670,0.41694747274529237,0.9979166666666667
1671,0.41698050875454246,0.9979166666666667
1672,0.4179550710274199,0.9979166666666667
1673,0.41798810703667,0.9979166666666667
1674,0.4186818632309217,0.9979166666666667
1675,0.4187148992401718,0.9979166666666667
1676,0.41945820944829865,0.9979166666666667
1677,0.41949124545754873,0.9979166666666667
1678,0.4195077634621738,0.9979166666666667
1679,0.41954079947142386,0.9979166666666667
1680,0.41965642550379917,0.9979166666666667
1681,0.4196894615130492,0.9979166666666667
1682,0.428790882061447,0.9979166666666667
1683,0.4288239180706971,0.9979166666666667
1684,0.42941856623719854,0.9979166666666667
1685,0.4294516022464486,0.9979166666666667
1686,0.432408325074331,0.9979166666666667
1687,0.4324413610835811,0.9979166666666667
1688,0.43493557978196234,0.9979166666666667
1689,0.43496861579121243,0.9979166666666667
1690,0.4372811364387182,0.9979166666666667
1691,0.4373141724479683,0.9979166666666667
1692,0.43828873472084573,0.9979166666666667
1693,0.4383217707300958,0.9979166666666667
1694,0.43889990089197223,0.9979166666666667
1695,0.4389329369012223,0.9979166666666667
1696,0.43913115295672284,0.9979166666666667
1697,0.4391641889659729,0.9979166666666667
1698,0.44037000330360093,0.9979166666666667
1699,0.440403039312851,0.9979166666666667
1700,0.4427320779649818,0.9979166666666667
1701,0.4427651139742319,0.9979166666666667
1702,0.4471589032044929,0.9979166666666667
1703,0.447191939213743,0.9979166666666667
1704,0.4474397092831186,0.9979166666666667
1705,0.4474727452923687,0.9979166666666667
1706,0.44833168153287084,0.9979166666666667
1707,0.4483647175421209,0.9979166666666667
1708,0.4491080277502478,0.9979166666666667
1709,0.44914106375949786,0.9979166666666667
1710,0.4556821935910142,0.9979166666666667
1711,0.4557152296002643,0.9979166666666667
1712,0.45665675586389165,0.9979166666666667
1713,0.45668979187314174,0.9979166666666667
1714,0.45677238189626695,0.9979166666666667
1715,0.456805417905517,0.9979166666666667
1716,0.457185332011893,0.9979166666666667
1717,0.4572183680211431,0.9979166666666667
1718,0.45741658407664354,0.9979166666666667
1719,0.4574496200858936,0.9979166666666667
1720,0.4585563263957714,0.9979166666666667
1721,0.45858936240502146,0.9979166666666667
1722,0.45882061446977207,0.9979166666666667
1723,0.45885365047902216,0.9979166666666667
1724,0.45969606871489926,0.9979166666666667
1725,0.4597291047241493,0.9979166666666667
1726,0.4606045589692765,0.9979166666666667
1727,0.4606375949785266,0.9979166666666667
1728,0.466798810703667,0.9979166666666667
1729,0.46683184671291705,0.9979166666666667
1730,0.46709613478691775,0.9979166666666667
1731,0.46712917079616784,0.9979166666666667
1732,0.46845061116617115,0.9979166666666667
1733,0.46848364717542124,0.9979166666666667
1734,0.4687148992401718,0.9979166666666667
1735,0.4687148992401718,0.9986111111111111
1736,0.4701024116286753,0.9986111111111111
1737,0.47013544763792536,0.9986111111111111
1738,0.47205153617443013,0.9986111111111111
1739,0.4720845721836802,0.9986111111111111
1740,0.47509084902543774,0.9986111111111111
1741,0.47512388503468783,0.9986111111111111
1742,0.47674264948794187,0.9986111111111111
1743,0.47677568549719196,0.9986111111111111
1744,0.48425834159233566,0.9986111111111111
1745,0.48429137760158575,0.9986111111111111
1746,0.48468780971258674,0.9986111111111111
1747,0.4847208457218368,0.9986111111111111
1748,0.4853154938883383,0.9986111111111111
1749,0.48534852989758837,0.9986111111111111
1750,0.4857945160224645,0.9986111111111111
1751,0.48582755203171457,0.9986111111111111
1752,0.4870003303600925,0.9986111111111111
1753,0.4870333663693426,0.9986111111111111
1754,0.48855302279484636,0.9986111111111111
1755,0.48858605880409645,0.9986111111111111
1756,0.48889990089197227,0.9986111111111111
1757,0.48893293690122236,0.9986111111111111
1758,0.4893789230260984,0.9986111111111111
1759,0.4894119590353485,0.9986111111111111
1760,0.49093161546085234,0.9986111111111111
1761,0.49096465147010243,0.9986111111111111
1762,0.4926660059464817,0.9986111111111111
1763,0.4926990419557317,0.9986111111111111
1764,0.4928807400066072,0.9986111111111111
1765,0.4929137760158573,0.9986111111111111
1766,0.49443343244136106,0.9986111111111111
1767,0.49446646845061115,0.9986111111111111
1768,0.49889329369012225,0.9986111111111111
1769,0.49892632969937234,0.9986111111111111
1770,0.5011067063098777,0.9986111111111111
1771,0.5011397423191278,0.9986111111111111
1772,0.5018665345226296,0.9986111111111111
1773,0.5018995705318797,0.9986111111111111
1774,0.5041129831516353,0.9986111111111111
1775,0.5041460191608854,0.9986111111111111
1776,0.5049058473736373,0.9986111111111111
1777,0.5049388833828874,0.9986111111111111
1778,0.5070697059795177,0.9986111111111111
1779,0.5071357779980178,0.9986111111111111
1780,0.507201850016518,0.9986111111111111
1781,0.507234886025768,0.9986111111111111
1782,0.5076643541460192,0.9986111111111111
1783,0.5076973901552693,0.9986111111111111
1784,0.5087049884373968,0.9986111111111111
1785,0.5087380244466468,0.9986111111111111
1786,0.5095474066732739,0.9986111111111111
1787,0.509580442682524,0.9986111111111111
1788,0.5107036669970267,0.9986111111111111
1789,0.5107367030062768,0.9986111111111111
1790,0.5129005616121572,0.9986111111111111
1791,0.5129335976214073,0.9986111111111111
1792,0.5130987776676578,0.9986111111111111
1793,0.5131318136769079,0.9986111111111111
1794,0.5154278163197886,0.9986111111111111
1795,0.5154608523290386,0.9986111111111111
1796,0.5162702345556657,0.9986111111111111
1797,0.5163032705649158,0.9986111111111111
1798,0.5179550710274199,0.9986111111111111
1799,0.51798810703667,0.9986111111111111
1800,0.5181037330690452,0.9986111111111111
1801,0.5181367690782953,0.9986111111111111
1802,0.5197224975222993,0.9986111111111111
1803,0.5197555335315494,0.9986111111111111
1804,0.5207135777998018,0.9986111111111111
1805,0.5207466138090519,0.9986111111111111
1806,0.5225966303270565,0.9986111111111111
1807,0.5226296663363066,0.9986111111111111
1808,0.5242319127849355,0.9986111111111111
1809,0.5242649487941856,0.9986111111111111
1810,0.524397092831186,0.9986111111111111
1811,0.524430128840436,0.9986111111111111
1812,0.5244466468450611,0.9986111111111111
1813,0.5244796828543112,0.9986111111111111
1814,0.5256854971919392,0.9986111111111111
1815,0.5257185332011893,0.9986111111111111
1816,0.5261975553353155,0.9986111111111111
1817,0.5262305913445656,0.9986111111111111
1818,0.5288569540799472,0.9986111111111111
1819,0.5288899900891972,0.9986111111111111
1820,0.5321440370003303,0.9986111111111111
1821,0.5321770730095804,0.9986111111111111
1822,0.5335811034027089,0.9986111111111111
1823,0.533614139411959,0.9986111111111111
1824,0.5353815659068385,0.9986111111111111
1825,0.5354146019160886,0.9986111111111111
1826,0.5356623719854642,0.9986111111111111
1827,0.5356954079947143,0.9986111111111111
1828,0.5394449950445986,0.9986111111111111
1829,0.5394780310538487,0.9986111111111111
1830,0.5401552692434753,0.9986111111111111
1831,0.5401883052527254,0.9986111111111111
1832,0.5403039312851008,0.9986111111111111
1833,0.5403369672943509,0.9986111111111111
1834,0.541212421539478,0.9986111111111111
1835,0.5412454575487281,0.9986111111111111
1836,0.5414271555996035,0.9986111111111111
1837,0.5414601916088536,0.9986111111111111
1838,0.5442021803766105,0.9986111111111111
1839,0.5442352163858606,0.9986111111111111
1840,0.5447637925338619,0.9986111111111111
1841,0.544796828543112,0.9986111111111111
1842,0.5450445986124877,0.9986111111111111
1843,0.5450776346217376,0.9986111111111111
1844,0.5464816650148662,0.9986111111111111
1845,0.5465147010241163,0.9986111111111111
1846,0.5470267591674925,0.9986111111111111
1847,0.5470597951767426,0.9986111111111111
1848,0.54803435744962,0.9986111111111111
1849,0.5480673934588701,0.9986111111111111
1850,0.5501982160555005,0.9986111111111111
1851,0.5502312520647505,0.9986111111111111
1852,0.552395110670631,0.9986111111111111
1853,0.552428146679881,0.9986111111111111
1854,0.553600925008259,0.9986111111111111
1855,0.5536339610175091,0.9986111111111111
1856,0.5543607532210109,0.9986111111111111
1857,0.554393789230261,0.9986111111111111
1858,0.5595804426825239,0.9986111111111111
1859,0.559613478691774,0.9986111111111111
1860,0.5616617112652792,0.9986111111111111
1861,0.5616947472745293,0.9986111111111111
1862,0.5632474397092831,0.9986111111111111
1863,0.5632804757185332,0.9986111111111111
1864,0.5635447637925338,0.9986111111111111
1865,0.5635447637925338,0.9993055555555556
1866,0.5639081598942848,0.9993055555555556
1867,0.5639411959035349,0.9993055555555556
1868,0.5640568219359101,0.9993055555555556
1869,0.5640898579451602,0.9993055555555556
1870,0.5645853980839115,0.9993055555555556
1871,0.5646184340931616,0.9993055555555556
1872,0.5647010241162868,0.9993055555555556
1873,0.5647340601255368,0.9993055555555556
1874,0.56798810703667,0.9993055555555556
1875,0.5680211430459201,0.9993055555555556
1876,0.5696729435084242,0.9993055555555556
1877,0.5697059795176742,0.9993055555555556
1878,0.5703501816980509,0.9993055555555556
1879,0.5703832177073009,0.9993055555555556
1880,0.5727287743640568,0.9993055555555556
1881,0.5727618103733069,0.9993055555555556
1882,0.5763627353815659,0.9993055555555556
1883,0.576395771390816,0.9993055555555556
1884,0.5772051536174431,0.9993055555555556
1885,0.577238189626693,0.9993055555555556
1886,0.5775685497191939,0.9993055555555556
1887,0.577601585728444,0.9993055555555556
1888,0.5786917740336968,0.9993055555555556
1889,0.5787578460521969,0.9993055555555556
1890,0.580806078625702,0.9993055555555556
1891,0.5808391146349521,0.9993055555555556
1892,0.5827221671622068,0.9993055555555556
1893,0.5827552031714569,0.9993055555555556
1894,0.582804757185332,0.9993055555555556
1895,0.5828377931945821,0.9993055555555556
1896,0.5849520977865874,0.9993055555555556
1897,0.5849851337958375,0.9993055555555556
1898,0.587561942517344,0.9993055555555556
1899,0.587594978526594,0.9993055555555556
1900,0.5913445655764784,0.9993055555555556
1901,0.5913776015857285,0.9993055555555556
1902,0.5930789560621077,0.9993055555555556
1903,0.5931119920713578,0.9993055555555556
1904,0.5952923686818632,0.9993055555555556
1905,0.5953254046911133,0.9993055555555556
1906,0.5977700693756194,0.9993055555555556
1907,0.5978031053848695,0.9993055555555556
1908,0.597984803435745,0.9993055555555556
1909,0.5980178394449951,0.9993055555555556
1910,0.5989593657086224,0.9993055555555556
1911,0.5989924017178725,0.9993055555555556
1912,0.6026593987446317,0.9993055555555556
1913,0.6026924347538817,0.9993055555555556
1914,0.6048893293690122,0.9993055555555556
1915,0.6049223653782623,0.9993055555555556
1916,0.6056326395771391,0.9993055555555556
1917,0.6056656755863892,0.9993055555555556
1918,0.6069210439378923,0.9993055555555556
1919,0.6069540799471423,0.9993055555555556
1920,0.6095639246778989,0.9993055555555556
1921,0.609596960687149,0.9993055555555556
1922,0.6099108027750247,0.9993055555555556
1923,0.6099438387842748,0.9993055555555556
1924,0.6102411628675256,0.9993055555555556
1925,0.6102741988767757,0.9993055555555556
1926,0.6123885034687809,0.9993055555555556
1927,0.612421539478031,0.9993055555555556
1928,0.6130327056491576,0.9993055555555556
1929,0.6130657416584077,0.9993055555555556
1930,0.6150974562272877,0.9993055555555556
1931,0.6151304922365378,0.9993055555555556
1932,0.6153287082920383,0.9993055555555556
1933,0.6153617443012884,0.9993055555555556
1934,0.6162371985464156,0.9993055555555556
1935,0.6162702345556657,0.9993055555555556
1936,0.6173273868516683,0.9993055555555556
1937,0.6173604228609184,0.9993055555555556
1938,0.6219193921374297,0.9993055555555556
1939,0.6219524281466798,0.9993055555555556
1940,0.6253551370994384,0.9993055555555556
1941,0.6253881731086884,0.9993055555555556
1942,0.626362735381566,0.9993055555555556
1943,0.626395771390816,0.9993055555555556
1944,0.6280145358440701,0.9993055555555556
1945,0.6280475718533202,0.9993055555555556
1946,0.6282953419226958,0.9993055555555556
1947,0.6283283779319458,0.9993055555555556
1948,0.6285926660059464,0.9993055555555556
1949,0.6286257020151965,0.9993055555555556
1950,0.6306243805748266,0.9993055555555556
1951,0.6306574165840766,0.9993055555555556
1952,0.6309217046580773,0.9993055555555556
1953,0.6309547406673274,0.9993055555555556
1954,0.6314007267922035,0.9993055555555556
1955,0.6314337628014536,0.9993055555555556
1956,0.6318301949124546,0.9993055555555556
1957,0.6318632309217047,0.9993055555555556
1958,0.6323422530558308,0.9993055555555556
1959,0.6323752890650809,0.9993055555555556
1960,0.6325074331020812,0.9993055555555556
1961,0.6325404691113313,0.9993055555555556
1962,0.6328377931945821,0.9993055555555556
1963,0.6328708292038322,0.9993055555555556
1964,0.6337958374628345,0.9993055555555556
1965,0.6338288734720846,0.9993055555555556
1966,0.6346217376940866,0.9993055555555556
1967,0.6346547737033367,0.9993055555555556
1968,0.6354806739345887,0.9993055555555556
1969,0.6355137099438388,0.9993055555555556
1970,0.6355467459530889,0.9993055555555556
1971,0.635579781962339,0.9993055555555556
1972,0.6356954079947142,0.9993055555555556
1973,0.6357284440039643,0.9993055555555556
1974,0.6366864882722167,0.9993055555555556
1975,0.6367195242814668,0.9993055555555556
1976,0.6367525602907169,0.9993055555555556
1977,0.636802114304592,0.9993055555555556
1978,0.6385860588040965,0.9993055555555556
1979,0.6386190948133466,0.9993055555555556
1980,0.6393954410307235,0.9993055555555556
1981,0.6394284770399735,0.9993055555555556
1982,0.6396927651139742,0.9993055555555556
1983,0.6397258011232243,0.9993055555555556
1984,0.6401222332342253,0.9993055555555556
1985,0.6401552692434754,0.9993055555555556
1986,0.6423026098447308,0.9993055555555556
1987,0.6423356458539808,0.9993055555555556
1988,0.6450776346217377,0.9993055555555556
1989,0.6451106706309878,0.9993055555555556
1990,0.645193260654113,0.9993055555555556
1991,0.6452262966633631,0.9993055555555556
1992,0.6463164849686158,0.9993055555555556
1993,0.6463495209778659,0.9993055555555556
1994,0.6469772051536175,0.9993055555555556
1995,0.6470102411628675,0.9993055555555556
1996,0.6474066732738685,0.9993055555555556
1997,0.6474397092831186,0.9993055555555556
1998,0.6479517674264949,0.9993055555555556
1999,0.6479848034357449,0.9993055555555556
2000,0.649587049884374,0.9993055555555556
2001,0.6496200858936241,0.9993055555555556
2002,0.6497852659398745,0.9993055555555556
2003,0.6498183019491246,0.9993055555555556
2004,0.6503138420878758,0.9993055555555556
2005,0.6503468780971259,0.9993055555555556
2006,0.6520812685827552,0.9993055555555556
2007,0.6521143045920053,0.9993055555555556
2008,0.6523125206475058,0.9993055555555556
2009,0.6523455566567559,0.9993055555555556
2010,0.6540469111331351,0.9993055555555556
2011,0.6540799471423852,0.9993055555555556
2012,0.6551370994383878,0.9993055555555556
2013,0.6551701354476379,0.9993055555555556
2014,0.655599603567889,0.9993055555555556
2015,0.6556326395771391,0.9993055555555556
2016,0.6561612157251404,0.9993055555555556
2017,0.6561942517343905,0.9993055555555556
2018,0.6563759497852659,0.9993055555555556
2019,0.656408985794516,0.9993055555555556
2020,0.6564915758176413,0.9993055555555556
2021,0.6565246118268913,0.9993055555555556
2022,0.6574496200858936,0.9993055555555556
2023,0.6574826560951437,0.9993055555555556
2024,0.6578295341922695,0.9993055555555556
2025,0.6578625702015196,0.9993055555555556
2026,0.6588701684836472,0.9993055555555556
2027,0.6589032044928973,0.9993055555555556
2028,0.6592831185992732,0.9993055555555556
2029,0.6593161546085233,0.9993055555555556
2030,0.6599108027750248,0.9993055555555556
2031,0.6599438387842749,0.9993055555555556
2032,0.6621572514040304,0.9993055555555556
2033,0.6621902874132805,0.9993055555555556
2034,0.6635447637925339,0.9993055555555556
2035,0.663577799801784,0.9993055555555556
2036,0.6637925338619095,0.9993055555555556
2037,0.6638255698711596,0.9993055555555556
2038,0.6664519326065411,0.9993055555555556
2039,0.6665180046250413,0.9993055555555556
2040,0.6668318467129171,0.9993055555555556
2041,0.6668648827221672,0.9993055555555556
2042,0.6669474727452923,0.9993055555555556
2043,0.6669805087545424,0.9993055555555556
2044,0.6675090849025438,0.9993055555555556
2045,0.6675421209117939,0.9993055555555556
2046,0.6676742649487942,0.9993055555555556
2047,0.6677073009580443,0.9993055555555556
2048,0.6679550710274199,0.9993055555555556
2049,0.66798810703667,0.9993055555555556
2050,0.6682358771060456,0.9993055555555556
2051,0.6682689131152957,0.9993055555555556
2052,0.6683845391476709,0.9993055555555556
2053,0.668417575156921,0.9993055555555556
2054,0.6778989098116948,0.9993055555555556
2055,0.6779319458209448,0.9993055555555556
2056,0.6789725801123224,0.9993055555555556
2057,0.6790056161215725,0.9993055555555556
2058,0.6796498183019491,0.9993055555555556
2059,0.6796828543111992,0.9993055555555556
2060,0.681615460852329,0.9993055555555556
2061,0.6816484968615791,0.9993055555555556
2062,0.6836802114304592,0.9993055555555556
2063,0.6837132474397093,0.9993055555555556
2064,0.68397753551371,0.9993055555555556
2065,0.6840105715229601,0.9993055555555556
2066,0.6849190617773373,0.9993055555555556
2067,0.6849520977865874,0.9993055555555556
2068,0.6851007598282127,0.9993055555555556
2069,0.6851337958374628,0.9993055555555556
2070,0.6869507763462174,0.9993055555555556
2071,0.6869838123554675,0.9993055555555556
2072,0.6880574826560951,0.9993055555555556
2073,0.6880905186653452,0.9993055555555556
2074,0.6889659729104725,0.9993055555555556
2075,0.6889990089197225,0.9993055555555556
2076,0.6890155269243475,0.9993055555555556
2077,0.6890485629335976,0.9993055555555556
2078,0.6906342913776016,0.9993055555555556
2079,0.6906673273868517,0.9993055555555556
2080,0.6928311859927321,0.9993055555555556
2081,0.6928642220019822,0.9993055555555556
2082,0.6930789560621077,0.9993055555555556
2083,0.6931119920713578,0.9993055555555556
2084,0.6932936901222332,0.9993055555555556
2085,0.6933267261314833,0.9993055555555556
2086,0.6938553022794847,0.9993055555555556
2087,0.6938883382887348,0.9993055555555556
2088,0.6944995044598612,0.9993055555555556
2089,0.6945325404691113,0.9993055555555556
2090,0.6952262966633631,0.9993055555555556
2091,0.6952593326726132,0.9993055555555556
2092,0.6961513049223654,0.9993055555555556
2093,0.6961843409316154,0.9993055555555556
2094,0.6978691774033696,0.9993055555555556
2095,0.6979022134126197,0.9993055555555556
2096,0.6987115956392468,0.9993055555555556
2097,0.6987446316484969,0.9993055555555556
2098,0.6991740997687479,0.9993055555555556
2099,0.699207135777998,0.9993055555555556
2100,0.6999504459861249,0.9993055555555556
2101,0.699983481995375,0.9993055555555556
2102,0.7017013544763793,0.9993055555555556
2103,0.7017343904856294,0.9993055555555556
2104,0.7083911463495209,0.9993055555555556
2105,0.708424182358771,0.9993055555555556
2106,0.7092996366038983,0.9993055555555556
2107,0.7093326726131484,0.9993055555555556
2108,0.7093657086223984,0.9993055555555556
2109,0.7093987446316485,0.9993055555555556
2110,0.7097621407333994,0.9993055555555556
2111,0.7097951767426495,0.9993055555555556
2112,0.7102741988767757,0.9993055555555556
2113,0.7103072348860258,0.9993055555555556
2114,0.7127188635612818,0.9993055555555556
2115,0.7127518995705319,0.9993055555555556
2116,0.712768417575157,0.9993055555555556
2117,0.712801453584407,0.9993055555555556
2118,0.7140072679220351,0.9993055555555556
2119,0.7140403039312851,0.9993055555555556
2120,0.7144862900561613,0.9993055555555556
2121,0.7145193260654114,0.9993055555555556
2122,0.7148992401717873,0.9993055555555556
2123,0.7149322761810374,0.9993055555555556
2124,0.7197390155269243,0.9993055555555556
2125,0.7197720515361744,0.9993055555555556
2126,0.7198546415592997,0.9993055555555556
2127,0.7198876775685498,0.9993055555555556
2128,0.7199537495870498,0.9993055555555556
2129,0.7199867855962999,0.9993055555555556
2130,0.721589032044929,0.9993055555555556
2131,0.7216220680541791,0.9993055555555556
2132,0.722398414271556,0.9993055555555556
2133,0.7224314502808061,0.9993055555555556
2134,0.7241823587710604,0.9993055555555556
2135,0.7242153947803105,0.9993055555555556
2136,0.7257680872150645,0.9993055555555556
2137,0.7258011232243144,0.9993055555555556
2138,0.7259332672613148,0.9993055555555556
2139,0.7259663032705649,0.9993055555555556
2140,0.7260488932936902,0.9993055555555556
2141,0.7260819293029402,0.9993055555555556
2142,0.7264288074000661,0.9993055555555556
2143,0.7264618434093162,0.9993055555555556
2144,0.7269573835480674,0.9993055555555556
2145,0.7269904195573175,0.9993055555555556
2146,0.7272877436405683,0.9993055555555556
2147,0.7273207796498183,0.9993055555555556
2148,0.7302444664684506,0.9993055555555556
2149,0.7302775024777007,0.9993055555555556
2150,0.7303105384869508,0.9993055555555556
2151,0.7303435744962009,0.9993055555555556
2152,0.7308886686488272,0.9993055555555556
2153,0.7309217046580773,0.9993055555555556
2154,0.7330194912454575,0.9993055555555556
2155,0.7330525272547076,0.9993055555555556
2156,0.7331185992732078,0.9993055555555556
2157,0.7331516352824579,0.9993055555555556
2158,0.7334159233564586,0.9993055555555556
2159,0.7334489593657086,0.9993055555555556
2160,0.7370333663693426,0.9993055555555556
2161,0.7370664023785927,0.9993055555555556
2162,0.738420878757846,0.9993055555555556
2163,0.7384539147670961,0.9993055555555556
2164,0.7390320449289726,0.9993055555555556
2165,0.7390650809382227,0.9993055555555556
2166,0.7394449950445986,0.9993055555555556
2167,0.7394780310538487,0.9993055555555556
2168,0.7394945490584738,0.9993055555555556
2169,0.7395275850677239,0.9993055555555556
2170,0.7415427816319788,0.9993055555555556
2171,0.7415758176412289,0.9993055555555556
2172,0.742401717872481,0.9993055555555556
2173,0.7424347538817311,0.9993055555555556
2174,0.7441691443673604,0.9993055555555556
2175,0.7442021803766105,0.9993055555555556
2176,0.7456557647836142,0.9993055555555556
2177,0.7456888007928643,0.9993055555555556
2178,0.7466633630657417,0.9993055555555556
2179,0.7466963990749917,0.9993055555555556
2180,0.7477700693756194,0.9993055555555556
2181,0.7478031053848695,0.9993055555555556
2182,0.7489428477039973,0.9993055555555556
2183,0.7489758837132474,0.9993055555555556
2184,0.7519326065411298,0.9993055555555556
2185,0.7519656425503799,0.9993055555555556
2186,0.7520812685827553,0.9993055555555556
2187,0.7521143045920052,0.9993055555555556
2188,0.7555004955401388,0.9993055555555556
2189,0.7555335315493888,0.9993055555555556
2190,0.756408985794516,0.9993055555555556
2191,0.7564420218037661,0.9993055555555556
2192,0.7587875784605219,0.9993055555555556
2193,0.758820614469772,0.9993055555555556
2194,0.7611166171126528,0.9993055555555556
2195,0.7611496531219029,0.9993055555555556
2196,0.7626197555335316,0.9993055555555556
2197,0.7626527915427816,0.9993055555555556
2198,0.7637594978526594,0.9993055555555556
2199,0.7637925338619095,0.9993055555555556
2200,0.7678394449950446,0.9993055555555556
2201,0.7678724810042947,0.9993055555555556
2202,0.7692599933927982,0.9993055555555556
2203,0.7692930294020482,0.9993055555555556
2204,0.7704658077304262,0.9993055555555556
2205,0.7704988437396763,0.9993055555555556
2206,0.7765774694416915,0.9993055555555556
2207,0.7766105054509416,0.9993055555555556
2208,0.7769243475388173,0.9993055555555556
2209,0.7769573835480674,0.9993055555555556
2210,0.7774859596960687,0.9993055555555556
2211,0.7775189957053188,0.9993055555555556
2212,0.7811694747274529,0.9993055555555556
2213,0.781202510736703,0.9993055555555556
2214,0.7818301949124545,0.9993055555555556
2215,0.7818632309217046,0.9993055555555556
2216,0.7822926990419558,0.9993055555555556
2217,0.7823422530558308,0.9993055555555556
2218,0.782408325074331,0.9993055555555556
2219,0.7824413610835811,0.9993055555555556
2220,0.7848364717542121,0.9993055555555556
2221,0.7848695077634622,0.9993055555555556
2222,0.7849190617773373,0.9993055555555556
2223,0.7849520977865874,0.9993055555555556
2224,0.7891476709613479,0.9993055555555556
2225,0.789180706970598,0.9993055555555556
2226,0.7893624050214734,0.9993055555555556
2227,0.7893954410307235,0.9993055555555556
2228,0.7921374297984803,0.9993055555555556
2229,0.7921704658077304,0.9993055555555556
2230,0.7927485959696069,0.9993055555555556
2231,0.792781631978857,0.9993055555555556
2232,0.7943508424182358,0.9993055555555556
2233,0.7943838784274859,0.9993055555555556
2234,0.7976709613478692,0.9993055555555556
2235,0.7977039973571193,0.9993055555555556
2236,0.7984473075652461,0.9993055555555556
2237,0.7984803435744962,0.9993055555555556
2238,0.8018665345226297,0.9993055555555556
2239,0.8018995705318798,0.9993055555555556
2240,0.8020647505781302,0.9993055555555556
2241,0.8020977865873803,0.9993055555555556
2242,0.8031219028741328,0.9993055555555556
2243,0.8031549388833829,0.9993055555555556
2244,0.8046085232903866,0.9993055555555556
2245,0.8046415592996367,0.9993055555555556
2246,0.808771060455897,0.9993055555555556
2247,0.8088040964651471,0.9993055555555556
2248,0.8125206475057813,0.9993055555555556
2249,0.8125536835150314,0.9993055555555556
2250,0.8153782623059135,0.9993055555555556
2251,0.8154112983151636,0.9993055555555556
2252,0.8162867525602907,0.9993055555555556
2253,0.8163197885695408,0.9993055555555556
2254,0.8194416914436736,0.9993055555555556
2255,0.8194747274529237,0.9993055555555556
2256,0.8220350181698051,0.9993055555555556
2257,0.8220680541790552,0.9993055555555556
2258,0.8224810042946812,0.9993055555555556
2259,0.8225140403039313,0.9993055555555556
2260,0.8233564585398084,0.9993055555555556
2261,0.8233894945490585,0.9993055555555556
2262,0.825619425173439,0.9993055555555556
2263,0.8256524611826891,0.9993055555555556
2264,0.82601585728444,0.9993055555555556
2265,0.8260488932936901,0.9993055555555556
2266,0.8274694416914437,0.9993055555555556
2267,0.8275024777006937,0.9993055555555556
2268,0.828790882061447,0.9993055555555556
2269,0.8288239180706971,0.9993055555555556
2270,0.8312520647505781,0.9993055555555556
2271,0.8312851007598282,0.9993055555555556
2272,0.8329699372315824,0.9993055555555556
2273,0.8330029732408325,0.9993055555555556
2274,0.8333002973240833,0.9993055555555556
2275,0.8333333333333334,0.9993055555555556
2276,0.8336802114304592,0.9993055555555556
2277,0.8337132474397093,0.9993055555555556
2278,0.8354476379253386,0.9993055555555556
2279,0.8354806739345887,0.9993055555555556
2280,0.8400561612157251,0.9993055555555556
2281,0.8400891972249752,0.9993055555555556
2282,0.8402543772712256,0.9993055555555556
2283,0.8402874132804757,0.9993055555555556
2284,0.841228939544103,0.9993055555555556
2285,0.8412619755533531,0.9993055555555556
2286,0.8413280475718533,0.9993055555555556
2287,0.8413610835811034,0.9993055555555556
2288,0.8438718202841097,0.9993055555555556
2289,0.8439048562933598,0.9993055555555556
2290,0.8440700363396102,0.9993055555555556
2291,0.8441030723488603,0.9993055555555556
2292,0.8453584407003634,0.9993055555555556
2293,0.8453914767096135,0.9993055555555556
2294,0.8456888007928642,0.9993055555555556
2295,0.8457218368021143,0.9993055555555556
2296,0.8479682854311199,0.9993055555555556
2297,0.84800132144037,0.9993055555555556
2298,0.8484638255698712,0.9993055555555556
2299,0.8484968615791213,0.9993055555555556
2300,0.8510901883052527,0.9993055555555556
2301,0.8511232243145028,0.9993055555555556
2302,0.8514370664023786,0.9993055555555556
2303,0.8514701024116287,0.9993055555555556
2304,0.8529897588371325,0.9993055555555556
2305,0.8530227948463825,0.9993055555555556
2306,0.8555500495540139,0.9993055555555556
2307,0.855583085563264,0.9993055555555556
2308,0.8566567558638917,0.9993055555555556
2309,0.8566897918731418,0.9993055555555556
2310,0.856805417905517,0.9993055555555556
2311,0.8568384539147671,0.9993055555555556
2312,0.8568714899240172,0.9993055555555556
2313,0.8569045259332673,0.9993055555555556
2314,0.8599603567888999,0.9993055555555556
2315,0.85999339279815,0.9993055555555556
2316,0.8643871820284109,0.9993055555555556
2317,0.8644367360422861,0.9993055555555556
2318,0.8672778328377932,0.9993055555555556
2319,0.8672778328377932,1.0
2320,0.8690452593326726,1.0
2321,0.8690782953419227,1.0
2322,0.8695077634621737,1.0
2323,0.8695407994714238,1.0
2324,0.8707300958044268,1.0
2325,0.8707631318136769,1.0
2326,0.8709778658738024,1.0
2327,0.8710109018830525,1.0
2328,0.8718037661050545,1.0
2329,0.8718368021143046,1.0
2330,0.8721506442021804,1.0
2331,0.8721836802114304,1.0
2332,0.8722332342253056,1.0
2333,0.8722662702345557,1.0
2334,0.872398414271556,1.0
2335,0.872431450280806,1.0
2336,0.8730260984473076,1.0
2337,0.8730591344565577,1.0
2338,0.8744962008589362,1.0
2339,0.8745292368681863,1.0
2340,0.8800958044268252,1.0
2341,0.8801288404360753,1.0
2342,0.884390485629336,1.0
2343,0.8844235216385861,1.0
2344,0.8852989758837132,1.0
2345,0.8853320118929633,1.0
2346,0.8881235546745954,1.0
2347,0.8881565906838453,1.0
2348,0.8888833828873473,1.0
2349,0.8889164188965973,1.0
2350,0.8894284770399735,1.0
2351,0.8894615130492236,1.0
2352,0.8916418896597291,1.0
2353,0.8916749256689792,1.0
2354,0.8926660059464817,1.0
2355,0.8926990419557318,1.0
2356,0.8928642220019821,1.0
2357,0.8928972580112322,1.0
2358,0.8932276181037331,1.0
2359,0.8932606541129832,1.0
2360,0.8945986124876115,1.0
2361,0.8946316484968616,1.0
2362,0.8953254046911133,1.0
2363,0.8953584407003634,1.0
2364,0.8965312190287413,1.0
2365,0.8965642550379914,1.0
2366,0.9000495540138751,1.0
2367,0.9000825900231252,1.0
2368,0.9022464486290056,1.0
2369,0.9022794846382557,1.0
2370,0.9039478031053849,1.0
2371,0.903980839114635,1.0
2372,0.9045094152626363,1.0
2373,0.9045424512718864,1.0
2374,0.9057647836141394,1.0
2375,0.9057978196233895,1.0
2376,0.9099108027750248,1.0
2377,0.9099438387842749,1.0
2378,0.9130492236537826,1.0
2379,0.9130822596630327,1.0
2380,0.9133135117277833,1.0
2381,0.9133465477370334,1.0
2382,0.9137099438387842,1.0
2383,0.9137429798480343,1.0
2384,0.9190782953419226,1.0
2385,0.9191113313511727,1.0
2386,0.9212586719524282,1.0
2387,0.9212917079616783,1.0
2388,0.9219359101420549,1.0
2389,0.9219689461513049,1.0
2390,0.9232573505120582,1.0
2391,0.9232903865213082,1.0
2392,0.925222993062438,1.0
2393,0.9252560290716881,1.0
2394,0.9254872811364387,1.0
2395,0.9255203171456888,1.0
2396,0.9263131813676908,1.0
2397,0.9263462173769409,1.0
2398,0.9265939874463165,1.0
2399,0.9266270234555666,1.0
2400,0.929633300297324,1.0
2401,0.9296663363065741,1.0
2402,0.9378923026098447,1.0
2403,0.9379253386190948,1.0
2404,0.9392467789890981,1.0
2405,0.9392798149983482,1.0
2406,0.9407168814007268,1.0
2407,0.9407499174099768,1.0
2408,0.9414106375949786,1.0
2409,0.9414436736042286,1.0
2410,0.9421869838123554,1.0
2411,0.9422200198216055,1.0
2412,0.9454410307234886,1.0
2413,0.9454740667327387,1.0
2414,0.945589692765114,1.0
2415,0.945622728774364,1.0
2416,0.9466468450611166,1.0
2417,0.9466798810703667,1.0
2418,0.9486124876114965,1.0
2419,0.9486455236207466,1.0
2420,0.9487115956392468,1.0
2421,0.9487446316484969,1.0
2422,0.9489098116947473,1.0
2423,0.9489428477039974,1.0
2424,0.949190617773373,1.0
2425,0.9492236537826231,1.0
2426,0.9492401717872481,1.0
2427,0.9492732077964982,1.0
2428,0.9493888338288735,1.0
2429,0.9494218698381236,1.0
2430,0.9501982160555005,1.0
2431,0.9502312520647506,1.0
2432,0.9504790221341262,1.0
2433,0.9505120581433762,1.0
2434,0.954377271225636,1.0
2435,0.9544103072348861,1.0
2436,0.9545754872811364,1.0
2437,0.9546085232903865,1.0
2438,0.9554344235216385,1.0
2439,0.9554674595308886,1.0
2440,0.9576478361413941,1.0
2441,0.9576808721506442,1.0
2442,0.9591509745622728,1.0
2443,0.9591840105715229,1.0
2444,0.9619425173439049,1.0
2445,0.961975553353155,1.0
2446,0.9622893954410308,1.0
2447,0.9623224314502808,1.0
2448,0.9702345556656756,1.0
2449,0.9702675916749257,1.0
2450,0.9746283448959365,1.0
2451,0.9746613809051866,1.0
2452,0.976792203501817,1.0
2453,0.976825239511067,1.0
2454,0.9776676577469442,1.0
2455,0.9777006937561943,1.0
2456,0.9798149983481995,1.0
2457,0.9798480343574496,1.0
2458,0.9824743970928311,1.0
2459,0.9825074331020812,1.0
2460,0.9832342253055831,1.0
2461,0.9832672613148332,1.0
2462,0.9834489593657086,1.0
2463,0.9834819953749587,1.0
2464,0.9838288734720846,1.0
2465,0.9838619094813347,1.0
2466,0.9849355797819623,1.0
2467,0.9849686157912124,1.0
2468,0.989610175090849,1.0
2469,0.9896432111000991,1.0
2470,0.990815989428477,1.0
2471,0.9908490254377271,1.0
2472,0.9910637594978526,1.0
2473,0.9910967955071027,1.0
2474,0.9936736042286092,1.0
2475,0.9937066402378593,1.0
2476,0.9939048562933598,1.0
2477,0.9939378923026099,1.0
2478,0.9961017509084903,1.0
2479,0.9961347869177404,1.0
2480,0.9973901552692435,1.0
2481,0.9974231912784935,1.0
2482,0.9974562272877436,1.0
2483,0.9974892632969937,1.0
2484,0.9992732077964982,1.0
2485,0.9993392798149984,1.0
2486,1.0,1.0
