,fpr,tpr
0,0.0,0.0
1,0.0,0.0006944444444444445
2,3.303600925008259e-05,0.0006944444444444445
3,3.303600925008259e-05,0.01597222222222222
4,4.955401387512388e-05,0.01597222222222222
5,4.955401387512388e-05,0.050694444444444445
6,4.955401387512388e-05,0.052083333333333336
7,4.955401387512388e-05,0.05763888888888889
8,6.607201850016519e-05,0.05763888888888889
9,6.607201850016519e-05,0.058333333333333334
10,6.607201850016519e-05,0.059722222222222225
11,6.607201850016519e-05,0.06875
12,8.259002312520647e-05,0.06875
13,8.259002312520647e-05,0.075
14,9.910802775024777e-05,0.075
15,9.910802775024777e-05,0.08611111111111111
16,0.00011562603237528906,0.08611111111111111
17,0.00011562603237528906,0.08888888888888889
18,0.00011562603237528906,0.09027777777777778
19,0.00011562603237528906,0.09305555555555556
20,0.00013214403700033037,0.09305555555555556
21,0.00013214403700033037,0.09791666666666667
22,0.00013214403700033037,0.09930555555555555
23,0.00013214403700033037,0.10555555555555556
24,0.00014866204162537167,0.10555555555555556
25,0.00014866204162537167,0.12361111111111112
26,0.00016518004625041294,0.12361111111111112
27,0.00016518004625041294,0.12638888888888888
28,0.00018169805087545423,0.12638888888888888
29,0.00018169805087545423,0.1326388888888889
30,0.00018169805087545423,0.13402777777777777
31,0.00018169805087545423,0.15347222222222223
32,0.00019821605550049553,0.15347222222222223
33,0.00019821605550049553,0.1597222222222222
34,0.00021473406012553683,0.1597222222222222
35,0.00021473406012553683,0.16319444444444445
36,0.00023125206475057812,0.16319444444444445
37,0.00023125206475057812,0.17569444444444443
38,0.0002477700693756194,0.17569444444444443
39,0.0002477700693756194,0.18125
40,0.00026428807400066074,0.18125
41,0.00026428807400066074,0.19652777777777777
42,0.000280806078625702,0.19722222222222222
43,0.000280806078625702,0.1986111111111111
44,0.00029732408325074334,0.1986111111111111
45,0.00029732408325074334,0.20694444444444443
46,0.0003138420878757846,0.20694444444444443
47,0.0003138420878757846,0.21319444444444444
48,0.0003303600925008259,0.21319444444444444
49,0.0003303600925008259,0.21597222222222223
50,0.0003468780971258672,0.21597222222222223
51,0.0003468780971258672,0.2222222222222222
52,0.00036339610175090847,0.2222222222222222
53,0.00036339610175090847,0.2263888888888889
54,0.0003799141063759498,0.2263888888888889
55,0.0003799141063759498,0.22708333333333333
56,0.00039643211100099106,0.22777777777777777
57,0.00039643211100099106,0.2298611111111111
58,0.0004129501156260324,0.2298611111111111
59,0.0004129501156260324,0.23194444444444445
60,0.00042946812025107365,0.23194444444444445
61,0.00042946812025107365,0.24097222222222223
62,0.000445986124876115,0.24097222222222223
63,0.000445986124876115,0.25972222222222224
64,0.00046250412950115625,0.25972222222222224
65,0.00046250412950115625,0.2833333333333333
66,0.00047902213412619757,0.2833333333333333
67,0.00047902213412619757,0.28402777777777777
68,0.0004955401387512388,0.28402777777777777
69,0.0004955401387512388,0.2875
70,0.0005285761480013215,0.2875
71,0.0005285761480013215,0.28888888888888886
72,0.0005450941526263627,0.28888888888888886
73,0.0005450941526263627,0.29375
74,0.000561612157251404,0.29375
75,0.000561612157251404,0.29583333333333334
76,0.0005781301618764453,0.29583333333333334
77,0.0005781301618764453,0.3159722222222222
78,0.0005781301618764453,0.3173611111111111
79,0.0005781301618764453,0.3215277777777778
80,0.0006276841757515692,0.3215277777777778
81,0.0006276841757515692,0.3263888888888889
82,0.0006442021803766105,0.3263888888888889
83,0.0006442021803766105,0.33055555555555555
84,0.0006607201850016518,0.33055555555555555
85,0.0006607201850016518,0.33125
86,0.0006772381896266931,0.33125
87,0.0006772381896266931,0.33194444444444443
88,0.0006772381896266931,0.3333333333333333
89,0.0006772381896266931,0.3375
90,0.0006937561942517344,0.3375
91,0.0006937561942517344,0.34375
92,0.0007102741988767757,0.34375
93,0.0007267922035018169,0.34444444444444444
94,0.0007267922035018169,0.3451388888888889
95,0.0007433102081268583,0.3451388888888889
96,0.0007433102081268583,0.3458333333333333
97,0.0007598282127518996,0.3458333333333333
98,0.0007598282127518996,0.34652777777777777
99,0.0007763462173769409,0.34652777777777777
100,0.0007763462173769409,0.3701388888888889
101,0.0007928642220019821,0.3701388888888889
102,0.0007928642220019821,0.37569444444444444
103,0.0008093822266270234,0.37569444444444444
104,0.0008093822266270234,0.38125
105,0.0008259002312520648,0.38125
106,0.0008259002312520648,0.38333333333333336
107,0.0008424182358771061,0.38333333333333336
108,0.0008424182358771061,0.38680555555555557
109,0.0008589362405021473,0.38680555555555557
110,0.0008589362405021473,0.38819444444444445
111,0.0008754542451271886,0.38819444444444445
112,0.0008754542451271886,0.39861111111111114
113,0.00089197224975223,0.39861111111111114
114,0.00089197224975223,0.3993055555555556
115,0.0009084902543772713,0.3993055555555556
116,0.0009084902543772713,0.40347222222222223
117,0.0009250082590023125,0.40347222222222223
118,0.0009250082590023125,0.41388888888888886
119,0.0009415262636273538,0.41388888888888886
120,0.0009415262636273538,0.41805555555555557
121,0.0009580442682523951,0.41805555555555557
122,0.0009580442682523951,0.42083333333333334
123,0.0009910802775024777,0.42083333333333334
124,0.0009910802775024777,0.425
125,0.001007598282127519,0.425
126,0.001007598282127519,0.43680555555555556
127,0.0010241162867525603,0.43680555555555556
128,0.0010241162867525603,0.43819444444444444
129,0.001057152296002643,0.43819444444444444
130,0.001057152296002643,0.4388888888888889
131,0.001073670300627684,0.4388888888888889
132,0.001073670300627684,0.44166666666666665
133,0.0010901883052527254,0.44166666666666665
134,0.0010901883052527254,0.4423611111111111
135,0.0010901883052527254,0.44375
136,0.0010901883052527254,0.4486111111111111
137,0.0011067063098777667,0.4486111111111111
138,0.0011067063098777667,0.45069444444444445
139,0.001123224314502808,0.45069444444444445
140,0.001123224314502808,0.4527777777777778
141,0.0011397423191278494,0.4527777777777778
142,0.0011397423191278494,0.45416666666666666
143,0.0011562603237528907,0.45416666666666666
144,0.0011562603237528907,0.45555555555555555
145,0.0011892963330029733,0.45555555555555555
146,0.0011892963330029733,0.4576388888888889
147,0.0012223323422530558,0.4576388888888889
148,0.0012223323422530558,0.46111111111111114
149,0.001238850346878097,0.46111111111111114
150,0.001238850346878097,0.4666666666666667
151,0.0012553683515031384,0.4666666666666667
152,0.0012553683515031384,0.4673611111111111
153,0.0012718863561281797,0.4673611111111111
154,0.0012718863561281797,0.46805555555555556
155,0.001288404360753221,0.46805555555555556
156,0.001288404360753221,0.475
157,0.0013049223653782624,0.475
158,0.0013049223653782624,0.4847222222222222
159,0.0013214403700033035,0.4847222222222222
160,0.0013214403700033035,0.48819444444444443
161,0.0013379583746283448,0.48819444444444443
162,0.0013379583746283448,0.4888888888888889
163,0.0013544763792533861,0.4888888888888889
164,0.0013544763792533861,0.4895833333333333
165,0.0013709943838784275,0.4895833333333333
166,0.0013709943838784275,0.4930555555555556
167,0.0013875123885034688,0.4930555555555556
168,0.0013875123885034688,0.49375
169,0.0014040303931285101,0.49375
170,0.0014040303931285101,0.49444444444444446
171,0.0014205483977535514,0.49444444444444446
172,0.0014205483977535514,0.4965277777777778
173,0.0014370664023785928,0.4965277777777778
174,0.0014370664023785928,0.5006944444444444
175,0.0014535844070036339,0.5006944444444444
176,0.0014535844070036339,0.5034722222222222
177,0.0014701024116286752,0.5034722222222222
178,0.0014701024116286752,0.50625
179,0.0014866204162537165,0.50625
180,0.0014866204162537165,0.5097222222222222
181,0.0015031384208787578,0.5097222222222222
182,0.0015031384208787578,0.5152777777777777
183,0.0015031384208787578,0.5166666666666667
184,0.0015196564255037992,0.5166666666666667
185,0.0015196564255037992,0.5173611111111112
186,0.0015361744301288405,0.5173611111111112
187,0.0015361744301288405,0.51875
188,0.001569210439378923,0.51875
189,0.001569210439378923,0.5222222222222223
190,0.0015857284440039642,0.5222222222222223
191,0.0015857284440039642,0.525
192,0.0016022464486290056,0.525
193,0.0016022464486290056,0.5319444444444444
194,0.001618764453254047,0.5319444444444444
195,0.001618764453254047,0.5347222222222222
196,0.0016352824578790882,0.5347222222222222
197,0.0016352824578790882,0.5361111111111111
198,0.0016683184671291709,0.5361111111111111
199,0.0016683184671291709,0.5375
200,0.0016848364717542122,0.5375
201,0.0016848364717542122,0.5388888888888889
202,0.0017013544763792533,0.5388888888888889
203,0.0017013544763792533,0.5409722222222222
204,0.0017178724810042946,0.5409722222222222
205,0.0017178724810042946,0.5430555555555555
206,0.0017178724810042946,0.5444444444444444
207,0.001734390485629336,0.5444444444444444
208,0.001734390485629336,0.5451388888888888
209,0.0017509084902543773,0.5451388888888888
210,0.0017509084902543773,0.5472222222222223
211,0.0017674264948794186,0.5472222222222223
212,0.0017674264948794186,0.55
213,0.00178394449950446,0.55
214,0.00178394449950446,0.5506944444444445
215,0.0018169805087545426,0.5506944444444445
216,0.0018169805087545426,0.5520833333333334
217,0.0018334985133795837,0.5520833333333334
218,0.0018334985133795837,0.5534722222222223
219,0.001850016518004625,0.5534722222222223
220,0.001850016518004625,0.5548611111111111
221,0.0018665345226296663,0.5548611111111111
222,0.0018665345226296663,0.55625
223,0.0018830525272547076,0.55625
224,0.0018830525272547076,0.5569444444444445
225,0.001899570531879749,0.5569444444444445
226,0.001899570531879749,0.5576388888888889
227,0.0019491245457548727,0.5576388888888889
228,0.0019491245457548727,0.5583333333333333
229,0.0019821605550049554,0.5583333333333333
230,0.0019821605550049554,0.5590277777777778
231,0.002015196564255038,0.5590277777777778
232,0.002015196564255038,0.5597222222222222
233,0.0020317145688800793,0.5597222222222222
234,0.0020317145688800793,0.5652777777777778
235,0.0020482325735051207,0.5652777777777778
236,0.0020482325735051207,0.5694444444444444
237,0.0020977865873802446,0.5694444444444444
238,0.0020977865873802446,0.5708333333333333
239,0.002114304592005286,0.5708333333333333
240,0.002114304592005286,0.5756944444444444
241,0.002147340601255368,0.5756944444444444
242,0.002147340601255368,0.5770833333333333
243,0.0021638586058804095,0.5770833333333333
244,0.0021638586058804095,0.5777777777777777
245,0.002180376610505451,0.5777777777777777
246,0.002180376610505451,0.5791666666666667
247,0.002196894615130492,0.5791666666666667
248,0.002196894615130492,0.58125
249,0.0022134126197555335,0.58125
250,0.0022134126197555335,0.5854166666666667
251,0.0022299306243805748,0.5854166666666667
252,0.0022299306243805748,0.5861111111111111
253,0.0022794846382556988,0.5861111111111111
254,0.0022794846382556988,0.5868055555555556
255,0.0023290386521308227,0.5868055555555556
256,0.0023290386521308227,0.5916666666666667
257,0.002345556656755864,0.5916666666666667
258,0.002345556656755864,0.5951388888888889
259,0.0023620746613809054,0.5951388888888889
260,0.0023620746613809054,0.5972222222222222
261,0.0023951106706309876,0.5972222222222222
262,0.0023951106706309876,0.5979166666666667
263,0.0024281466798810702,0.5979166666666667
264,0.0024281466798810702,0.6027777777777777
265,0.0024446646845061116,0.6027777777777777
266,0.0024446646845061116,0.6041666666666666
267,0.002461182689131153,0.6041666666666666
268,0.002461182689131153,0.6048611111111111
269,0.0024942186983812355,0.6048611111111111
270,0.0024942186983812355,0.6055555555555555
271,0.0025437727122563595,0.6055555555555555
272,0.0025437727122563595,0.6069444444444444
273,0.002560290716881401,0.6069444444444444
274,0.002560290716881401,0.6111111111111112
275,0.002609844730756525,0.6111111111111112
276,0.002609844730756525,0.6125
277,0.0026593987446316483,0.6125
278,0.0026593987446316483,0.6152777777777778
279,0.0026759167492566896,0.6152777777777778
280,0.0026759167492566896,0.6166666666666667
281,0.002692434753881731,0.6166666666666667
282,0.002692434753881731,0.6173611111111111
283,0.0027089527585067723,0.6173611111111111
284,0.0027089527585067723,0.61875
285,0.002741988767756855,0.61875
286,0.002741988767756855,0.6194444444444445
287,0.0027750247770069376,0.6194444444444445
288,0.0027750247770069376,0.6208333333333333
289,0.002791542781631979,0.6208333333333333
290,0.002791542781631979,0.6222222222222222
291,0.0028080607862570202,0.6222222222222222
292,0.0028080607862570202,0.6236111111111111
293,0.0028245787908820616,0.6236111111111111
294,0.0028245787908820616,0.6263888888888889
295,0.002841096795507103,0.6263888888888889
296,0.002841096795507103,0.6284722222222222
297,0.002841096795507103,0.6298611111111111
298,0.002923686818632309,0.6298611111111111
299,0.002923686818632309,0.6333333333333333
300,0.0029402048232573504,0.6333333333333333
301,0.0029402048232573504,0.6340277777777777
302,0.0029567228278823917,0.6340277777777777
303,0.0029567228278823917,0.6347222222222222
304,0.0030062768417575157,0.6347222222222222
305,0.0030062768417575157,0.6354166666666666
306,0.0030393128510075983,0.6354166666666666
307,0.0030393128510075983,0.6375
308,0.003072348860257681,0.6375
309,0.003072348860257681,0.6388888888888888
310,0.003154938883382887,0.6388888888888888
311,0.003154938883382887,0.6395833333333333
312,0.0031714568880079285,0.6395833333333333
313,0.0031714568880079285,0.64375
314,0.0032210109018830525,0.64375
315,0.0032210109018830525,0.6472222222222223
316,0.003237528906508094,0.6472222222222223
317,0.003237528906508094,0.6479166666666667
318,0.0033861909481334653,0.6479166666666667
319,0.0033861909481334653,0.6493055555555556
320,0.003419226957383548,0.6493055555555556
321,0.003419226957383548,0.65
322,0.0034522629666336306,0.65
323,0.0034522629666336306,0.6506944444444445
324,0.003468780971258672,0.6506944444444445
325,0.003468780971258672,0.6520833333333333
326,0.0035018169805087545,0.6520833333333333
327,0.0035018169805087545,0.6527777777777778
328,0.003518334985133796,0.6527777777777778
329,0.003518334985133796,0.6548611111111111
330,0.003534852989758837,0.6548611111111111
331,0.003534852989758837,0.6555555555555556
332,0.00356788899900892,0.6555555555555556
333,0.00356788899900892,0.65625
334,0.0036009250082590025,0.65625
335,0.0036009250082590025,0.6569444444444444
336,0.003650479022134126,0.6569444444444444
337,0.003650479022134126,0.6576388888888889
338,0.0036835150313842087,0.6576388888888889
339,0.0036835150313842087,0.6583333333333333
340,0.0037330690452593326,0.6583333333333333
341,0.0037330690452593326,0.6590277777777778
342,0.003749587049884374,0.6590277777777778
343,0.003749587049884374,0.6604166666666667
344,0.0037661050545094153,0.6604166666666667
345,0.0037661050545094153,0.6618055555555555
346,0.0037826230591344566,0.6618055555555555
347,0.0037826230591344566,0.6652777777777777
348,0.003799141063759498,0.6652777777777777
349,0.003799141063759498,0.6659722222222222
350,0.0038156590683845392,0.6659722222222222
351,0.0038156590683845392,0.66875
352,0.003848695077634622,0.66875
353,0.003848695077634622,0.6694444444444444
354,0.003865213082259663,0.6694444444444444
355,0.003865213082259663,0.6701388888888888
356,0.0038817310868847045,0.6701388888888888
357,0.0038817310868847045,0.6722222222222223
358,0.0038982490915097454,0.6722222222222223
359,0.0038982490915097454,0.6729166666666667
360,0.003914767096134787,0.6729166666666667
361,0.003914767096134787,0.6736111111111112
362,0.003931285100759828,0.6736111111111112
363,0.003931285100759828,0.675
364,0.0039808391146349525,0.675
365,0.0039808391146349525,0.6784722222222223
366,0.003997357119259993,0.6784722222222223
367,0.003997357119259993,0.6805555555555556
368,0.004030393128510076,0.6805555555555556
369,0.004030393128510076,0.68125
370,0.004046911133135117,0.68125
371,0.004046911133135117,0.6819444444444445
372,0.004129501156260324,0.6819444444444445
373,0.004129501156260324,0.6826388888888889
374,0.004162537165510407,0.6826388888888889
375,0.004162537165510407,0.6833333333333333
376,0.004162537165510407,0.6847222222222222
377,0.004195573174760489,0.6847222222222222
378,0.004195573174760489,0.6868055555555556
379,0.00421209117938553,0.6868055555555556
380,0.00421209117938553,0.6881944444444444
381,0.004228609184010572,0.6881944444444444
382,0.004228609184010572,0.6902777777777778
383,0.004245127188635613,0.6902777777777778
384,0.004245127188635613,0.6909722222222222
385,0.0042616451932606545,0.6909722222222222
386,0.0042616451932606545,0.6916666666666667
387,0.004294681202510736,0.6916666666666667
388,0.004294681202510736,0.6923611111111111
389,0.004311199207135778,0.6923611111111111
390,0.004311199207135778,0.69375
391,0.004393789230260984,0.69375
392,0.004393789230260984,0.6944444444444444
393,0.004410307234886026,0.6944444444444444
394,0.004410307234886026,0.6951388888888889
395,0.004426825239511067,0.6951388888888889
396,0.004426825239511067,0.6958333333333333
397,0.004443343244136109,0.6958333333333333
398,0.004443343244136109,0.6972222222222222
399,0.004476379253386191,0.6972222222222222
400,0.004476379253386191,0.6979166666666666
401,0.004492897258011232,0.6979166666666666
402,0.004492897258011232,0.6986111111111111
403,0.004542451271886356,0.6986111111111111
404,0.004542451271886356,0.7013888888888888
405,0.004575487281136438,0.7013888888888888
406,0.004575487281136438,0.7020833333333333
407,0.004674595308886686,0.7020833333333333
408,0.004674595308886686,0.7027777777777777
409,0.004707631318136769,0.7027777777777777
410,0.004707631318136769,0.7034722222222223
411,0.004724149322761811,0.7034722222222223
412,0.004724149322761811,0.7041666666666667
413,0.004773703336636934,0.7041666666666667
414,0.004773703336636934,0.7048611111111112
415,0.004806739345887017,0.7048611111111112
416,0.004806739345887017,0.7055555555555556
417,0.0048562933597621405,0.7055555555555556
418,0.0048562933597621405,0.70625
419,0.004889329369012223,0.70625
420,0.004889329369012223,0.7076388888888889
421,0.004905847373637265,0.7076388888888889
422,0.004905847373637265,0.7090277777777778
423,0.004955401387512388,0.7090277777777778
424,0.004955401387512388,0.7104166666666667
425,0.00497191939213743,0.7104166666666667
426,0.00497191939213743,0.7111111111111111
427,0.005071027419887677,0.7111111111111111
428,0.005071027419887677,0.7118055555555556
429,0.005153617443012884,0.7118055555555556
430,0.005153617443012884,0.7131944444444445
431,0.005186653452262967,0.7131944444444445
432,0.005186653452262967,0.7152777777777778
433,0.0052362074661380905,0.7152777777777778
434,0.0052362074661380905,0.7159722222222222
435,0.005252725470763132,0.7159722222222222
436,0.005252725470763132,0.7166666666666667
437,0.005285761480013214,0.7166666666666667
438,0.005285761480013214,0.7173611111111111
439,0.005302279484638256,0.7173611111111111
440,0.005302279484638256,0.7180555555555556
441,0.005335315493888338,0.7180555555555556
442,0.005335315493888338,0.71875
443,0.005368351503138421,0.71875
444,0.005368351503138421,0.7194444444444444
445,0.0055170135447637925,0.7194444444444444
446,0.0055170135447637925,0.7201388888888889
447,0.005566567558638916,0.7201388888888889
448,0.005566567558638916,0.7229166666666667
449,0.0056161215725140405,0.7229166666666667
450,0.0056161215725140405,0.7236111111111111
451,0.005715229600264288,0.7236111111111111
452,0.005715229600264288,0.725
453,0.005731747604889329,0.725
454,0.005731747604889329,0.7256944444444444
455,0.005764783614139412,0.7256944444444444
456,0.005764783614139412,0.7263888888888889
457,0.005847373637264618,0.7263888888888889
458,0.005847373637264618,0.7270833333333333
459,0.005929963660389825,0.7270833333333333
460,0.005929963660389825,0.7277777777777777
461,0.005946481665014866,0.7277777777777777
462,0.005946481665014866,0.7284722222222222
463,0.0059960356788899905,0.7284722222222222
464,0.0059960356788899905,0.7291666666666666
465,0.0061942517343904855,0.7291666666666666
466,0.0061942517343904855,0.7305555555555555
467,0.00624380574826561,0.7305555555555555
468,0.00624380574826561,0.73125
469,0.006276841757515692,0.73125
470,0.006276841757515692,0.7319444444444444
471,0.006326395771390816,0.7319444444444444
472,0.006326395771390816,0.7326388888888888
473,0.006392467789890981,0.7326388888888888
474,0.006392467789890981,0.7333333333333333
475,0.006475057813016188,0.7333333333333333
476,0.006475057813016188,0.7347222222222223
477,0.006491575817641229,0.7347222222222223
478,0.006491575817641229,0.7354166666666667
479,0.00650809382226627,0.7354166666666667
480,0.00650809382226627,0.7361111111111112
481,0.006541129831516353,0.7361111111111112
482,0.006541129831516353,0.7368055555555556
483,0.0065741658407664355,0.7368055555555556
484,0.0065741658407664355,0.7375
485,0.006656755863891642,0.7375
486,0.006689791873141724,0.7375
487,0.006722827882391807,0.7375
488,0.006722827882391807,0.7388888888888889
489,0.006739345887016849,0.7388888888888889
490,0.0067723818962669305,0.7388888888888889
491,0.0067723818962669305,0.7395833333333334
492,0.006937561942517344,0.7395833333333334
493,0.006937561942517344,0.7402777777777778
494,0.007053187974892633,0.7402777777777778
495,0.007053187974892633,0.7409722222222223
496,0.007102741988767757,0.7409722222222223
497,0.007102741988767757,0.7416666666666667
498,0.007185332011892963,0.7416666666666667
499,0.007185332011892963,0.7423611111111111
500,0.007218368021143046,0.7423611111111111
501,0.007218368021143046,0.7430555555555556
502,0.007234886025768088,0.7430555555555556
503,0.007234886025768088,0.7444444444444445
504,0.007234886025768088,0.7451388888888889
505,0.0072514040303931285,0.7451388888888889
506,0.0072514040303931285,0.7458333333333333
507,0.007300958044268252,0.7458333333333333
508,0.007300958044268252,0.7465277777777778
509,0.007333994053518335,0.7465277777777778
510,0.007333994053518335,0.7472222222222222
511,0.007383548067393459,0.7472222222222222
512,0.007383548067393459,0.7479166666666667
513,0.007433102081268583,0.7479166666666667
514,0.007433102081268583,0.7486111111111111
515,0.0075322101090188305,0.7486111111111111
516,0.0075322101090188305,0.7493055555555556
517,0.007647836141394119,0.7493055555555556
518,0.007647836141394119,0.75
519,0.007664354146019161,0.75
520,0.007664354146019161,0.7513888888888889
521,0.007730426164519326,0.7513888888888889
522,0.007763462173769409,0.7513888888888889
523,0.00777998017839445,0.7513888888888889
524,0.00777998017839445,0.7520833333333333
525,0.007928642220019821,0.7520833333333333
526,0.007928642220019821,0.7527777777777778
527,0.007978196233894945,0.7527777777777778
528,0.007978196233894945,0.7534722222222222
529,0.008143376280145359,0.7534722222222222
530,0.008143376280145359,0.7541666666666667
531,0.008225966303270564,0.7541666666666667
532,0.008225966303270564,0.7555555555555555
533,0.008308556326395771,0.7555555555555555
534,0.008308556326395771,0.75625
535,0.008325074331020813,0.75625
536,0.008325074331020813,0.7569444444444444
537,0.008391146349520979,0.7569444444444444
538,0.008391146349520979,0.7576388888888889
539,0.008407664354146019,0.7576388888888889
540,0.008407664354146019,0.7583333333333333
541,0.008440700363396102,0.7583333333333333
542,0.008440700363396102,0.7590277777777777
543,0.008506772381896267,0.7590277777777777
544,0.008506772381896267,0.7611111111111111
545,0.008655434423521638,0.7611111111111111
546,0.008655434423521638,0.7618055555555555
547,0.00867195242814668,0.7618055555555555
548,0.00867195242814668,0.7631944444444444
549,0.008688470432771721,0.7631944444444444
550,0.008688470432771721,0.7638888888888888
551,0.008704988437396763,0.7638888888888888
552,0.008704988437396763,0.7645833333333333
553,0.008787578460521969,0.7645833333333333
554,0.008787578460521969,0.7659722222222223
555,0.008853650479022134,0.7659722222222223
556,0.008853650479022134,0.7673611111111112
557,0.008886686488272217,0.7673611111111112
558,0.008886686488272217,0.76875
559,0.008936240502147341,0.76875
560,0.008936240502147341,0.7694444444444445
561,0.008985794516022464,0.7694444444444445
562,0.008985794516022464,0.7701388888888889
563,0.00905186653452263,0.7701388888888889
564,0.00905186653452263,0.7708333333333334
565,0.009068384539147671,0.7708333333333334
566,0.009068384539147671,0.7715277777777778
567,0.009250082590023126,0.7715277777777778
568,0.009250082590023126,0.7729166666666667
569,0.009299636603898249,0.7729166666666667
570,0.009299636603898249,0.7736111111111111
571,0.009332672613148331,0.7736111111111111
572,0.009332672613148331,0.7743055555555556
573,0.009382226627023456,0.7743055555555556
574,0.009382226627023456,0.775
575,0.009415262636273538,0.775
576,0.009415262636273538,0.7756944444444445
577,0.00943178064089858,0.7756944444444445
578,0.009464816650148661,0.7756944444444445
579,0.009481334654773703,0.7756944444444445
580,0.009481334654773703,0.7763888888888889
581,0.009547406673273869,0.7763888888888889
582,0.009547406673273869,0.7770833333333333
583,0.00982821275189957,0.7770833333333333
584,0.00982821275189957,0.7777777777777778
585,0.0099603567888999,0.7777777777777778
586,0.0099603567888999,0.7784722222222222
587,0.009993392798149984,0.7784722222222222
588,0.009993392798149984,0.7798611111111111
589,0.010042946812025107,0.7798611111111111
590,0.010042946812025107,0.7805555555555556
591,0.01005946481665015,0.7805555555555556
592,0.01005946481665015,0.78125
593,0.01007598282127519,0.78125
594,0.01007598282127519,0.7819444444444444
595,0.010109018830525273,0.7819444444444444
596,0.010109018830525273,0.7826388888888889
597,0.010175090849025438,0.7826388888888889
598,0.010175090849025438,0.7833333333333333
599,0.010241162867525603,0.7833333333333333
600,0.010274198876775685,0.7833333333333333
601,0.010274198876775685,0.7840277777777778
602,0.010323752890650809,0.7840277777777778
603,0.010323752890650809,0.7847222222222222
604,0.01034027089527585,0.7847222222222222
605,0.01034027089527585,0.7854166666666667
606,0.010406342913776016,0.7854166666666667
607,0.010422860918401057,0.7861111111111111
608,0.010422860918401057,0.7868055555555555
609,0.010472414932276181,0.7868055555555555
610,0.010472414932276181,0.7875
611,0.010488932936901223,0.7875
612,0.010488932936901223,0.7881944444444444
613,0.010703666997026759,0.7881944444444444
614,0.010703666997026759,0.7888888888888889
615,0.0107201850016518,0.7888888888888889
616,0.0107201850016518,0.7895833333333333
617,0.010769739015526924,0.7895833333333333
618,0.010769739015526924,0.7909722222222222
619,0.011034027089527585,0.7909722222222222
620,0.011034027089527585,0.7923611111111111
621,0.01110009910802775,0.7923611111111111
622,0.01110009910802775,0.7930555555555555
623,0.011133135117277832,0.7930555555555555
624,0.011133135117277832,0.79375
625,0.011166171126527916,0.79375
626,0.011199207135777997,0.79375
627,0.011199207135777997,0.7944444444444444
628,0.011232243145028081,0.7944444444444444
629,0.011232243145028081,0.7951388888888888
630,0.011298315163528246,0.7951388888888888
631,0.011298315163528246,0.7958333333333333
632,0.011314833168153286,0.7958333333333333
633,0.011314833168153286,0.7965277777777777
634,0.011496531219028742,0.7965277777777777
635,0.011496531219028742,0.7972222222222223
636,0.011513049223653782,0.7972222222222223
637,0.011513049223653782,0.7979166666666667
638,0.01159563924677899,0.7979166666666667
639,0.01159563924677899,0.7986111111111112
640,0.01172778328377932,0.7986111111111112
641,0.01172778328377932,0.8
642,0.01185992732077965,0.8
643,0.01185992732077965,0.8013888888888889
644,0.011942517343904856,0.8013888888888889
645,0.011942517343904856,0.8020833333333334
646,0.012041625371655105,0.8020833333333334
647,0.012041625371655105,0.8027777777777778
648,0.012091179385530228,0.8027777777777778
649,0.012091179385530228,0.8041666666666667
650,0.0122398414271556,0.8041666666666667
651,0.0122398414271556,0.8048611111111111
652,0.01235546745953089,0.8048611111111111
653,0.01235546745953089,0.80625
654,0.012405021473406013,0.80625
655,0.012405021473406013,0.8069444444444445
656,0.012471093491906178,0.8069444444444445
657,0.012537165510406343,0.8069444444444445
658,0.012537165510406343,0.8076388888888889
659,0.012619755533531549,0.8076388888888889
660,0.012619755533531549,0.8083333333333333
661,0.012669309547406674,0.8083333333333333
662,0.012702345556656756,0.8083333333333333
663,0.01288404360753221,0.8083333333333333
664,0.01288404360753221,0.8090277777777778
665,0.012900561612157252,0.8090277777777778
666,0.012900561612157252,0.8104166666666667
667,0.012917079616782293,0.8104166666666667
668,0.012950115626032375,0.8104166666666667
669,0.012966633630657417,0.8104166666666667
670,0.012966633630657417,0.8111111111111111
671,0.01301618764453254,0.8111111111111111
672,0.01301618764453254,0.8118055555555556
673,0.013197885695407995,0.8118055555555556
674,0.013197885695407995,0.8125
675,0.013247439709283118,0.8125
676,0.013247439709283118,0.8131944444444444
677,0.013280475718533202,0.8131944444444444
678,0.013280475718533202,0.8138888888888889
679,0.013412619755533532,0.8138888888888889
680,0.013412619755533532,0.8145833333333333
681,0.013577799801783945,0.8145833333333333
682,0.013577799801783945,0.8152777777777778
683,0.013742979848034357,0.8152777777777778
684,0.013742979848034357,0.8159722222222222
685,0.013809051866534522,0.8159722222222222
686,0.013809051866534522,0.8166666666666667
687,0.01389164188965973,0.8166666666666667
688,0.01389164188965973,0.8173611111111111
689,0.013924677898909811,0.8173611111111111
690,0.013957713908159895,0.8173611111111111
691,0.014040303931285102,0.8173611111111111
692,0.014040303931285102,0.8180555555555555
693,0.014089857945160225,0.8180555555555555
694,0.014089857945160225,0.81875
695,0.014106375949785265,0.81875
696,0.014106375949785265,0.8194444444444444
697,0.014139411959035349,0.8194444444444444
698,0.014139411959035349,0.8201388888888889
699,0.01417244796828543,0.8201388888888889
700,0.01417244796828543,0.8208333333333333
701,0.014255037991410638,0.8208333333333333
702,0.014255037991410638,0.8215277777777777
703,0.01427155599603568,0.8215277777777777
704,0.01427155599603568,0.8222222222222222
705,0.014387182028410968,0.8222222222222222
706,0.01442021803766105,0.8222222222222222
707,0.01455236207466138,0.8222222222222222
708,0.01455236207466138,0.8229166666666666
709,0.014717542120911795,0.8229166666666666
710,0.014717542120911795,0.8243055555555555
711,0.01493227618103733,0.8243055555555555
712,0.01493227618103733,0.825
713,0.015014866204162538,0.825
714,0.015014866204162538,0.8256944444444444
715,0.015147010241162868,0.8256944444444444
716,0.015147010241162868,0.8263888888888888
717,0.015361744301288404,0.8263888888888888
718,0.015361744301288404,0.8270833333333333
719,0.015444334324413611,0.8270833333333333
720,0.015444334324413611,0.8277777777777777
721,0.01567558638916419,0.8277777777777777
722,0.01567558638916419,0.8284722222222223
723,0.01580773042616452,0.8284722222222223
724,0.01580773042616452,0.8291666666666667
725,0.016005946481665013,0.8291666666666667
726,0.016005946481665013,0.8298611111111112
727,0.016022464486290057,0.8298611111111112
728,0.016022464486290057,0.8305555555555556
729,0.016055500495540137,0.8305555555555556
730,0.016055500495540137,0.83125
731,0.01622068054179055,0.83125
732,0.01622068054179055,0.8319444444444445
733,0.016237198546415595,0.8319444444444445
734,0.016270234555665675,0.8319444444444445
735,0.016468450611166172,0.8319444444444445
736,0.016468450611166172,0.8326388888888889
737,0.01656755863891642,0.8326388888888889
738,0.01656755863891642,0.8333333333333334
739,0.01658407664354146,0.8333333333333334
740,0.01658407664354146,0.8340277777777778
741,0.017046580773042618,0.8340277777777778
742,0.017046580773042618,0.8347222222222223
743,0.017079616782292698,0.8347222222222223
744,0.017079616782292698,0.8354166666666667
745,0.017112652791542782,0.8354166666666667
746,0.017112652791542782,0.8361111111111111
747,0.017129170796167822,0.8361111111111111
748,0.017129170796167822,0.8368055555555556
749,0.01734390485629336,0.8368055555555556
750,0.01734390485629336,0.8375
751,0.017376940865543443,0.8375
752,0.017376940865543443,0.8381944444444445
753,0.01747604889329369,0.8381944444444445
754,0.01747604889329369,0.8388888888888889
755,0.01772381896266931,0.8388888888888889
756,0.01772381896266931,0.8395833333333333
757,0.018004625041295012,0.8395833333333333
758,0.018004625041295012,0.8402777777777778
759,0.018566237198546415,0.8402777777777778
760,0.018599273207796498,0.8402777777777778
761,0.018698381235546745,0.8402777777777778
762,0.018698381235546745,0.8409722222222222
763,0.018814007267922036,0.8409722222222222
764,0.018814007267922036,0.8416666666666667
765,0.018830525272547076,0.8416666666666667
766,0.018830525272547076,0.8423611111111111
767,0.018962669309547407,0.8423611111111111
768,0.018962669309547407,0.8430555555555556
769,0.019111331351172777,0.8430555555555556
770,0.019111331351172777,0.84375
771,0.019243475388173108,0.84375
772,0.019243475388173108,0.8444444444444444
773,0.01925999339279815,0.8444444444444444
774,0.01925999339279815,0.8451388888888889
775,0.019408655434423522,0.8451388888888889
776,0.019408655434423522,0.8458333333333333
777,0.019821605550049554,0.8458333333333333
778,0.019821605550049554,0.8465277777777778
779,0.02015196564255038,0.8465277777777778
780,0.02015196564255038,0.8472222222222222
781,0.020399735711926,0.8472222222222222
782,0.020399735711926,0.8486111111111111
783,0.020465807730426163,0.8486111111111111
784,0.020465807730426163,0.8493055555555555
785,0.02053187974892633,0.8493055555555555
786,0.02053187974892633,0.85
787,0.020614469772051537,0.85
788,0.020614469772051537,0.8506944444444444
789,0.0206805417905517,0.8506944444444444
790,0.0206805417905517,0.8513888888888889
791,0.020730095804426824,0.8513888888888889
792,0.020730095804426824,0.8520833333333333
793,0.02104393789230261,0.8520833333333333
794,0.02104393789230261,0.8527777777777777
795,0.021110009910802776,0.8527777777777777
796,0.021110009910802776,0.8534722222222222
797,0.02130822596630327,0.8534722222222222
798,0.02130822596630327,0.8541666666666666
799,0.021506442021803768,0.8541666666666666
800,0.021506442021803768,0.8548611111111111
801,0.021622068054179055,0.8548611111111111
802,0.021622068054179055,0.8555555555555555
803,0.021770730095804425,0.8555555555555555
804,0.021770730095804425,0.85625
805,0.02241493227618104,0.85625
806,0.02241493227618104,0.8569444444444444
807,0.022662702345556656,0.8569444444444444
808,0.022662702345556656,0.8576388888888888
809,0.022778328377931947,0.8576388888888888
810,0.02281136438718203,0.8576388888888888
811,0.022893954410307234,0.8576388888888888
812,0.022893954410307234,0.8583333333333333
813,0.02310868847043277,0.8583333333333333
814,0.023141724479682855,0.8583333333333333
815,0.02332342253055831,0.8583333333333333
816,0.02332342253055831,0.8590277777777777
817,0.023505120581433763,0.8590277777777777
818,0.023538156590683847,0.8590277777777777
819,0.024033696729435085,0.8590277777777777
820,0.024066732738685166,0.8590277777777777
821,0.02411628675256029,0.8590277777777777
822,0.024149322761810373,0.8590277777777777
823,0.02424843078956062,0.8590277777777777
824,0.02424843078956062,0.8597222222222223
825,0.025041295011562603,0.8597222222222223
826,0.025074331020812687,0.8597222222222223
827,0.025239511067063097,0.8597222222222223
828,0.025239511067063097,0.8604166666666667
829,0.02542120911793855,0.8604166666666667
830,0.02542120911793855,0.8611111111111112
831,0.02550379914106376,0.8611111111111112
832,0.02550379914106376,0.8618055555555556
833,0.025702015196564256,0.8618055555555556
834,0.025702015196564256,0.8625
835,0.025735051205814336,0.8625
836,0.025735051205814336,0.8631944444444445
837,0.02590023125206475,0.8631944444444445
838,0.02590023125206475,0.8638888888888889
839,0.025966303270564917,0.8638888888888889
840,0.025966303270564917,0.8645833333333334
841,0.02603237528906508,0.8645833333333334
842,0.02603237528906508,0.8652777777777778
843,0.026296663363065742,0.8652777777777778
844,0.026329699372315826,0.8652777777777778
845,0.02677568549719194,0.8652777777777778
846,0.02677568549719194,0.8659722222222223
847,0.02679220350181698,0.8659722222222223
848,0.02679220350181698,0.8666666666666667
849,0.026825239511067064,0.8666666666666667
850,0.026841757515692104,0.8673611111111111
851,0.02692434753881731,0.8673611111111111
852,0.02692434753881731,0.8680555555555556
853,0.027320779649818303,0.8680555555555556
854,0.027320779649818303,0.86875
855,0.027981499834819953,0.86875
856,0.027981499834819953,0.8694444444444445
857,0.02806408985794516,0.8694444444444445
858,0.02806408985794516,0.8708333333333333
859,0.028113643871820283,0.8708333333333333
860,0.028113643871820283,0.8715277777777778
861,0.028592666005946482,0.8715277777777778
862,0.028592666005946482,0.8722222222222222
863,0.02897258011232243,0.8722222222222222
864,0.02897258011232243,0.8729166666666667
865,0.029154278163197885,0.8729166666666667
866,0.029154278163197885,0.8736111111111111
867,0.029253386190948135,0.8736111111111111
868,0.029253386190948135,0.875
869,0.029402048232573506,0.875
870,0.029402048232573506,0.8756944444444444
871,0.02956722827882392,0.8756944444444444
872,0.02956722827882392,0.8763888888888889
873,0.029633300297324083,0.8763888888888889
874,0.029633300297324083,0.8770833333333333
875,0.029666336306574167,0.8770833333333333
876,0.029666336306574167,0.8777777777777778
877,0.02971589032044929,0.8777777777777778
878,0.02971589032044929,0.8784722222222222
879,0.029914106375949785,0.8784722222222222
880,0.029914106375949785,0.8791666666666667
881,0.029947142385199868,0.8791666666666667
882,0.029947142385199868,0.8798611111111111
883,0.0300792864222002,0.8798611111111111
884,0.0300792864222002,0.8805555555555555
885,0.0308391146349521,0.8805555555555555
886,0.03087215064420218,0.8805555555555555
887,0.031334654773703334,0.8805555555555555
888,0.031334654773703334,0.88125
889,0.03163197885695408,0.88125
890,0.03163197885695408,0.8819444444444444
891,0.032044928972580114,0.8819444444444444
892,0.032044928972580114,0.8826388888888889
893,0.03214403700033036,0.8826388888888889
894,0.03214403700033036,0.8833333333333333
895,0.032788239180706974,0.8833333333333333
896,0.032788239180706974,0.8840277777777777
897,0.03310208126858275,0.8840277777777777
898,0.03310208126858275,0.8847222222222222
899,0.033746283448959365,0.8847222222222222
900,0.033746283448959365,0.8854166666666666
901,0.0338784274859597,0.8854166666666666
902,0.0338784274859597,0.8861111111111111
903,0.03429137760158573,0.8861111111111111
904,0.03429137760158573,0.8868055555555555
905,0.03462173769408655,0.8868055555555555
906,0.03462173769408655,0.8875
907,0.03485298975883713,0.8875
908,0.03488602576808721,0.8875
909,0.03505120581433763,0.8875
910,0.03505120581433763,0.8881944444444444
911,0.035232903865213085,0.8881944444444444
912,0.035232903865213085,0.8888888888888888
913,0.03557978196233895,0.8888888888888888
914,0.03561281797158903,0.8888888888888888
915,0.036157912124215395,0.8888888888888888
916,0.036157912124215395,0.8895833333333333
917,0.03629005616121572,0.8895833333333333
918,0.03629005616121572,0.8902777777777777
919,0.03640568219359101,0.8902777777777777
920,0.03640568219359101,0.8909722222222223
921,0.036752560290716885,0.8909722222222223
922,0.036752560290716885,0.8916666666666667
923,0.037826230591344566,0.8916666666666667
924,0.037826230591344566,0.8923611111111112
925,0.038222662702345554,0.8923611111111112
926,0.038222662702345554,0.8930555555555556
927,0.03827221671622068,0.8930555555555556
928,0.03827221671622068,0.89375
929,0.03944499504459861,0.89375
930,0.03944499504459861,0.8944444444444445
931,0.03954410307234886,0.8944444444444445
932,0.03954410307234886,0.8951388888888889
933,0.0397588371324744,0.8951388888888889
934,0.03979187314172448,0.8951388888888889
935,0.03987446316484969,0.8951388888888889
936,0.03987446316484969,0.8958333333333334
937,0.040122233234225306,0.8958333333333334
938,0.040122233234225306,0.8965277777777778
939,0.0402378592666006,0.8965277777777778
940,0.0402378592666006,0.8972222222222223
941,0.04038652130822597,0.8972222222222223
942,0.04038652130822597,0.8979166666666667
943,0.04055170135447638,0.8979166666666667
944,0.04055170135447638,0.8986111111111111
945,0.040782953419226955,0.8986111111111111
946,0.040782953419226955,0.8993055555555556
947,0.04207135777998018,0.8993055555555556
948,0.04207135777998018,0.9
949,0.04248430789560621,0.9
950,0.04248430789560621,0.9006944444444445
951,0.043442352163858604,0.9006944444444445
952,0.043442352163858604,0.9013888888888889
953,0.04461513049223654,0.9013888888888889
954,0.04461513049223654,0.9027777777777778
955,0.04486290056161216,0.9027777777777778
956,0.04486290056161216,0.9034722222222222
957,0.0448794185662372,0.9034722222222222
958,0.0448794185662372,0.9041666666666667
959,0.04578790882061447,0.9041666666666667
960,0.04578790882061447,0.9048611111111111
961,0.04587049884373968,0.9048611111111111
962,0.04587049884373968,0.9055555555555556
963,0.04616782292699042,0.9055555555555556
964,0.04616782292699042,0.90625
965,0.04631648496861579,0.90625
966,0.04631648496861579,0.9069444444444444
967,0.046399074991741,0.9069444444444444
968,0.046399074991741,0.9076388888888889
969,0.046630327056491575,0.9076388888888889
970,0.046630327056491575,0.9083333333333333
971,0.04702675916749257,0.9083333333333333
972,0.04705979517674265,0.9083333333333333
973,0.047224975222993064,0.9083333333333333
974,0.047258011232243144,0.9083333333333333
975,0.047406673273868515,0.9083333333333333
976,0.047406673273868515,0.9090277777777778
977,0.047637925338619096,0.9090277777777778
978,0.047637925338619096,0.9097222222222222
979,0.04768747935249422,0.9097222222222222
980,0.0477205153617443,0.9097222222222222
981,0.04801783944499505,0.9097222222222222
982,0.04805087545424513,0.9097222222222222
983,0.04806739345887017,0.9097222222222222
984,0.04806739345887017,0.9104166666666667
985,0.04869507763462174,0.9104166666666667
986,0.04872811364387182,0.9104166666666667
987,0.04890981169474727,0.9104166666666667
988,0.04890981169474727,0.9111111111111111
989,0.04935579781962339,0.9111111111111111
990,0.04935579781962339,0.9118055555555555
991,0.049554013875123884,0.9118055555555555
992,0.049554013875123884,0.9131944444444444
993,0.050082590023125206,0.9131944444444444
994,0.050115626032375286,0.9131944444444444
995,0.050297324083250744,0.9131944444444444
996,0.050297324083250744,0.9138888888888889
997,0.05113974231912785,0.9138888888888889
998,0.05120581433762801,0.9138888888888889
999,0.051337958374628345,0.9138888888888889
1000,0.051337958374628345,0.9145833333333333
1001,0.051370994383878425,0.9145833333333333
1002,0.051370994383878425,0.9152777777777777
1003,0.05198216055500496,0.9152777777777777
1004,0.05198216055500496,0.9159722222222222
1005,0.05257680872150644,0.9159722222222222
1006,0.05257680872150644,0.9166666666666666
1007,0.052775024777006935,0.9166666666666666
1008,0.052775024777006935,0.9173611111111111
1009,0.05279154278163198,0.9173611111111111
1010,0.05282457879088206,0.9173611111111111
1011,0.05307234886025768,0.9173611111111111
1012,0.05307234886025768,0.9180555555555555
1013,0.05368351503138421,0.9180555555555555
1014,0.05371655104063429,0.9180555555555555
1015,0.054889329369012224,0.9180555555555555
1016,0.054889329369012224,0.91875
1017,0.05490584737363727,0.91875
1018,0.05493888338288735,0.91875
1019,0.0551205814337628,0.91875
1020,0.0551205814337628,0.9194444444444444
1021,0.05517013544763792,0.9194444444444444
1022,0.05517013544763792,0.9201388888888888
1023,0.05536835150313842,0.9201388888888888
1024,0.05536835150313842,0.9208333333333333
1025,0.056408985794516024,0.9208333333333333
1026,0.056408985794516024,0.9215277777777777
1027,0.056557647836141395,0.9215277777777777
1028,0.056557647836141395,0.9222222222222223
1029,0.0569210439378923,0.9222222222222223
1030,0.0569210439378923,0.9229166666666667
1031,0.05708622398414272,0.9229166666666667
1032,0.05708622398414272,0.9236111111111112
1033,0.05725140403039313,0.9236111111111112
1034,0.05725140403039313,0.9243055555555556
1035,0.05726792203501817,0.9243055555555556
1036,0.05726792203501817,0.925
1037,0.05731747604889329,0.925
1038,0.05731747604889329,0.9256944444444445
1039,0.057928642220019824,0.9256944444444445
1040,0.057928642220019824,0.9263888888888889
1041,0.058589362405021474,0.9263888888888889
1042,0.058589362405021474,0.9270833333333334
1043,0.05875454245127189,0.9270833333333334
1044,0.05875454245127189,0.9277777777777778
1045,0.0596795507102742,0.9277777777777778
1046,0.0596795507102742,0.9284722222222223
1047,0.06034027089527585,0.9284722222222223
1048,0.06034027089527585,0.9291666666666667
1049,0.061446977205153616,0.9291666666666667
1050,0.0614800132144037,0.9291666666666667
1051,0.06275189957053189,0.9291666666666667
1052,0.06275189957053189,0.9298611111111111
1053,0.0635612817971589,0.9298611111111111
1054,0.06359431780640899,0.9298611111111111
1055,0.06394119590353485,0.9298611111111111
1056,0.06394119590353485,0.9305555555555556
1057,0.06655104063429138,0.9305555555555556
1058,0.06655104063429138,0.93125
1059,0.06863230921704658,0.93125
1060,0.06863230921704658,0.9319444444444445
1061,0.068797489263297,0.9319444444444445
1062,0.068797489263297,0.9326388888888889
1063,0.06947472745292368,0.9326388888888889
1064,0.06947472745292368,0.9333333333333333
1065,0.0698381235546746,0.9333333333333333
1066,0.0698381235546746,0.9340277777777778
1067,0.07117608192930294,0.9340277777777778
1068,0.07120911793855303,0.9340277777777778
1069,0.07165510406342913,0.9340277777777778
1070,0.07165510406342913,0.9347222222222222
1071,0.07210109018830525,0.9347222222222222
1072,0.07213412619755534,0.9347222222222222
1073,0.07380244466468451,0.9347222222222222
1074,0.07380244466468451,0.9354166666666667
1075,0.07439709283118599,0.9354166666666667
1076,0.07443012884043608,0.9354166666666667
1077,0.07457879088206144,0.9354166666666667
1078,0.07457879088206144,0.9361111111111111
1079,0.0747604889329369,0.9361111111111111
1080,0.0747604889329369,0.9368055555555556
1081,0.075602907168814,0.9368055555555556
1082,0.075602907168814,0.9375
1083,0.07568549719193922,0.9375
1084,0.07568549719193922,0.9381944444444444
1085,0.07670961347869178,0.9381944444444444
1086,0.07670961347869178,0.9388888888888889
1087,0.07677568549719194,0.9388888888888889
1088,0.07677568549719194,0.9395833333333333
1089,0.07789890981169474,0.9395833333333333
1090,0.07789890981169474,0.9402777777777778
1091,0.07801453584407003,0.9402777777777778
1092,0.07804757185332012,0.9402777777777778
1093,0.07814667988107037,0.9402777777777778
1094,0.07814667988107037,0.9409722222222222
1095,0.07859266600594648,0.9409722222222222
1096,0.07862570201519656,0.9409722222222222
1097,0.07892302609844731,0.9409722222222222
1098,0.07892302609844731,0.9416666666666667
1099,0.07917079616782292,0.9416666666666667
1100,0.07917079616782292,0.9423611111111111
1101,0.07976544433432442,0.9423611111111111
1102,0.07976544433432442,0.9430555555555555
1103,0.08011232243145028,0.9430555555555555
1104,0.08011232243145028,0.94375
1105,0.08254046911133135,0.94375
1106,0.08254046911133135,0.9444444444444444
1107,0.083597621407334,0.9444444444444444
1108,0.083597621407334,0.9451388888888889
1109,0.08381235546745953,0.9451388888888889
1110,0.08381235546745953,0.9458333333333333
1111,0.08391146349520978,0.9458333333333333
1112,0.08394449950445985,0.9458333333333333
1113,0.08404360753221012,0.9458333333333333
1114,0.08404360753221012,0.9465277777777777
1115,0.08407664354146019,0.9465277777777777
1116,0.08523290386521308,0.9465277777777777
1117,0.08523290386521308,0.9472222222222222
1118,0.08638916418896597,0.9472222222222222
1119,0.08638916418896597,0.9479166666666666
1120,0.08670300627684176,0.9479166666666666
1121,0.08673604228609184,0.9479166666666666
1122,0.0874793524942187,0.9479166666666666
1123,0.0874793524942187,0.9486111111111111
1124,0.08931285100759828,0.9486111111111111
1125,0.08931285100759828,0.9493055555555555
1126,0.08941195903534853,0.9493055555555555
1127,0.08941195903534853,0.95
1128,0.08980839114634952,0.95
1129,0.08980839114634952,0.9506944444444444
1130,0.09159233564585398,0.9506944444444444
1131,0.09162537165510407,0.9506944444444444
1132,0.09170796167822927,0.9506944444444444
1133,0.09174099768747936,0.9506944444444444
1134,0.0919226957383548,0.9506944444444444
1135,0.0919557317476049,0.9506944444444444
1136,0.09302940204823257,0.9506944444444444
1137,0.09306243805748265,0.9506944444444444
1138,0.09397092831185992,0.9506944444444444
1139,0.09397092831185992,0.9513888888888888
1140,0.09530888668648828,0.9513888888888888
1141,0.09530888668648828,0.9520833333333333
1142,0.09626693095474066,0.9520833333333333
1143,0.09626693095474066,0.9527777777777777
1144,0.09681202510736703,0.9527777777777777
1145,0.09681202510736703,0.9534722222222223
1146,0.0969606871489924,0.9534722222222223
1147,0.09699372315824248,0.9534722222222223
1148,0.09823257350512059,0.9534722222222223
1149,0.09826560951437066,0.9534722222222223
1150,0.09829864552362075,0.9534722222222223
1151,0.09833168153287083,0.9534722222222223
1152,0.09882722167162207,0.9534722222222223
1153,0.09882722167162207,0.9541666666666667
1154,0.0994383878427486,0.9541666666666667
1155,0.09947142385199868,0.9541666666666667
1156,0.10016518004625041,0.9541666666666667
1157,0.10016518004625041,0.9548611111111112
1158,0.10023125206475057,0.9548611111111112
1159,0.10023125206475057,0.9555555555555556
1160,0.10089197224975223,0.9555555555555556
1161,0.10089197224975223,0.95625
1162,0.10094152626362736,0.95625
1163,0.10097456227287743,0.95625
1164,0.1021968946151305,0.95625
1165,0.10222993062438057,0.95625
1166,0.10383217707300958,0.95625
1167,0.10386521308225967,0.95625
1168,0.10589692765113974,0.95625
1169,0.10592996366038983,0.95625
1170,0.10601255368351503,0.95625
1171,0.10604558969276512,0.95625
1172,0.10639246778989098,0.95625
1173,0.10639246778989098,0.9569444444444445
1174,0.10731747604889329,0.9569444444444445
1175,0.10731747604889329,0.9576388888888889
1176,0.10862239841427156,0.9576388888888889
1177,0.10865543442352164,0.9576388888888889
1178,0.1087215064420218,0.9576388888888889
1179,0.10875454245127189,0.9576388888888889
1180,0.10941526263627353,0.9576388888888889
1181,0.10944829864552362,0.9576388888888889
1182,0.10946481665014866,0.9576388888888889
1183,0.10949785265939875,0.9576388888888889
1184,0.1120416253716551,0.9576388888888889
1185,0.1120416253716551,0.9590277777777778
1186,0.11242153947803106,0.9590277777777778
1187,0.11245457548728113,0.9590277777777778
1188,0.11397423191278494,0.9590277777777778
1189,0.11400726792203501,0.9590277777777778
1190,0.11496531219028741,0.9590277777777778
1191,0.1149983481995375,0.9590277777777778
1192,0.11592335645853981,0.9590277777777778
1193,0.1159563924677899,0.9590277777777778
1194,0.11598942847703997,0.9590277777777778
1195,0.11598942847703997,0.9597222222222223
1196,0.11607201850016519,0.9597222222222223
1197,0.11607201850016519,0.9604166666666667
1198,0.1162041625371655,0.9604166666666667
1199,0.1162041625371655,0.9611111111111111
1200,0.1172778328377932,0.9611111111111111
1201,0.1172778328377932,0.9618055555555556
1202,0.11757515692104394,0.9618055555555556
1203,0.11757515692104394,0.9625
1204,0.11892963330029732,0.9625
1205,0.11892963330029732,0.9631944444444445
1206,0.11906177733729766,0.9631944444444445
1207,0.11909481334654774,0.9631944444444445
1208,0.12168814007267922,0.9631944444444445
1209,0.12168814007267922,0.9638888888888889
1210,0.12566897918731418,0.9638888888888889
1211,0.12570201519656427,0.9638888888888889
1212,0.12613148331681534,0.9638888888888889
1213,0.12613148331681534,0.9645833333333333
1214,0.12760158572844402,0.9645833333333333
1215,0.12763462173769408,0.9645833333333333
1216,0.1291212421539478,0.9645833333333333
1217,0.1291212421539478,0.9652777777777778
1218,0.13040964651470102,0.9652777777777778
1219,0.1304426825239511,0.9652777777777778
1220,0.13088866864882723,0.9652777777777778
1221,0.13092170465807731,0.9652777777777778
1222,0.13169805087545425,0.9652777777777778
1223,0.13173108688470433,0.9652777777777778
1224,0.132408325074331,0.9652777777777778
1225,0.1324413610835811,0.9652777777777778
1226,0.1341261975553353,0.9652777777777778
1227,0.1341261975553353,0.9659722222222222
1228,0.13420878757846053,0.9659722222222222
1229,0.1342418235877106,0.9659722222222222
1230,0.1363561281797159,0.9659722222222222
1231,0.13638916418896596,0.9659722222222222
1232,0.13681863230921704,0.9659722222222222
1233,0.13685166831846712,0.9659722222222222
1234,0.13693425834159234,0.9659722222222222
1235,0.13693425834159234,0.9666666666666667
1236,0.1382391807069706,0.9666666666666667
1237,0.13827221671622067,0.9666666666666667
1238,0.14131152956722828,0.9666666666666667
1239,0.14134456557647837,0.9666666666666667
1240,0.14208787578460522,0.9666666666666667
1241,0.14208787578460522,0.9673611111111111
1242,0.14314502808060786,0.9673611111111111
1243,0.14314502808060786,0.9680555555555556
1244,0.14975222993062437,0.9680555555555556
1245,0.14978526593987446,0.9680555555555556
1246,0.15289065080938222,0.9680555555555556
1247,0.1529236868186323,0.9680555555555556
1248,0.15325404691113315,0.9680555555555556
1249,0.1532870829203832,0.9680555555555556
1250,0.15336967294350842,0.9680555555555556
1251,0.15336967294350842,0.96875
1252,0.1541625371655104,0.96875
1253,0.1541955731747605,0.96875
1254,0.15439378923026098,0.96875
1255,0.15439378923026098,0.9694444444444444
1256,0.15497191939213742,0.9694444444444444
1257,0.1550049554013875,0.9694444444444444
1258,0.15555004955401389,0.9694444444444444
1259,0.15558308556326395,0.9694444444444444
1260,0.1557152296002643,0.9694444444444444
1261,0.15574826560951438,0.9694444444444444
1262,0.15617773372976546,0.9694444444444444
1263,0.15621076973901551,0.9694444444444444
1264,0.1565246118268913,0.9694444444444444
1265,0.1565576478361414,0.9694444444444444
1266,0.15746613809051865,0.9694444444444444
1267,0.15749917409976874,0.9694444444444444
1268,0.15769739015526923,0.9694444444444444
1269,0.15769739015526923,0.9701388888888889
1270,0.15895275850677237,0.9701388888888889
1271,0.15895275850677237,0.9708333333333333
1272,0.1591179385530228,0.9708333333333333
1273,0.15915097456227287,0.9708333333333333
1274,0.15977865873802444,0.9708333333333333
1275,0.15981169474727452,0.9708333333333333
1276,0.15991080277502479,0.9708333333333333
1277,0.15994383878427487,0.9708333333333333
1278,0.1610835811034027,0.9708333333333333
1279,0.1611166171126528,0.9708333333333333
1280,0.16121572514040303,0.9708333333333333
1281,0.16121572514040303,0.9715277777777778
1282,0.16238850346878098,0.9715277777777778
1283,0.16238850346878098,0.9722222222222222
1284,0.16242153947803106,0.9722222222222222
1285,0.1624876114965312,0.9722222222222222
1286,0.16250412950115625,0.9729166666666667
1287,0.16276841757515692,0.9729166666666667
1288,0.162801453584407,0.9729166666666667
1289,0.16346217376940866,0.9729166666666667
1290,0.16349520977865875,0.9729166666666667
1291,0.16410637594978528,0.9729166666666667
1292,0.16413941195903534,0.9729166666666667
1293,0.16445325404691113,0.9729166666666667
1294,0.16448629005616122,0.9729166666666667
1295,0.16481665014866204,0.9729166666666667
1296,0.16484968615791212,0.9729166666666667
1297,0.1662867525602907,0.9729166666666667
1298,0.1662867525602907,0.9736111111111111
1299,0.17137429798480344,0.9736111111111111
1300,0.17140733399405353,0.9736111111111111
1301,0.17474397092831187,0.9736111111111111
1302,0.17477700693756193,0.9736111111111111
1303,0.17561942517343904,0.9736111111111111
1304,0.17565246118268912,0.9736111111111111
1305,0.17870829203832178,0.9736111111111111
1306,0.17872481004294682,0.9743055555555555
1307,0.17950115626032376,0.9743055555555555
1308,0.17953419226957384,0.9743055555555555
1309,0.18042616451932605,0.9743055555555555
1310,0.18042616451932605,0.975
1311,0.1804426825239511,0.975
1312,0.1804426825239511,0.9756944444444444
1313,0.18069045259332672,0.9756944444444444
1314,0.18069045259332672,0.9763888888888889
1315,0.1812851007598282,0.9763888888888889
1316,0.1813181367690783,0.9763888888888889
1317,0.18192930294020482,0.9763888888888889
1318,0.18192930294020482,0.9770833333333333
1319,0.18239180706970598,0.9770833333333333
1320,0.18239180706970598,0.9777777777777777
1321,0.18363065741658408,0.9777777777777777
1322,0.18366369342583416,0.9777777777777777
1323,0.18650479022134125,0.9777777777777777
1324,0.18650479022134125,0.9791666666666666
1325,0.18681863230921705,0.9791666666666666
1326,0.18681863230921705,0.9798611111111111
1327,0.18848695077634622,0.9798611111111111
1328,0.1885199867855963,0.9798611111111111
1329,0.18861909481334654,0.9798611111111111
1330,0.18865213082259663,0.9798611111111111
1331,0.18987446316484968,0.9798611111111111
1332,0.18990749917409977,0.9798611111111111
1333,0.19255037991410637,0.9798611111111111
1334,0.19258341592335645,0.9798611111111111
1335,0.19326065411298315,0.9798611111111111
1336,0.19326065411298315,0.9805555555555555
1337,0.19497852659398746,0.9805555555555555
1338,0.19501156260323754,0.9805555555555555
1339,0.19788569540799472,0.9805555555555555
1340,0.19788569540799472,0.98125
1341,0.19866204162537165,0.98125
1342,0.19866204162537165,0.9819444444444444
1343,0.19869507763462174,0.9819444444444444
1344,0.19872811364387183,0.9819444444444444
1345,0.2007267922035018,0.9819444444444444
1346,0.2007598282127519,0.9819444444444444
1347,0.20384869507763462,0.9819444444444444
1348,0.2038817310868847,0.9819444444444444
1349,0.20394780310538488,0.9819444444444444
1350,0.20398083911463497,0.9819444444444444
1351,0.2050875454245127,0.9819444444444444
1352,0.2051205814337628,0.9819444444444444
1353,0.20518665345226297,0.9819444444444444
1354,0.20521968946151306,0.9819444444444444
1355,0.20665675586389165,0.9819444444444444
1356,0.20668979187314174,0.9819444444444444
1357,0.2068714899240172,0.9819444444444444
1358,0.2068714899240172,0.9826388888888888
1359,0.20819293029402047,0.9826388888888888
1360,0.20822596630327056,0.9826388888888888
1361,0.20830855632639578,0.9826388888888888
1362,0.20834159233564586,0.9826388888888888
1363,0.20882061446977204,0.9826388888888888
1364,0.20885365047902213,0.9826388888888888
1365,0.21755863891641888,0.9826388888888888
1366,0.21759167492566897,0.9826388888888888
1367,0.21772381896266932,0.9826388888888888
1368,0.2177568549719194,0.9826388888888888
1369,0.22071357779980177,0.9826388888888888
1370,0.22074661380905186,0.9826388888888888
1371,0.22102741988767757,0.9826388888888888
1372,0.22102741988767757,0.9833333333333333
1373,0.22158903204492897,0.9833333333333333
1374,0.22162206805417906,0.9833333333333333
1375,0.22173769408655433,0.9833333333333333
1376,0.22177073009580442,0.9833333333333333
1377,0.22238189626693095,0.9833333333333333
1378,0.22241493227618103,0.9833333333333333
1379,0.22305913445655765,0.9833333333333333
1380,0.22305913445655765,0.9840277777777777
1381,0.22312520647505782,0.9840277777777777
1382,0.2231582424843079,0.9840277777777777
1383,0.223207796498183,0.9840277777777777
1384,0.2232408325074331,0.9840277777777777
1385,0.2237198546415593,0.9840277777777777
1386,0.2237528906508094,0.9840277777777777
1387,0.2265609514370664,0.9840277777777777
1388,0.22659398744631648,0.9840277777777777
1389,0.22695738354806738,0.9840277777777777
1390,0.22699041955731747,0.9840277777777777
1391,0.22890650809382226,0.9840277777777777
1392,0.22893954410307235,0.9840277777777777
1393,0.22907168814007267,0.9840277777777777
1394,0.22910472414932276,0.9840277777777777
1395,0.2321605550049554,0.9840277777777777
1396,0.23219359101420547,0.9840277777777777
1397,0.23338288734720847,0.9840277777777777
1398,0.23341592335645853,0.9840277777777777
1399,0.2341922695738355,0.9840277777777777
1400,0.23422530558308557,0.9840277777777777
1401,0.23538156590683845,0.9840277777777777
1402,0.23544763792533863,0.9840277777777777
1403,0.2362735381565907,0.9840277777777777
1404,0.23630657416584078,0.9840277777777777
1405,0.23698381235546745,0.9840277777777777
1406,0.23701684836471754,0.9840277777777777
1407,0.23724810042946812,0.9840277777777777
1408,0.2372811364387182,0.9840277777777777
1409,0.23729765444334325,0.9840277777777777
1410,0.23733069045259333,0.9840277777777777
1411,0.2381565906838454,0.9840277777777777
1412,0.23818962669309549,0.9840277777777777
1413,0.2385199867855963,0.9840277777777777
1414,0.2385530227948464,0.9840277777777777
1415,0.23878427485959697,0.9840277777777777
1416,0.23881731086884705,0.9840277777777777
1417,0.23962669309547407,0.9840277777777777
1418,0.23965972910472416,0.9840277777777777
1419,0.24129501156260325,0.9840277777777777
1420,0.24132804757185333,0.9840277777777777
1421,0.24222001982160554,0.9840277777777777
1422,0.24222001982160554,0.9847222222222223
1423,0.2442352163858606,0.9847222222222223
1424,0.24426825239511066,0.9847222222222223
1425,0.24777006937561943,0.9847222222222223
1426,0.24780310538486952,0.9847222222222223
1427,0.24806739345887016,0.9847222222222223
1428,0.24810042946812025,0.9847222222222223
1429,0.24978526593987446,0.9847222222222223
1430,0.24981830194912455,0.9847222222222223
1431,0.2502147340601255,0.9847222222222223
1432,0.2502477700693756,0.9847222222222223
1433,0.2503303600925008,0.9847222222222223
1434,0.2503633961017509,0.9847222222222223
1435,0.25161876445325404,0.9847222222222223
1436,0.2516518004625041,0.9847222222222223
1437,0.252395110670631,0.9847222222222223
1438,0.25242814667988106,0.9847222222222223
1439,0.25318797489263295,0.9847222222222223
1440,0.25322101090188304,0.9847222222222223
1441,0.25442682523951105,0.9847222222222223
1442,0.25445986124876113,0.9847222222222223
1443,0.2544928972580112,0.9847222222222223
1444,0.25454245127188635,0.9847222222222223
1445,0.2567228278823918,0.9847222222222223
1446,0.2567228278823918,0.9854166666666667
1447,0.2568384539147671,0.9854166666666667
1448,0.2568714899240172,0.9854166666666667
1449,0.25698711595639245,0.9854166666666667
1450,0.25702015196564254,0.9854166666666667
1451,0.25903534852989757,0.9854166666666667
1452,0.25903534852989757,0.9861111111111112
1453,0.259596960687149,0.9861111111111112
1454,0.2596299966963991,0.9861111111111112
1455,0.26177733729765446,0.9861111111111112
1456,0.26181037330690454,0.9861111111111112
1457,0.2625206475057813,0.9861111111111112
1458,0.2625536835150314,0.9861111111111112
1459,0.2628840436075322,0.9861111111111112
1460,0.2628840436075322,0.9868055555555556
1461,0.26341261975553354,0.9868055555555556
1462,0.2634456557647836,0.9868055555555556
1463,0.264800132144037,0.9868055555555556
1464,0.26483316815328706,0.9868055555555556
1465,0.26513049223653784,0.9868055555555556
1466,0.2651635282457879,0.9868055555555556
1467,0.26598942847704,0.9868055555555556
1468,0.2660224644862901,0.9868055555555556
1469,0.2666336306574166,0.9868055555555556
1470,0.26666666666666666,0.9868055555555556
1471,0.26754212091179386,0.9868055555555556
1472,0.26757515692104394,0.9868055555555556
1473,0.26881400726792204,0.9868055555555556
1474,0.2688470432771721,0.9868055555555556
1475,0.27111000991080275,0.9868055555555556
1476,0.27111000991080275,0.9875
1477,0.2715394780310538,0.9875
1478,0.2715725140403039,0.9875
1479,0.2716716220680542,0.9875
1480,0.27170465807730426,0.9875
1481,0.2726627023455567,0.9875
1482,0.27269573835480676,0.9875
1483,0.2736868186323092,0.9875
1484,0.2737198546415593,0.9875
1485,0.274380574826561,0.9875
1486,0.27441361083581106,0.9875
1487,0.27466138090518666,0.9875
1488,0.27472745292368683,0.9875
1489,0.27494218698381234,0.9875
1490,0.27497522299306243,0.9875
1491,0.2759497852659399,0.9875
1492,0.27598282127518997,0.9875
1493,0.2760323752890651,0.9875
1494,0.2760654112983152,0.9875
1495,0.27819623389494547,0.9875
1496,0.27819623389494547,0.9881944444444445
1497,0.27837793194582094,0.9881944444444445
1498,0.27837793194582094,0.9888888888888889
1499,0.27877436405682193,0.9888888888888889
1500,0.27877436405682193,0.9895833333333334
1501,0.2793855302279485,0.9895833333333334
1502,0.2794185662371986,0.9895833333333334
1503,0.27961678229269904,0.9895833333333334
1504,0.2796498183019491,0.9895833333333334
1505,0.28060786257020154,0.9895833333333334
1506,0.2806408985794516,0.9895833333333334
1507,0.2811199207135778,0.9895833333333334
1508,0.28115295672282786,0.9895833333333334
1509,0.28257350512058144,0.9895833333333334
1510,0.2826065411298315,0.9895833333333334
1511,0.28318467129170793,0.9895833333333334
1512,0.283217707300958,0.9895833333333334
1513,0.28447307565246116,0.9895833333333334
1514,0.28450611166171125,0.9895833333333334
1515,0.284786917740337,0.9895833333333334
1516,0.2848199537495871,0.9895833333333334
1517,0.2849190617773373,0.9895833333333334
1518,0.28495209778658737,0.9895833333333334
1519,0.2852824578790882,0.9895833333333334
1520,0.28531549388833827,0.9895833333333334
1521,0.2866038982490915,0.9895833333333334
1522,0.2866369342583416,0.9895833333333334
1523,0.28785926660059463,0.9895833333333334
1524,0.2878923026098447,0.9895833333333334
1525,0.2884373967624711,0.9895833333333334
1526,0.2884704327717212,0.9895833333333334
1527,0.29056821935910143,0.9895833333333334
1528,0.2906012553683515,0.9895833333333334
1529,0.2915097456227288,0.9895833333333334
1530,0.29154278163197883,0.9895833333333334
1531,0.2917905517013545,0.9895833333333334
1532,0.29182358771060457,0.9895833333333334
1533,0.2920383217707301,0.9895833333333334
1534,0.29207135777998017,0.9895833333333334
1535,0.2951271886356128,0.9895833333333334
1536,0.2951602246448629,0.9895833333333334
1537,0.29976874793524944,0.9895833333333334
1538,0.2998348199537496,0.9895833333333334
1539,0.2999339279814998,0.9895833333333334
1540,0.2999669639907499,0.9895833333333334
1541,0.3005120581433763,0.9895833333333334
1542,0.30054509415262637,0.9895833333333334
1543,0.30069375619425176,0.9895833333333334
1544,0.3007267922035018,0.9895833333333334
1545,0.30178394449950446,0.9895833333333334
1546,0.30181698050875455,0.9895833333333334
1547,0.3025272547076313,0.9895833333333334
1548,0.3025602907168814,0.9895833333333334
1549,0.30294020482325734,0.9895833333333334
1550,0.30297324083250743,0.9895833333333334
1551,0.30330360092500824,0.9895833333333334
1552,0.30333663693425833,0.9895833333333334
1553,0.3066072018500165,0.9895833333333334
1554,0.3066402378592666,0.9895833333333334
1555,0.3067558638916419,0.9895833333333334
1556,0.306788899900892,0.9895833333333334
1557,0.30754872811364387,0.9895833333333334
1558,0.30758176412289395,0.9895833333333334
1559,0.3093491906177734,0.9895833333333334
1560,0.30938222662702347,0.9895833333333334
1561,0.310802775024777,0.9895833333333334
1562,0.3108358110340271,0.9895833333333334
1563,0.31225635943178065,0.9895833333333334
1564,0.31228939544103074,0.9895833333333334
1565,0.3144697720515362,0.9895833333333334
1566,0.3144862900561612,0.9902777777777778
1567,0.31656755863891645,0.9902777777777778
1568,0.3166005946481665,0.9902777777777778
1569,0.3202675916749257,0.9902777777777778
1570,0.3203006276841758,0.9902777777777778
1571,0.32122563594317805,0.9902777777777778
1572,0.32125867195242813,0.9902777777777778
1573,0.3222332342253056,0.9902777777777778
1574,0.3222662702345557,0.9902777777777778
1575,0.3230426164519326,0.9902777777777778
1576,0.3230756524611827,0.9902777777777778
1577,0.3246118268913115,0.9902777777777778
1578,0.3246448629005616,0.9902777777777778
1579,0.3259497852659399,0.9902777777777778
1580,0.32598282127518996,0.9902777777777778
1581,0.3276346217376941,0.9902777777777778
1582,0.3276676577469442,0.9902777777777778
1583,0.32908820614469775,0.9902777777777778
1584,0.3291212421539478,0.9902777777777778
1585,0.32998017839444993,0.9902777777777778
1586,0.3300132144037,0.9902777777777778
1587,0.33039312851007596,0.9902777777777778
1588,0.33042616451932605,0.9902777777777778
1589,0.3316815328708292,0.9902777777777778
1590,0.3317145688800793,0.9902777777777778
1591,0.3317641228939544,0.9902777777777778
1592,0.3317971589032045,0.9902777777777778
1593,0.3319458209448299,0.9902777777777778
1594,0.33197885695407997,0.9902777777777778
1595,0.3325735051205814,0.9902777777777778
1596,0.3326065411298315,0.9902777777777778
1597,0.3330855632639577,0.9902777777777778
1598,0.3331185992732078,0.9902777777777778
1599,0.33321770730095807,0.9902777777777778
1600,0.33325074331020815,0.9902777777777778
1601,0.3342748595969607,0.9902777777777778
1602,0.33430789560621077,0.9902777777777778
1603,0.3351172778328378,0.9902777777777778
1604,0.3351503138420879,0.9902777777777778
1605,0.3351668318467129,0.9902777777777778
1606,0.335199867855963,0.9902777777777778
1607,0.3355302279484638,0.9902777777777778
1608,0.3355632639577139,0.9902777777777778
1609,0.3364717542120912,0.9902777777777778
1610,0.3364717542120912,0.9909722222222223
1611,0.33706640237859264,0.9909722222222223
1612,0.33709943838784273,0.9909722222222223
1613,0.3390650809382227,0.9909722222222223
1614,0.33909811694747277,0.9909722222222223
1615,0.3399074991740998,0.9909722222222223
1616,0.3399405351833499,0.9909722222222223
1617,0.3416418896597291,0.9909722222222223
1618,0.34167492566897917,0.9909722222222223
1619,0.3418070697059795,0.9909722222222223
1620,0.3418401057152296,0.9909722222222223
1621,0.343591014205484,0.9909722222222223
1622,0.343591014205484,0.9916666666666667
1623,0.3450776346217377,0.9916666666666667
1624,0.34511067063098777,0.9916666666666667
1625,0.3454410307234886,0.9916666666666667
1626,0.34547406673273867,0.9916666666666667
1627,0.3455236207466138,0.9916666666666667
1628,0.3455566567558639,0.9916666666666667
1629,0.3466798810703667,0.9916666666666667
1630,0.34671291707961677,0.9916666666666667
1631,0.3473571192599934,0.9916666666666667
1632,0.3473901552692435,0.9916666666666667
1633,0.3506276841757516,0.9916666666666667
1634,0.35066072018500166,0.9916666666666667
1635,0.35206475057813014,0.9916666666666667
1636,0.3520977865873802,0.9916666666666667
1637,0.35338619094813345,0.9916666666666667
1638,0.35341922695738354,0.9916666666666667
1639,0.35350181698050875,0.9916666666666667
1640,0.35353485298975884,0.9916666666666667
1641,0.35576478361413943,0.9916666666666667
1642,0.3557978196233895,0.9916666666666667
1643,0.35690452593326727,0.9916666666666667
1644,0.35693756194251736,0.9916666666666667
1645,0.35868847043277174,0.9916666666666667
1646,0.35868847043277174,0.9923611111111111
1647,0.35915097456227285,0.9923611111111111
1648,0.35918401057152294,0.9923611111111111
1649,0.36110009910802776,0.9923611111111111
1650,0.36113313511727785,0.9923611111111111
1651,0.3615130492236538,0.9923611111111111
1652,0.3615460852329039,0.9923611111111111
1653,0.3636438718202841,0.9923611111111111
1654,0.3636769078295342,0.9923611111111111
1655,0.36478361413941196,0.9923611111111111
1656,0.3648331681532871,0.9923611111111111
1657,0.36514701024116286,0.9923611111111111
1658,0.36518004625041295,0.9923611111111111
1659,0.36551040634291376,0.9923611111111111
1660,0.36554344235216385,0.9923611111111111
1661,0.3659563924677899,0.9923611111111111
1662,0.36598942847703997,0.9923611111111111
1663,0.3665180046250413,0.9923611111111111
1664,0.3665510406342914,0.9923611111111111
1665,0.3668483647175421,0.9923611111111111
1666,0.3668814007267922,0.9923611111111111
1667,0.36737694086554346,0.9923611111111111
1668,0.36740997687479354,0.9923611111111111
1669,0.3687644532540469,0.9923611111111111
1670,0.368797489263297,0.9923611111111111
1671,0.3715229600264288,0.9923611111111111
1672,0.3715559960356789,0.9923611111111111
1673,0.37332342253055834,0.9923611111111111
1674,0.37335645853980837,0.9923611111111111
1675,0.37489263296993725,0.9923611111111111
1676,0.37492566897918733,0.9923611111111111
1677,0.3750908490254377,0.9923611111111111
1678,0.3751238850346878,0.9923611111111111
1679,0.37581764122893957,0.9923611111111111
1680,0.37581764122893957,0.9930555555555556
1681,0.37730426164519326,0.9930555555555556
1682,0.37733729765444335,0.9930555555555556
1683,0.37741988767756857,0.9930555555555556
1684,0.37745292368681865,0.9930555555555556
1685,0.37784935579781964,0.9930555555555556
1686,0.37788239180706973,0.9930555555555556
1687,0.3793690122233234,0.9930555555555556
1688,0.3794020482325735,0.9930555555555556
1689,0.3794350842418236,0.9930555555555556
1690,0.3794681202510737,0.9930555555555556
1691,0.38002973240832505,0.9930555555555556
1692,0.38006276841757514,0.9930555555555556
1693,0.38080607862570204,0.9930555555555556
1694,0.3808391146349521,0.9930555555555556
1695,0.38113643871820285,0.9930555555555556
1696,0.38116947472745294,0.9930555555555556
1697,0.381598942847704,0.9930555555555556
1698,0.3816319788569541,0.9930555555555556
1699,0.3816650148662042,0.9930555555555556
1700,0.3816980508754542,0.9930555555555556
1701,0.38174760488932935,0.9930555555555556
1702,0.38178064089857944,0.9930555555555556
1703,0.38211100099108025,0.9930555555555556
1704,0.38214403700033034,0.9930555555555556
1705,0.38394449950445986,0.9930555555555556
1706,0.38397753551370994,0.9930555555555556
1707,0.38496861579121244,0.9930555555555556
1708,0.38500165180046253,0.9930555555555556
1709,0.3878757846052197,0.9930555555555556
1710,0.3879088206144698,0.9930555555555556
1711,0.3936405682193591,0.9930555555555556
1712,0.3936736042286092,0.9930555555555556
1713,0.3943343244136108,0.9930555555555556
1714,0.3943673604228609,0.9930555555555556
1715,0.39634952097786585,0.9930555555555556
1716,0.39634952097786585,0.99375
1717,0.39677898909811693,0.99375
1718,0.396812025107367,0.99375
1719,0.3984803435744962,0.99375
1720,0.3985133795837463,0.99375
1721,0.3985959696068715,0.99375
1722,0.3986290056161216,0.99375
1723,0.3989263296993723,0.99375
1724,0.3989263296993723,0.9944444444444445
1725,0.39894284770399735,0.9944444444444445
1726,0.39897588371324744,0.9944444444444445
1727,0.4019491245457549,0.9944444444444445
1728,0.40198216055500496,0.9944444444444445
1729,0.4020647505781302,0.9944444444444445
1730,0.40209778658738027,0.9944444444444445
1731,0.40307234886025767,0.9944444444444445
1732,0.40310538486950775,0.9944444444444445
1733,0.40507102741988765,0.9944444444444445
1734,0.40510406342913774,0.9944444444444445
1735,0.40573174760488934,0.9944444444444445
1736,0.40573174760488934,0.9951388888888889
1737,0.4066402378592666,0.9951388888888889
1738,0.4066732738685167,0.9951388888888889
1739,0.4072348860257681,0.9951388888888889
1740,0.40726792203501816,0.9951388888888889
1741,0.4074331020812686,0.9951388888888889
1742,0.4074661380905187,0.9951388888888889
1743,0.4115130492236538,0.9951388888888889
1744,0.41154608523290387,0.9951388888888889
1745,0.4126032375289065,0.9951388888888889
1746,0.4126362735381566,0.9951388888888889
1747,0.4131152956722828,0.9951388888888889
1748,0.41314833168153287,0.9951388888888889
1749,0.41321440370003304,0.9951388888888889
1750,0.4132474397092831,0.9951388888888889
1751,0.4140733399405352,0.9951388888888889
1752,0.4141063759497853,0.9951388888888889
1753,0.416402378592666,0.9951388888888889
1754,0.4164354146019161,0.9951388888888889
1755,0.41665014866204164,0.9951388888888889
1756,0.41665014866204164,0.9958333333333333
1757,0.41765774694416913,0.9958333333333333
1758,0.4176907829534192,0.9958333333333333
1759,0.4182028410967955,0.9958333333333333
1760,0.4182358771060456,0.9958333333333333
1761,0.41869838123554676,0.9958333333333333
1762,0.41873141724479684,0.9958333333333333
1763,0.41965642550379917,0.9958333333333333
1764,0.4196894615130492,0.9958333333333333
1765,0.4243310208126858,0.9958333333333333
1766,0.4243640568219359,0.9958333333333333
1767,0.42452923686818633,0.9958333333333333
1768,0.4245622728774364,0.9958333333333333
1769,0.4252395110670631,0.9958333333333333
1770,0.4252395110670631,0.9965277777777778
1771,0.4271060455896928,0.9965277777777778
1772,0.42713908159894287,0.9965277777777778
1773,0.42733729765444334,0.9965277777777778
1774,0.4273703336636934,0.9965277777777778
1775,0.43059134456557646,0.9965277777777778
1776,0.43062438057482655,0.9965277777777778
1777,0.4313181367690783,0.9965277777777778
1778,0.43135117277832835,0.9965277777777778
1779,0.43194582094482986,0.9965277777777778
1780,0.43197885695407995,0.9965277777777778
1781,0.43225966303270563,0.9965277777777778
1782,0.4322926990419557,0.9965277777777778
1783,0.43386190948133463,0.9965277777777778
1784,0.4338949454905847,0.9965277777777778
1785,0.43453914767096136,0.9965277777777778
1786,0.43457218368021144,0.9965277777777778
1787,0.43657086223984143,0.9965277777777778
1788,0.4366038982490915,0.9965277777777778
1789,0.4383217707300958,0.9965277777777778
1790,0.4383548067393459,0.9965277777777778
1791,0.438800792864222,0.9965277777777778
1792,0.4388338288734721,0.9965277777777778
1793,0.4406012553683515,0.9965277777777778
1794,0.4406012553683515,0.9972222222222222
1795,0.44468120251073673,0.9972222222222222
1796,0.44471423851998676,0.9972222222222222
1797,0.44537495870498844,0.9972222222222222
1798,0.44540799471423853,0.9972222222222222
1799,0.4456392467789891,0.9972222222222222
1800,0.44567228278823917,0.9972222222222222
1801,0.4468946151304922,0.9972222222222222
1802,0.4469276511397423,0.9972222222222222
1803,0.4474727452923687,0.9972222222222222
1804,0.4475057813016188,0.9972222222222222
1805,0.449603567888999,0.9972222222222222
1806,0.4496366038982491,0.9972222222222222
1807,0.45199867855963,0.9972222222222222
1808,0.4520317145688801,0.9972222222222222
1809,0.4547076313181368,0.9972222222222222
1810,0.4547406673273868,0.9972222222222222
1811,0.45574826560951437,0.9972222222222222
1812,0.45578130161876446,0.9972222222222222
1813,0.4573174760488933,0.9972222222222222
1814,0.45735051205814337,0.9972222222222222
1815,0.45885365047902216,0.9972222222222222
1816,0.45888668648827224,0.9972222222222222
1817,0.461595639246779,0.9972222222222222
1818,0.4616286752560291,0.9972222222222222
1819,0.4626527915427816,0.9972222222222222
1820,0.4626858275520317,0.9972222222222222
1821,0.46301618764453256,0.9972222222222222
1822,0.46304922365378265,0.9972222222222222
1823,0.4631648496861579,0.9972222222222222
1824,0.463197885695408,0.9972222222222222
1825,0.4672447968285431,0.9972222222222222
1826,0.4672778328377932,0.9972222222222222
1827,0.4682358771060456,0.9972222222222222
1828,0.46826891311529567,0.9972222222222222
1829,0.4689626693095474,0.9972222222222222
1830,0.4689957053187975,0.9972222222222222
1831,0.4694086554344235,0.9972222222222222
1832,0.4694416914436736,0.9972222222222222
1833,0.47044928972580113,0.9972222222222222
1834,0.4704823257350512,0.9972222222222222
1835,0.4705814337628014,0.9972222222222222
1836,0.4706144697720515,0.9972222222222222
1837,0.4722827882391807,0.9972222222222222
1838,0.47231582424843077,0.9972222222222222
1839,0.4745292368681863,0.9972222222222222
1840,0.4745622728774364,0.9972222222222222
1841,0.4755037991410638,0.9972222222222222
1842,0.47553683515031386,0.9972222222222222
1843,0.4833994053518335,0.9972222222222222
1844,0.4833994053518335,0.9979166666666667
1845,0.48420878757846053,0.9979166666666667
1846,0.4842418235877106,0.9979166666666667
1847,0.484407003633961,0.9979166666666667
1848,0.48442352163858604,0.9986111111111111
1849,0.486802114304592,0.9986111111111111
1850,0.4868351503138421,0.9986111111111111
1851,0.4886025768087215,0.9986111111111111
1852,0.4886356128179716,0.9986111111111111
1853,0.49008919722497524,0.9986111111111111
1854,0.4901222332342253,0.9986111111111111
1855,0.49154278163197884,0.9986111111111111
1856,0.49157581764122893,0.9986111111111111
1857,0.4937231582424843,0.9986111111111111
1858,0.4937561942517344,0.9986111111111111
1859,0.49786917740336967,0.9986111111111111
1860,0.49790221341261975,0.9986111111111111
1861,0.4982160555004955,0.9986111111111111
1862,0.4982490915097456,0.9986111111111111
1863,0.49877766765774695,0.9986111111111111
1864,0.49881070366699704,0.9986111111111111
1865,0.5007433102081269,0.9986111111111111
1866,0.500776346217377,0.9986111111111111
1867,0.5023785926660059,0.9986111111111111
1868,0.502411628675256,0.9986111111111111
1869,0.5028080607862571,0.9986111111111111
1870,0.5028080607862571,0.9993055555555556
1871,0.503567888999009,0.9993055555555556
1872,0.503600925008259,0.9993055555555556
1873,0.5058638916418896,0.9993055555555556
1874,0.5058969276511397,0.9993055555555556
1875,0.5067888999008919,0.9993055555555556
1876,0.506821935910142,0.9993055555555556
1877,0.5079286422200199,0.9993055555555556
1878,0.5079616782292699,0.9993055555555556
1879,0.5106541129831517,0.9993055555555556
1880,0.5106871489924018,0.9993055555555556
1881,0.5126197555335316,0.9993055555555556
1882,0.5126527915427816,0.9993055555555556
1883,0.5134786917740337,0.9993055555555556
1884,0.5135117277832838,0.9993055555555556
1885,0.5139246778989098,0.9993055555555556
1886,0.5139577139081599,0.9993055555555556
1887,0.5151800462504129,0.9993055555555556
1888,0.515213082259663,0.9993055555555556
1889,0.5154608523290386,0.9993055555555556
1890,0.5154938883382887,0.9993055555555556
1891,0.5157416584076644,0.9993055555555556
1892,0.5157746944169145,0.9993055555555556
1893,0.5161050545094152,0.9993055555555556
1894,0.5161380905186653,0.9993055555555556
1895,0.5165675586389165,0.9993055555555556
1896,0.5166005946481665,0.9993055555555556
1897,0.5193260654112983,0.9993055555555556
1898,0.5193591014205484,0.9993055555555556
1899,0.5195738354806739,0.9993055555555556
1900,0.519606871489924,0.9993055555555556
1901,0.5234720845721836,0.9993055555555556
1902,0.5235051205814337,0.9993055555555556
1903,0.5245953088866865,0.9993055555555556
1904,0.5246283448959366,0.9993055555555556
1905,0.5250247770069376,0.9993055555555556
1906,0.5250578130161876,0.9993055555555556
1907,0.5275189957053188,0.9993055555555556
1908,0.5275520317145689,0.9993055555555556
1909,0.5290882061446978,0.9993055555555556
1910,0.5291212421539478,0.9993055555555556
1911,0.5311694747274529,0.9993055555555556
1912,0.531202510736703,0.9993055555555556
1913,0.5336636934258342,0.9993055555555556
1914,0.5336967294350843,0.9993055555555556
1915,0.5345391476709613,0.9993055555555556
1916,0.5345721836802114,0.9993055555555556
1917,0.537215064420218,0.9993055555555556
1918,0.5372481004294681,0.9993055555555556
1919,0.5408655434423522,0.9993055555555556
1920,0.5408985794516022,0.9993055555555556
1921,0.5464651470102412,0.9993055555555556
1922,0.5464981830194913,0.9993055555555556
1923,0.5473240832507433,0.9993055555555556
1924,0.5473571192599934,0.9993055555555556
1925,0.5483151635282458,0.9993055555555556
1926,0.5483481995374959,0.9993055555555556
1927,0.5489098116947473,0.9993055555555556
1928,0.5489428477039974,0.9993055555555556
1929,0.5521473406012554,0.9993055555555556
1930,0.5521803766105055,0.9993055555555556
1931,0.5565246118268913,0.9993055555555556
1932,0.5565576478361414,0.9993055555555556
1933,0.556805417905517,0.9993055555555556
1934,0.556838453914767,0.9993055555555556
1935,0.5577469441691444,0.9993055555555556
1936,0.5577799801783945,0.9993055555555556
1937,0.5601585728444004,0.9993055555555556
1938,0.5601916088536505,0.9993055555555556
1939,0.5616947472745293,0.9993055555555556
1940,0.5617277832837794,0.9993055555555556
1941,0.5629005616121573,0.9993055555555556
1942,0.5629335976214074,0.9993055555555556
1943,0.5656260323752891,0.9993055555555556
1944,0.5656590683845392,0.9993055555555556
1945,0.5662867525602907,0.9993055555555556
1946,0.5663197885695408,0.9993055555555556
1947,0.5687148992401718,0.9993055555555556
1948,0.5687479352494219,0.9993055555555556
1949,0.5714568880079286,0.9993055555555556
1950,0.5714899240171787,0.9993055555555556
1951,0.5739180706970598,0.9993055555555556
1952,0.5739511067063099,0.9993055555555556
1953,0.5742153947803106,0.9993055555555556
1954,0.5742484307895607,0.9993055555555556
1955,0.5750578130161876,0.9993055555555556
1956,0.5750908490254377,0.9993055555555556
1957,0.5808225966303271,0.9993055555555556
1958,0.5808556326395772,0.9993055555555556
1959,0.5822431450280806,0.9993055555555556
1960,0.5822761810373307,0.9993055555555556
1961,0.5827221671622068,0.9993055555555556
1962,0.5827552031714569,0.9993055555555556
1963,0.5833168153287083,0.9993055555555556
1964,0.5833498513379584,0.9993055555555556
1965,0.5863561281797159,0.9993055555555556
1966,0.586389164188966,0.9993055555555556
1967,0.5868021143045921,0.9993055555555556
1968,0.586835150313842,0.9993055555555556
1969,0.5883548067393459,0.9993055555555556
1970,0.588387842748596,0.9993055555555556
1971,0.588767756854972,0.9993055555555556
1972,0.588800792864222,0.9993055555555556
1973,0.5889659729104724,0.9993055555555556
1974,0.5889990089197225,0.9993055555555556
1975,0.5893293690122233,0.9993055555555556
1976,0.5893624050214734,0.9993055555555556
1977,0.5905517013544764,0.9993055555555556
1978,0.5905847373637264,0.9993055555555556
1979,0.5932936901222332,0.9993055555555556
1980,0.5933267261314833,0.9993055555555556
1981,0.5938553022794847,0.9993055555555556
1982,0.5938883382887348,0.9993055555555556
1983,0.5939874463164849,0.9993055555555556
1984,0.594020482325735,0.9993055555555556
1985,0.5945655764783614,0.9993055555555556
1986,0.5945986124876115,0.9993055555555556
1987,0.5957383548067393,0.9993055555555556
1988,0.5957713908159894,0.9993055555555556
1989,0.5966798810703667,0.9993055555555556
1990,0.5967129170796168,0.9993055555555556
1991,0.598794185662372,0.9993055555555556
1992,0.5988272216716221,0.9993055555555556
1993,0.5996531219028741,0.9993055555555556
1994,0.5996861579121242,0.9993055555555556
1995,0.6015031384208788,0.9993055555555556
1996,0.6015361744301289,0.9993055555555556
1997,0.6034027089527585,0.9993055555555556
1998,0.6034357449620086,0.9993055555555556
1999,0.6041790551701355,0.9993055555555556
2000,0.6042120911793856,0.9993055555555556
2001,0.6043772712256359,0.9993055555555556
2002,0.604410307234886,0.9993055555555556
2003,0.6045424512718863,0.9993055555555556
2004,0.6045754872811364,0.9993055555555556
2005,0.604806739345887,0.9993055555555556
2006,0.6048397753551371,0.9993055555555556
2007,0.6087380244466468,0.9993055555555556
2008,0.6087710604558969,0.9993055555555556
2009,0.6114965312190287,0.9993055555555556
2010,0.6115295672282788,0.9993055555555556
2011,0.6140403039312851,0.9993055555555556
2012,0.6140733399405351,0.9993055555555556
2013,0.615213082259663,0.9993055555555556
2014,0.6152461182689131,0.9993055555555556
2015,0.61598942847704,0.9993055555555556
2016,0.6160224644862901,0.9993055555555556
2017,0.618384539147671,0.9993055555555556
2018,0.6184175751569211,0.9993055555555556
2019,0.6192599933927981,0.9993055555555556
2020,0.6192930294020482,0.9993055555555556
2021,0.6195242814667988,0.9993055555555556
2022,0.6195573174760489,0.9993055555555556
2023,0.6217211760819293,0.9993055555555556
2024,0.6217542120911794,0.9993055555555556
2025,0.6220680541790552,0.9993055555555556
2026,0.6221010901883053,0.9993055555555556
2027,0.6244962008589362,0.9993055555555556
2028,0.6245292368681863,0.9993055555555556
2029,0.6262966633630658,0.9993055555555556
2030,0.6263296993723159,0.9993055555555556
2031,0.6282292699041956,0.9993055555555556
2032,0.6282623059134457,0.9993055555555556
2033,0.629600264288074,0.9993055555555556
2034,0.6296333002973241,0.9993055555555556
2035,0.6301453584407004,0.9993055555555556
2036,0.6301783944499505,0.9993055555555556
2037,0.6311694747274529,0.9993055555555556
2038,0.631202510736703,0.9993055555555556
2039,0.6338288734720846,0.9993055555555556
2040,0.6338619094813347,0.9993055555555556
2041,0.6362570201519656,0.9993055555555556
2042,0.6362900561612157,0.9993055555555556
2043,0.637991410637595,0.9993055555555556
2044,0.6380244466468451,0.9993055555555556
2045,0.6422200198216056,0.9993055555555556
2046,0.6422530558308557,0.9993055555555556
2047,0.6438222662702345,0.9993055555555556
2048,0.6438553022794846,0.9993055555555556
2049,0.644020482325735,0.9993055555555556
2050,0.6440535183349851,0.9993055555555556
2051,0.6450776346217377,0.9993055555555556
2052,0.6451106706309878,0.9993055555555556
2053,0.6485629335976214,0.9993055555555556
2054,0.6485959696068715,0.9993055555555556
2055,0.6487776676577469,0.9993055555555556
2056,0.648810703666997,0.9993055555555556
2057,0.6500495540138751,0.9993055555555556
2058,0.6500825900231252,0.9993055555555556
2059,0.6501486620416254,0.9993055555555556
2060,0.6501816980508754,0.9993055555555556
2061,0.6506111661711266,0.9993055555555556
2062,0.6506442021803767,0.9993055555555556
2063,0.6507433102081268,0.9993055555555556
2064,0.6507763462173769,0.9993055555555556
2065,0.6520317145688801,0.9993055555555556
2066,0.6520647505781302,0.9993055555555556
2067,0.6528245787908821,0.9993055555555556
2068,0.6528576148001322,0.9993055555555556
2069,0.6546085232903865,0.9993055555555556
2070,0.6546415592996366,0.9993055555555556
2071,0.6574165840766435,0.9993055555555556
2072,0.6574496200858936,0.9993055555555556
2073,0.6577469441691444,0.9993055555555556
2074,0.6577799801783945,0.9993055555555556
2075,0.6583746283448959,0.9993055555555556
2076,0.658407664354146,0.9993055555555556
2077,0.6590188305252725,0.9993055555555556
2078,0.6590518665345226,0.9993055555555556
2079,0.6600429468120251,0.9993055555555556
2080,0.6600759828212752,0.9993055555555556
2081,0.6605384869507763,0.9993055555555556
2082,0.6605715229600264,0.9993055555555556
2083,0.6610340270895276,0.9993055555555556
2084,0.6610670630987777,0.9993055555555556
2085,0.6613148331681533,0.9993055555555556
2086,0.6613478691774034,0.9993055555555556
2087,0.6631152956722828,0.9993055555555556
2088,0.6631483316815329,0.9993055555555556
2089,0.6632969937231582,0.9993055555555556
2090,0.6633300297324083,0.9993055555555556
2091,0.6633630657416584,0.9993055555555556
2092,0.6633961017509085,0.9993055555555556
2093,0.6652956722827882,0.9993055555555556
2094,0.6653287082920383,0.9993055555555556
2095,0.6658242484307896,0.9993055555555556
2096,0.6658572844400397,0.9993055555555556
2097,0.6661380905186653,0.9993055555555556
2098,0.6661380905186653,1.0
2099,0.6669805087545424,1.0
2100,0.6670135447637925,1.0
2101,0.6685827552031715,1.0
2102,0.6686157912124215,1.0
2103,0.6690452593326726,1.0
2104,0.6690782953419226,1.0
2105,0.6705649157581764,1.0
2106,0.6705979517674265,1.0
2107,0.6706805417905517,1.0
2108,0.6707135777998018,1.0
2109,0.6724644862900562,1.0
2110,0.6724975222993063,1.0
2111,0.6730921704658077,1.0
2112,0.6731252064750578,1.0
2113,0.673174760488933,1.0
2114,0.673207796498183,1.0
2115,0.6734060125536835,1.0
2116,0.6734390485629336,1.0
2117,0.673604228609184,1.0
2118,0.6736372646184341,1.0
2119,0.6739511067063099,1.0
2120,0.67398414271556,1.0
2121,0.6743640568219359,1.0
2122,0.674397092831186,1.0
2123,0.6748430789560621,1.0
2124,0.6748761149653122,1.0
2125,0.6749256689791873,1.0
2126,0.6749587049884374,1.0
2127,0.6752725470763132,1.0
2128,0.6753055830855632,1.0
2129,0.6757846052196894,1.0
2130,0.6758176412289395,1.0
2131,0.6778989098116948,1.0
2132,0.6779649818301949,1.0
2133,0.6818136769078296,1.0
2134,0.6818467129170797,1.0
2135,0.6849851337958375,1.0
2136,0.6850181698050876,1.0
2137,0.6853980839114635,1.0
2138,0.6854311199207136,1.0
2139,0.6855302279484639,1.0
2140,0.6855632639577139,1.0
2141,0.6856623719854642,1.0
2142,0.6856954079947143,1.0
2143,0.6875619425173439,1.0
2144,0.687594978526594,1.0
2145,0.6884373967624711,1.0
2146,0.6884704327717212,1.0
2147,0.6886521308225966,1.0
2148,0.6886851668318467,1.0
2149,0.6905351833498513,1.0
2150,0.6905682193591014,1.0
2151,0.6906177733729766,1.0
2152,0.6906508093822267,1.0
2153,0.691592335645854,1.0
2154,0.6916253716551041,1.0
2155,0.6917905517013545,1.0
2156,0.6918235877106046,1.0
2157,0.6919557317476049,1.0
2158,0.6919887677568549,1.0
2159,0.6925008259002312,1.0
2160,0.6925338619094813,1.0
2161,0.6933597621407334,1.0
2162,0.6933927981499834,1.0
2163,0.6955071027419888,1.0
2164,0.6955401387512389,1.0
2165,0.6962669309547407,1.0
2166,0.6962999669639908,1.0
2167,0.6964486290056161,1.0
2168,0.6964816650148662,1.0
2169,0.6966138090518665,1.0
2170,0.6966468450611166,1.0
2171,0.6970432771721176,1.0
2172,0.6970763131813676,1.0
2173,0.6972745292368682,1.0
2174,0.6973075652461183,1.0
2175,0.7012884043607532,1.0
2176,0.7013214403700033,1.0
2177,0.7026593987446317,1.0
2178,0.7026924347538818,1.0
2179,0.7030558308556326,1.0
2180,0.7030888668648827,1.0
2181,0.7033861909481335,1.0
2182,0.7034192269573836,1.0
2183,0.7034687809712586,1.0
2184,0.7035018169805087,1.0
2185,0.7035348529897588,1.0
2186,0.7035678889990089,1.0
2187,0.7038486950776346,1.0
2188,0.7039147670961348,1.0
2189,0.7075487281136439,1.0
2190,0.707581764122894,1.0
2191,0.7081598942847704,1.0
2192,0.7081929302940205,1.0
2193,0.7086058804096466,1.0
2194,0.7086389164188966,1.0
2195,0.7102411628675256,1.0
2196,0.7102741988767757,1.0
2197,0.7104724149322762,1.0
2198,0.7105054509415263,1.0
2199,0.711579121242154,1.0
2200,0.711612157251404,1.0
2201,0.7120085893624051,1.0
2202,0.712041625371655,1.0
2203,0.7120581433762802,1.0
2204,0.7120911793855302,1.0
2205,0.7145193260654114,1.0
2206,0.7145523620746613,1.0
2207,0.7157581764122894,1.0
2208,0.7157912124215394,1.0
2209,0.7194747274529237,1.0
2210,0.7195077634621738,1.0
2211,0.7198216055500496,1.0
2212,0.7198546415592997,1.0
2213,0.7214568880079286,1.0
2214,0.7214899240171787,1.0
2215,0.7232573505120582,1.0
2216,0.7232903865213082,1.0
2217,0.7261975553353155,1.0
2218,0.7262305913445656,1.0
2219,0.7269243475388173,1.0
2220,0.7269573835480674,1.0
2221,0.7272216716220681,1.0
2222,0.7272547076313182,1.0
2223,0.7279484638255699,1.0
2224,0.72798149983482,1.0
2225,0.72998017839445,1.0
2226,0.7300132144037,1.0
2227,0.7312025107367031,1.0
2228,0.731235546745953,1.0
2229,0.7331185992732078,1.0
2230,0.7331516352824579,1.0
2231,0.7346712917079616,1.0
2232,0.7347043277172117,1.0
2233,0.7352989758837133,1.0
2234,0.7353320118929634,1.0
2235,0.7368351503138421,1.0
2236,0.7368681863230921,1.0
2237,0.7390650809382227,1.0
2238,0.7390981169474727,1.0
2239,0.7395771390815989,1.0
2240,0.739610175090849,1.0
2241,0.7435579781962339,1.0
2242,0.743591014205484,1.0
2243,0.7471423851998679,1.0
2244,0.747175421209118,1.0
2245,0.7478526593987447,1.0
2246,0.7478856954079948,1.0
2247,0.7530227948463826,1.0
2248,0.7530558308556327,1.0
2249,0.75399735711926,1.0
2250,0.7540303931285101,1.0
2251,0.7544598612487612,1.0
2252,0.7544928972580113,1.0
2253,0.7549058473736373,1.0
2254,0.7549388833828874,1.0
2255,0.7565576478361414,1.0
2256,0.7565906838453915,1.0
2257,0.7595474066732739,1.0
2258,0.759580442682524,1.0
2259,0.7613643871820284,1.0
2260,0.7613974231912785,1.0
2261,0.7618599273207797,1.0
2262,0.7618929633300298,1.0
2263,0.7621902874132804,1.0
2264,0.7622233234225305,1.0
2265,0.7626693095474066,1.0
2266,0.7627023455566567,1.0
2267,0.7646019160885366,1.0
2268,0.7646349520977865,1.0
2269,0.7691608853650479,1.0
2270,0.769193921374298,1.0
2271,0.7728278823918071,1.0
2272,0.7728609184010572,1.0
2273,0.7733234225305583,1.0
2274,0.7733564585398084,1.0
2275,0.774000660720185,1.0
2276,0.7740336967294351,1.0
2277,0.7760488932936901,1.0
2278,0.7760819293029402,1.0
2279,0.7768747935249422,1.0
2280,0.7769078295341922,1.0
2281,0.7770069375619425,1.0
2282,0.7770399735711926,1.0
2283,0.7776841757515692,1.0
2284,0.7777172117608193,1.0
2285,0.778790882061447,1.0
2286,0.7788239180706971,1.0
2287,0.7800132144037001,1.0
2288,0.7800462504129502,1.0
2289,0.7814337628014536,1.0
2290,0.7814667988107037,1.0
2291,0.7825239511067064,1.0
2292,0.7825569871159563,1.0
2293,0.7828708292038322,1.0
2294,0.7829038652130823,1.0
2295,0.7832342253055831,1.0
2296,0.7832672613148332,1.0
2297,0.7864222001982161,1.0
2298,0.7864552362074662,1.0
2299,0.7889164188965972,1.0
2300,0.7889494549058473,1.0
2301,0.7890981169474728,1.0
2302,0.7891311529567229,1.0
2303,0.7898249091509746,1.0
2304,0.7898579451602247,1.0
2305,0.7908820614469773,1.0
2306,0.7909150974562272,1.0
2307,0.7930459200528576,1.0
2308,0.7930789560621077,1.0
2309,0.7967294350842419,1.0
2310,0.7967624710934919,1.0
2311,0.7973240832507433,1.0
2312,0.7973571192599934,1.0
2313,0.7978526593987446,1.0
2314,0.7978856954079947,1.0
2315,0.7986785596299967,1.0
2316,0.7987115956392468,1.0
2317,0.7989098116947473,1.0
2318,0.7989428477039974,1.0
2319,0.8026593987446317,1.0
2320,0.8026924347538817,1.0
2321,0.8040964651470103,1.0
2322,0.8041295011562604,1.0
2323,0.8086058804096465,1.0
2324,0.8086389164188966,1.0
2325,0.8086719524281467,1.0
2326,0.8087049884373968,1.0
2327,0.8088040964651471,1.0
2328,0.8088371324743971,1.0
2329,0.8090683845391476,1.0
2330,0.8091014205483977,1.0
2331,0.8109349190617773,1.0
2332,0.8109679550710274,1.0
2333,0.8122563594317807,1.0
2334,0.8122893954410307,1.0
2335,0.8125041295011562,1.0
2336,0.8125371655104063,1.0
2337,0.81798810703667,1.0
2338,0.8180211430459201,1.0
2339,0.8183515031384209,1.0
2340,0.818384539147671,1.0
2341,0.8187314172447968,1.0
2342,0.8187644532540469,1.0
2343,0.819193921374298,1.0
2344,0.8192269573835481,1.0
2345,0.8222167162206805,1.0
2346,0.8222497522299306,1.0
2347,0.8249091509745623,1.0
2348,0.8249421869838124,1.0
2349,0.826759167492567,1.0
2350,0.826792203501817,1.0
2351,0.8275685497191939,1.0
2352,0.827601585728444,1.0
2353,0.8306408985794516,1.0
2354,0.8306739345887016,1.0
2355,0.833630657416584,1.0
2356,0.8336636934258341,1.0
2357,0.8350016518004625,1.0
2358,0.8350346878097126,1.0
2359,0.8350842418235878,1.0
2360,0.8351172778328378,1.0
2361,0.8351833498513379,1.0
2362,0.835216385860588,1.0
2363,0.8384208787578461,1.0
2364,0.8384539147670962,1.0
2365,0.8396266930954741,1.0
2366,0.8396597291047242,1.0
2367,0.8401222332342253,1.0
2368,0.8401552692434754,1.0
2369,0.8405682193591014,1.0
2370,0.8406012553683515,1.0
2371,0.8453749587049885,1.0
2372,0.8454079947142386,1.0
2373,0.8454410307234886,1.0
2374,0.8454740667327387,1.0
2375,0.8457713908159894,1.0
2376,0.8458044268252395,1.0
2377,0.8467129170796168,1.0
2378,0.8467459530888669,1.0
2379,0.8472580112322431,1.0
2380,0.8472910472414932,1.0
2381,0.8502808060786257,1.0
2382,0.8503138420878757,1.0
2383,0.8511562603237529,1.0
2384,0.851189296333003,1.0
2385,0.8523785926660059,1.0
2386,0.852411628675256,1.0
2387,0.8532210109018831,1.0
2388,0.8532870829203832,1.0
2389,0.8536504790221341,1.0
2390,0.8537165510406343,1.0
2391,0.8541129831516353,1.0
2392,0.8541460191608854,1.0
2393,0.857185332011893,1.0
2394,0.857218368021143,1.0
2395,0.8604393789230261,1.0
2396,0.8604724149322762,1.0
2397,0.864816650148662,1.0
2398,0.8648496861579121,1.0
2399,0.8690452593326726,1.0
2400,0.8690782953419227,1.0
2401,0.8715559960356789,1.0
2402,0.871589032044929,1.0
2403,0.872811364387182,1.0
2404,0.8728444003964321,1.0
2405,0.877188635612818,1.0
2406,0.8772216716220681,1.0
2407,0.87798149983482,1.0
2408,0.8780475718533202,1.0
2409,0.8803435744962008,1.0
2410,0.8803766105054509,1.0
2411,0.8817310868847044,1.0
2412,0.8817641228939544,1.0
2413,0.8821605550049554,1.0
2414,0.8821935910142055,1.0
2415,0.8824248430789561,1.0
2416,0.8824578790882062,1.0
2417,0.8843574496200859,1.0
2418,0.884390485629336,1.0
2419,0.8888173108688471,1.0
2420,0.8888503468780972,1.0
2421,0.8900726792203502,1.0
2422,0.8901057152296002,1.0
2423,0.8903865213082259,1.0
2424,0.890419557317476,1.0
2425,0.8907664354146019,1.0
2426,0.890799471423852,1.0
2427,0.8908159894284771,1.0
2428,0.8908490254377271,1.0
2429,0.8922035018169805,1.0
2430,0.8922365378262306,1.0
2431,0.8951106706309878,1.0
2432,0.8951437066402379,1.0
2433,0.896019160885365,1.0
2434,0.8960521968946151,1.0
2435,0.8978361413941196,1.0
2436,0.8978691774033697,1.0
2437,0.8986124876114965,1.0
2438,0.8986455236207466,1.0
2439,0.899174099768748,1.0
2440,0.899207135777998,1.0
2441,0.8998183019491246,1.0
2442,0.8998513379583746,1.0
2443,0.9002147340601255,1.0
2444,0.9002477700693756,1.0
2445,0.9025602907168814,1.0
2446,0.9025933267261315,1.0
2447,0.9037330690452593,1.0
2448,0.9037661050545094,1.0
2449,0.9089032044928973,1.0
2450,0.9089362405021474,1.0
2451,0.9133300297324083,1.0
2452,0.9133630657416584,1.0
2453,0.9134456557647836,1.0
2454,0.9134786917740337,1.0
2455,0.9134952097786587,1.0
2456,0.9135282457879088,1.0
2457,0.9160720185001652,1.0
2458,0.9161050545094153,1.0
2459,0.9179550710274199,1.0
2460,0.91798810703667,1.0
2461,0.923587710604559,1.0
2462,0.9236207466138091,1.0
2463,0.9278328377931946,1.0
2464,0.9278658738024447,1.0
2465,0.928807400066072,1.0
2466,0.9288404360753221,1.0
2467,0.9320944829864553,1.0
2468,0.9321275189957053,1.0
2469,0.9329864552362075,1.0
2470,0.9330194912454576,1.0
2471,0.9355137099438388,1.0
2472,0.9355467459530888,1.0
2473,0.9356788899900892,1.0
2474,0.9357119259993393,1.0
2475,0.9404691113313511,1.0
2476,0.9405021473406012,1.0
2477,0.9426990419557317,1.0
2478,0.9427320779649818,1.0
2479,0.9440865543442352,1.0
2480,0.9441195903534852,1.0
2481,0.9446977205153617,1.0
2482,0.9447307565246118,1.0
2483,0.9466963990749917,1.0
2484,0.9467294350842418,1.0
2485,0.9479022134126197,1.0
2486,0.9479352494218698,1.0
2487,0.9517839444995044,1.0
2488,0.9518169805087545,1.0
2489,0.9520647505781301,1.0
2490,0.9520977865873802,1.0
2491,0.9526759167492567,1.0
2492,0.9527089527585068,1.0
2493,0.9532375289065081,1.0
2494,0.9532705649157581,1.0
2495,0.9533036009250082,1.0
2496,0.9533366369342583,1.0
2497,0.9549058473736373,1.0
2498,0.9549388833828873,1.0
2499,0.9555170135447638,1.0
2500,0.9555500495540139,1.0
2501,0.9571192599933928,1.0
2502,0.9571522960026428,1.0
2503,0.9585398083911464,1.0
2504,0.9585728444003965,1.0
2505,0.9621407333994053,1.0
2506,0.9621737694086554,1.0
2507,0.9626362735381566,1.0
2508,0.9626693095474067,1.0
2509,0.9654112983151635,1.0
2510,0.9654443343244136,1.0
2511,0.9665345226296663,1.0
2512,0.9665675586389164,1.0
2513,0.9687148992401717,1.0
2514,0.9687479352494218,1.0
2515,0.9706475057813017,1.0
2516,0.9706805417905517,1.0
2517,0.9719193921374298,1.0
2518,0.9719524281466799,1.0
2519,0.977188635612818,1.0
2520,0.9772216716220681,1.0
2521,0.9803270564915758,1.0
2522,0.9803600925008259,1.0
2523,0.9805913445655765,1.0
2524,0.9806243805748266,1.0
2525,0.9813676907829534,1.0
2526,0.9814007267922035,1.0
2527,0.987991410637595,1.0
2528,0.9880244466468451,1.0
2529,0.9897588371324744,1.0
2530,0.9897918731417245,1.0
2531,0.9905682193591014,1.0
2532,0.9906012553683515,1.0
2533,0.9912950115626032,1.0
2534,0.9913280475718533,1.0
2535,0.9920878757846052,1.0
2536,0.9921209117938553,1.0
2537,0.9927155599603568,1.0
2538,0.9927485959696069,1.0
2539,0.9935414601916088,1.0
2540,0.9935744962008589,1.0
2541,0.9947472745292368,1.0
2542,0.9947803105384869,1.0
2543,0.9959365708622399,1.0
2544,0.9959696068714899,1.0
2545,0.9962669309547406,1.0
2546,0.9962999669639907,1.0
2547,0.99800132144037,1.0
2548,0.9980343574496201,1.0
2549,1.0,1.0
