,fpr,tpr
0,0.0,0.0
1,0.0,0.0003403675970047651
2,0.0,0.031994554118447927
3,1.7075919538267136e-05,0.031994554118447927
4,1.7075919538267136e-05,0.12014976174268209
5,1.7075919538267136e-05,0.12083049693669162
6,1.7075919538267136e-05,0.19230769230769232
7,3.415183907653427e-05,0.19230769230769232
8,3.415183907653427e-05,0.20830496936691628
9,5.1227758614801405e-05,0.20830496936691628
10,5.1227758614801405e-05,0.21238938053097345
11,6.830367815306854e-05,0.21238938053097345
12,6.830367815306854e-05,0.3672566371681416
13,8.537959769133568e-05,0.3672566371681416
14,8.537959769133568e-05,0.4237576582709326
15,0.00010245551722960281,0.4237576582709326
16,0.00010245551722960281,0.42886317222600406
17,0.00011953143676786995,0.42886317222600406
18,0.00011953143676786995,0.48162014976174267
19,0.0001366073563061371,0.48162014976174267
20,0.0001366073563061371,0.4860449285228046
21,0.00015368327584440423,0.4860449285228046
22,0.00015368327584440423,0.48808713410483323
23,0.00017075919538267137,0.48808713410483323
24,0.00017075919538267137,0.49727705922396187
25,0.00018783511492093848,0.49727705922396187
26,0.00018783511492093848,0.5388019060585433
27,0.00020491103445920562,0.5388019060585433
28,0.00020491103445920562,0.5476514635806671
29,0.00022198695399747276,0.5476514635806671
30,0.00022198695399747276,0.5534377127297482
31,0.0002390628735357399,0.5534377127297482
32,0.0002390628735357399,0.55786249149081
33,0.000256138793074007,0.55786249149081
34,0.000256138793074007,0.5704560925799864
35,0.0002732147126122742,0.5704560925799864
36,0.0002732147126122742,0.5755616065350578
37,0.0002902906321505413,0.5755616065350578
38,0.0002902906321505413,0.5963240299523486
39,0.00030736655168880846,0.5963240299523486
40,0.00030736655168880846,0.6004084411164057
41,0.00032444247122707557,0.6004084411164057
42,0.00032444247122707557,0.6048332198774676
43,0.00034151839076534274,0.6048332198774676
44,0.00034151839076534274,0.6051735874744725
45,0.00035859431030360985,0.6051735874744725
46,0.00035859431030360985,0.6068754254594962
47,0.00037567022984187696,0.6068754254594962
48,0.00037567022984187696,0.6085772634445201
49,0.00039274614938014413,0.6085772634445201
50,0.00039274614938014413,0.6095983662355344
51,0.00040982206891841124,0.6095983662355344
52,0.00040982206891841124,0.6102791014295439
53,0.0004268979884566784,0.6102791014295439
54,0.0004268979884566784,0.6123213070115725
55,0.0004439739079949455,0.6123213070115725
56,0.0004439739079949455,0.6126616746085772
57,0.0004610498275332127,0.6126616746085772
58,0.0004610498275332127,0.6143635125936011
59,0.0004781257470714798,0.6143635125936011
60,0.0004781257470714798,0.6167460857726345
61,0.000512277586148014,0.6167460857726345
62,0.000512277586148014,0.6204901293396868
63,0.0005293535056862812,0.6204901293396868
64,0.0005293535056862812,0.6218515997277059
65,0.0005464294252245484,0.6218515997277059
66,0.0005464294252245484,0.6221919673247107
67,0.0005635053447628155,0.6221919673247107
68,0.0005635053447628155,0.6225323349217154
69,0.0005976571838393497,0.6225323349217154
70,0.0005976571838393497,0.6238938053097345
71,0.0006147331033776169,0.6238938053097345
72,0.0006147331033776169,0.6279782164737917
73,0.000631809022915884,0.6279782164737917
74,0.000631809022915884,0.6300204220558203
75,0.0006488849424541511,0.6300204220558203
76,0.0006488849424541511,0.630360789652825
77,0.0006659608619924183,0.630360789652825
78,0.0006659608619924183,0.6324029952348537
79,0.0006830367815306855,0.6324029952348537
80,0.0006830367815306855,0.6354663036078966
81,0.0007001127010689526,0.6354663036078966
82,0.0007001127010689526,0.6368277739959156
83,0.0007171886206072197,0.6368277739959156
84,0.0007171886206072197,0.6378488767869299
85,0.0007513404596837539,0.6378488767869299
86,0.0007513404596837539,0.6402314499659633
87,0.0007684163792220211,0.6402314499659633
88,0.0007684163792220211,0.6412525527569776
89,0.0007854922987602883,0.6412525527569776
90,0.0007854922987602883,0.6422736555479919
91,0.0008025682182985554,0.6422736555479919
92,0.0008025682182985554,0.64499659632403
93,0.0008196441378368225,0.64499659632403
94,0.0008196441378368225,0.647719537100068
95,0.0008367200573750896,0.647719537100068
96,0.0008367200573750896,0.6480599046970729
97,0.000887947815989891,0.6480599046970729
98,0.000887947815989891,0.6504424778761062
99,0.0009050237355281582,0.6504424778761062
100,0.0009050237355281582,0.6535057862491491
101,0.0009391755746046925,0.6535057862491491
102,0.0009391755746046925,0.6545268890401634
103,0.0009562514941429596,0.6545268890401634
104,0.0009562514941429596,0.6565690946221919
105,0.0009733274136812267,0.6565690946221919
106,0.0009733274136812267,0.6572498298162015
107,0.0009904033332194938,0.6572498298162015
108,0.0009904033332194938,0.6582709326072158
109,0.001007479252757761,0.6582709326072158
110,0.001007479252757761,0.6589516678012253
111,0.001024555172296028,0.6589516678012253
112,0.001024555172296028,0.6630360789652825
113,0.0010416310918342953,0.6630360789652825
114,0.0010416310918342953,0.6637168141592921
115,0.0010587070113725625,0.6637168141592921
116,0.0010587070113725625,0.6654186521443158
117,0.0010757829309108295,0.6654186521443158
118,0.0010757829309108295,0.6718856364874064
119,0.0010928588504490967,0.6718856364874064
120,0.0010928588504490967,0.6732471068754254
121,0.0011099347699873637,0.6732471068754254
122,0.0011099347699873637,0.6735874744724302
123,0.0011611625286021652,0.6735874744724302
124,0.0011611625286021652,0.681075561606535
125,0.0011782384481404324,0.681075561606535
126,0.0011782384481404324,0.6824370319945541
127,0.0012123902872169666,0.6824370319945541
128,0.0012123902872169666,0.6827773995915589
129,0.0012465421262935008,0.6827773995915589
130,0.0012465421262935008,0.6831177671885637
131,0.001263618045831768,0.6831177671885637
132,0.001263618045831768,0.6837985023825732
133,0.0012806939653700353,0.6837985023825732
134,0.0012806939653700353,0.6858407079646017
135,0.0012977698849083023,0.6858407079646017
136,0.0012977698849083023,0.686861810755616
137,0.0013319217239848365,0.686861810755616
138,0.0013319217239848365,0.6878829135466303
139,0.0013489976435231037,0.6878829135466303
140,0.0013489976435231037,0.689925119128659
141,0.001366073563061371,0.689925119128659
142,0.001366073563061371,0.6916269571136828
143,0.001383149482599638,0.6916269571136828
144,0.001383149482599638,0.6919673247106876
145,0.0014002254021379052,0.6919673247106876
146,0.0014002254021379052,0.692648059904697
147,0.0014343772412144394,0.692648059904697
148,0.0014343772412144394,0.6946902654867256
149,0.0014514531607527066,0.6946902654867256
150,0.0014514531607527066,0.6953710006807352
151,0.0015709845975205765,0.6953710006807352
152,0.0015709845975205765,0.6974132062627638
153,0.0016051364365971107,0.6974132062627638
154,0.0016051364365971107,0.6977535738597685
155,0.001622212356135378,0.6977535738597685
156,0.001622212356135378,0.6980939414567733
157,0.001639288275673645,0.6980939414567733
158,0.001639288275673645,0.6987746766507829
159,0.0016563641952119122,0.6987746766507829
160,0.0016563641952119122,0.6997957794417972
161,0.0016734401147501792,0.6997957794417972
162,0.0016734401147501792,0.7018379850238258
163,0.0017075919538267136,0.7018379850238258
164,0.0017075919538267136,0.7025187202178352
165,0.0017246678733649806,0.7025187202178352
166,0.0017246678733649806,0.7028590878148401
167,0.0017417437929032479,0.7028590878148401
168,0.0017417437929032479,0.7052416609938734
169,0.0018100474710563163,0.7052416609938734
170,0.0018100474710563163,0.7055820285908782
171,0.0018441993101328507,0.7055820285908782
172,0.0018441993101328507,0.7083049693669162
173,0.0018612752296711178,0.7083049693669162
174,0.0018612752296711178,0.7086453369639211
175,0.001878351149209385,0.7086453369639211
176,0.001878351149209385,0.7096664397549354
177,0.001895427068747652,0.7096664397549354
178,0.001895427068747652,0.7113682777399591
179,0.0019125029882859192,0.7113682777399591
180,0.0019125029882859192,0.713070115724983
181,0.0019295789078241864,0.713070115724983
182,0.0019295789078241864,0.7140912185159973
183,0.0019637307469007204,0.7140912185159973
184,0.0019637307469007204,0.7154526889040164
185,0.0019808066664389876,0.7154526889040164
186,0.0019808066664389876,0.718856364874064
187,0.001997882585977255,0.718856364874064
188,0.001997882585977255,0.7191967324710687
189,0.002014958505515522,0.7191967324710687
190,0.002014958505515522,0.7212389380530974
191,0.0020661862641303233,0.7212389380530974
192,0.0020661862641303233,0.7215793056501021
193,0.0020832621836685905,0.7215793056501021
194,0.0020832621836685905,0.7226004084411164
195,0.0021344899422833918,0.7226004084411164
196,0.0021344899422833918,0.7229407760381211
197,0.002151565861821659,0.7229407760381211
198,0.002151565861821659,0.724642614023145
199,0.002168641781359926,0.724642614023145
200,0.002168641781359926,0.7263444520081688
201,0.0021857177008981934,0.7263444520081688
202,0.0021857177008981934,0.7273655547991831
203,0.0022027936204364607,0.7273655547991831
204,0.0022027936204364607,0.7287270251872022
205,0.0022369454595129947,0.7287270251872022
206,0.0022369454595129947,0.729067392784207
207,0.002254021379051262,0.729067392784207
208,0.002254021379051262,0.7297481279782164
209,0.0022881732181277963,0.7297481279782164
210,0.0022881732181277963,0.7300884955752213
211,0.002305249137666063,0.7300884955752213
212,0.002305249137666063,0.731790333560245
213,0.0023223250572043303,0.731790333560245
214,0.0023223250572043303,0.7334921715452689
215,0.0023394009767425976,0.7334921715452689
216,0.0023394009767425976,0.7345132743362832
217,0.0023564768962808648,0.7345132743362832
218,0.0023564768962808648,0.7351940095302927
219,0.002373552815819132,0.7351940095302927
220,0.002373552815819132,0.7358747447243023
221,0.002407704654895666,0.7358747447243023
222,0.002407704654895666,0.736215112321307
223,0.0024247805744339332,0.736215112321307
224,0.0024247805744339332,0.7368958475153166
225,0.0024418564939722004,0.7368958475153166
226,0.0024418564939722004,0.7372362151123213
227,0.0024589324135104677,0.7372362151123213
228,0.0024589324135104677,0.7379169503063309
229,0.002476008333048735,0.7379169503063309
230,0.002476008333048735,0.7382573179033356
231,0.0024930842525870017,0.7382573179033356
232,0.0024930842525870017,0.7392784206943499
233,0.002527236091663536,0.7392784206943499
234,0.002527236091663536,0.7396187882913546
235,0.0025613879307400706,0.7396187882913546
236,0.0025613879307400706,0.7426820966643976
237,0.0025955397698166046,0.7426820966643976
238,0.0025955397698166046,0.7433628318584071
239,0.002629691608893139,0.7433628318584071
240,0.002629691608893139,0.7437031994554119
241,0.0026467675284314062,0.7437031994554119
242,0.0026467675284314062,0.7450646698434309
243,0.0026809193675079402,0.7450646698434309
244,0.0026809193675079402,0.7491490810074881
245,0.0027150712065844747,0.7491490810074881
246,0.0027150712065844747,0.7505105513955072
247,0.002732147126122742,0.7505105513955072
248,0.002732147126122742,0.7511912865895167
249,0.0027492230456610087,0.7511912865895167
250,0.0027492230456610087,0.7518720217835262
251,0.002766298965199276,0.7518720217835262
252,0.002766298965199276,0.7525527569775358
253,0.002783374884737543,0.7525527569775358
254,0.002783374884737543,0.7528931245745405
255,0.0028004508042758103,0.7528931245745405
256,0.0028004508042758103,0.7532334921715452
257,0.0028346026433523444,0.7532334921715452
258,0.0028346026433523444,0.7545949625595644
259,0.002868754482428879,0.7545949625595644
260,0.002868754482428879,0.7559564329475834
261,0.002885830401967146,0.7559564329475834
262,0.002885830401967146,0.7573179033356024
263,0.00291998224104368,0.7573179033356024
264,0.00291998224104368,0.757998638529612
265,0.0029370581605819472,0.757998638529612
266,0.0029370581605819472,0.7590197413206263
267,0.0029541340801202145,0.7590197413206263
268,0.0029541340801202145,0.7593601089176311
269,0.0029712099996584817,0.7593601089176311
270,0.0029712099996584817,0.7600408441116405
271,0.00303951367781155,0.7600408441116405
272,0.00303951367781155,0.7603812117086454
273,0.0030565895973498174,0.7603812117086454
274,0.0030565895973498174,0.7610619469026548
275,0.0030907414364263514,0.7610619469026548
276,0.0030907414364263514,0.7627637848876787
277,0.0031078173559646186,0.7627637848876787
278,0.0031078173559646186,0.7631041524846834
279,0.003124893275502886,0.7631041524846834
280,0.003124893275502886,0.763784887678693
281,0.003176121034117687,0.763784887678693
282,0.003176121034117687,0.7658270932607216
283,0.0031931969536559543,0.7658270932607216
284,0.0031931969536559543,0.7661674608577264
285,0.0032273487927324887,0.7661674608577264
286,0.0032273487927324887,0.7665078284547311
287,0.003244424712270756,0.7665078284547311
288,0.003244424712270756,0.7692307692307693
289,0.00327857655134729,0.7692307692307693
290,0.00327857655134729,0.7699115044247787
291,0.003295652470885557,0.7699115044247787
292,0.003295652470885557,0.7705922396187883
293,0.0033468802295003584,0.7705922396187883
294,0.0033468802295003584,0.770932607215793
295,0.0033639561490386256,0.770932607215793
296,0.0033639561490386256,0.7726344452008169
297,0.00339810798811516,0.7726344452008169
298,0.00339810798811516,0.7733151803948264
299,0.0034493357467299613,0.7733151803948264
300,0.0034493357467299613,0.773995915588836
301,0.0034834875858064957,0.773995915588836
302,0.0034834875858064957,0.7750170183798503
303,0.003500563505344763,0.7750170183798503
304,0.003500563505344763,0.775357385976855
305,0.00351763942488303,0.775357385976855
306,0.00351763942488303,0.7756977535738597
307,0.0035859431030360986,0.7756977535738597
308,0.0035859431030360986,0.7760381211708646
309,0.003603019022574366,0.7760381211708646
310,0.003603019022574366,0.776718856364874
311,0.0036200949421126326,0.776718856364874
312,0.0036200949421126326,0.7780803267528931
313,0.0036371708616509,0.7780803267528931
314,0.0036371708616509,0.7784206943498979
315,0.0036713227007274343,0.7784206943498979
316,0.0036713227007274343,0.7804628999319265
317,0.0036883986202657015,0.7804628999319265
318,0.0036883986202657015,0.781143635125936
319,0.0037054745398039683,0.781143635125936
320,0.0037054745398039683,0.7814840027229408
321,0.0037396263788805027,0.7814840027229408
322,0.0037396263788805027,0.7818243703199456
323,0.003773778217957037,0.7818243703199456
324,0.003773778217957037,0.7821647379169503
325,0.003790854137495304,0.7821647379169503
326,0.003790854137495304,0.782505105513955
327,0.003807930057033571,0.782505105513955
328,0.003807930057033571,0.7828454731109599
329,0.0038250059765718384,0.7828454731109599
330,0.0038250059765718384,0.7831858407079646
331,0.003893309654724907,0.7831858407079646
332,0.003893309654724907,0.7835262083049693
333,0.003910385574263174,0.7835262083049693
334,0.003910385574263174,0.7842069434989789
335,0.003927461493801441,0.7842069434989789
336,0.003927461493801441,0.7848876786929885
337,0.0039445374133397085,0.7848876786929885
338,0.0039445374133397085,0.7855684138869979
339,0.00399576517195451,0.7855684138869979
340,0.00399576517195451,0.786929884275017
341,0.0040128410914927765,0.786929884275017
342,0.0040128410914927765,0.7872702518720218
343,0.004046992930569311,0.7872702518720218
344,0.004046992930569311,0.7879509870660313
345,0.004081144769645845,0.7879509870660313
346,0.004081144769645845,0.7882913546630361
347,0.00411529660872238,0.7882913546630361
348,0.00411529660872238,0.7889720898570456
349,0.004132372528260647,0.7889720898570456
350,0.004132372528260647,0.7893124574540503
351,0.004149448447798914,0.7893124574540503
352,0.004149448447798914,0.7896528250510552
353,0.004183600286875448,0.7896528250510552
354,0.004183600286875448,0.7899931926480599
355,0.0042006762064137155,0.7899931926480599
356,0.0042006762064137155,0.7916950306330838
357,0.004217752125951982,0.7916950306330838
358,0.004217752125951982,0.7923757658270932
359,0.0042689798845667835,0.7923757658270932
360,0.0042689798845667835,0.7930565010211028
361,0.004286055804105051,0.7930565010211028
362,0.004286055804105051,0.7937372362151123
363,0.004320207643181586,0.7937372362151123
364,0.004320207643181586,0.7940776038121171
365,0.004337283562719852,0.7940776038121171
366,0.004337283562719852,0.7944179714091218
367,0.004388511321334654,0.7944179714091218
368,0.004388511321334654,0.7947583390061266
369,0.004405587240872921,0.7947583390061266
370,0.004405587240872921,0.7950987066031314
371,0.004422663160411188,0.7950987066031314
372,0.004422663160411188,0.7954390742001362
373,0.0044568149994877225,0.7954390742001362
374,0.0044568149994877225,0.7961198093941457
375,0.004490966838564257,0.7961198093941457
376,0.004490966838564257,0.7971409121851599
377,0.004542194597179058,0.7971409121851599
378,0.004542194597179058,0.7995234853641934
379,0.004559270516717325,0.7995234853641934
380,0.004559270516717325,0.7998638529611981
381,0.004627574194870394,0.7998638529611981
382,0.004627574194870394,0.8008849557522124
383,0.004644650114408661,0.8008849557522124
384,0.004644650114408661,0.8036078965282505
385,0.004678801953485195,0.8036078965282505
386,0.004678801953485195,0.8049693669162695
387,0.004695877873023462,0.8049693669162695
388,0.004695877873023462,0.8056501021102791
389,0.004730029712099996,0.8056501021102791
390,0.004730029712099996,0.807351940095303
391,0.004747105631638264,0.807351940095303
392,0.004747105631638264,0.8076923076923077
393,0.0047812574707147976,0.8076923076923077
394,0.0047812574707147976,0.8080326752893124
395,0.004798333390253065,0.8080326752893124
396,0.004798333390253065,0.8083730428863172
397,0.0048324852293296,0.8083730428863172
398,0.0048324852293296,0.808713410483322
399,0.0048495611488678664,0.808713410483322
400,0.0048495611488678664,0.8097345132743363
401,0.004866637068406134,0.8097345132743363
402,0.004866637068406134,0.8104152484683458
403,0.004883712987944401,0.8104152484683458
404,0.004883712987944401,0.8107556160653506
405,0.004900788907482668,0.8107556160653506
406,0.004900788907482668,0.8114363512593601
407,0.0049690925856357366,0.8114363512593601
408,0.0049690925856357366,0.8117767188563648
409,0.005054472183327072,0.8117767188563648
410,0.005054472183327072,0.8124574540503744
411,0.005071548102865339,0.8124574540503744
412,0.005071548102865339,0.8134785568413887
413,0.005122775861480141,0.8134785568413887
414,0.005122775861480141,0.8138189244383934
415,0.005174003620094942,0.8138189244383934
416,0.005174003620094942,0.814499659632403
417,0.005208155459171477,0.814499659632403
418,0.005208155459171477,0.8151803948264126
419,0.005225231378709744,0.8151803948264126
420,0.005225231378709744,0.8155207624234173
421,0.00524230729824801,0.8155207624234173
422,0.00524230729824801,0.8162014976174268
423,0.005344762815477614,0.8162014976174268
424,0.005344762815477614,0.8172226004084411
425,0.0053618387350158805,0.8172226004084411
426,0.0053618387350158805,0.8175629680054459
427,0.005378914654554148,0.8175629680054459
428,0.005378914654554148,0.8199455411844793
429,0.005395990574092415,0.8199455411844793
430,0.005395990574092415,0.820285908781484
431,0.005498446091322017,0.820285908781484
432,0.005498446091322017,0.8209666439754936
433,0.005532597930398552,0.8209666439754936
434,0.005532597930398552,0.8213070115724983
435,0.0055496738499368195,0.8213070115724983
436,0.0055496738499368195,0.821647379169503
437,0.0056179775280898875,0.821647379169503
438,0.0056179775280898875,0.8219877467665079
439,0.005669205286704689,0.8219877467665079
440,0.005669205286704689,0.8223281143635126
441,0.005686281206242956,0.8223281143635126
442,0.005686281206242956,0.8226684819605173
443,0.005754584884396024,0.8226684819605173
444,0.005754584884396024,0.8236895847515316
445,0.0058058126430108265,0.8236895847515316
446,0.0058058126430108265,0.824710687542546
447,0.005822888562549093,0.824710687542546
448,0.005822888562549093,0.8250510551395507
449,0.00583996448208736,0.8250510551395507
450,0.00583996448208736,0.8257317903335603
451,0.005891192240702162,0.8257317903335603
452,0.005891192240702162,0.826072157930565
453,0.005908268160240429,0.826072157930565
454,0.005908268160240429,0.8264125255275698
455,0.005942419999316963,0.8264125255275698
456,0.005942419999316963,0.8267528931245746
457,0.00595949591885523,0.8267528931245746
458,0.00595949591885523,0.827433628318584
459,0.005993647757931765,0.827433628318584
460,0.005993647757931765,0.8281143635125936
461,0.006010723677470031,0.8281143635125936
462,0.006010723677470031,0.8284547311095983
463,0.006027799597008299,0.8284547311095983
464,0.006027799597008299,0.8287950987066032
465,0.006044875516546566,0.8287950987066032
466,0.006044875516546566,0.8291354663036079
467,0.0060619514360848335,0.8291354663036079
468,0.0060619514360848335,0.8294758339006126
469,0.006096103275161367,0.8294758339006126
470,0.006096103275161367,0.8301565690946222
471,0.0061302551142379015,0.8301565690946222
472,0.0061302551142379015,0.8304969366916269
473,0.006283938390082306,0.8304969366916269
474,0.006283938390082306,0.8315180394826412
475,0.006301014309620573,0.8315180394826412
476,0.006301014309620573,0.8321987746766508
477,0.006335166148697107,0.8321987746766508
478,0.006335166148697107,0.8325391422736556
479,0.006352242068235374,0.8325391422736556
480,0.006352242068235374,0.8328795098706603
481,0.006369317987773642,0.8328795098706603
482,0.006369317987773642,0.8339006126616746
483,0.006403469826850176,0.8339006126616746
484,0.006403469826850176,0.8342409802586793
485,0.0065742290222328475,0.8342409802586793
486,0.0065742290222328475,0.8349217154526889
487,0.006591304941771114,0.8349217154526889
488,0.006591304941771114,0.8352620830496936
489,0.006608380861309381,0.8352620830496936
490,0.006608380861309381,0.8356024506466985
491,0.00667668453946245,0.8356024506466985
492,0.00667668453946245,0.8359428182437032
493,0.006693760459000717,0.8359428182437032
494,0.006693760459000717,0.8362831858407079
495,0.006727912298077251,0.8362831858407079
496,0.006727912298077251,0.8369639210347175
497,0.00679621597623032,0.8369639210347175
498,0.00679621597623032,0.8373042886317222
499,0.006813291895768587,0.8373042886317222
500,0.006813291895768587,0.8386657590197413
501,0.0068303678153068545,0.8386657590197413
502,0.0068303678153068545,0.8390061266167461
503,0.006881595573921656,0.8390061266167461
504,0.006881595573921656,0.8393464942137508
505,0.006932823332536457,0.8393464942137508
506,0.006932823332536457,0.8396868618107556
507,0.006949899252074725,0.8396868618107556
508,0.006949899252074725,0.8400272294077604
509,0.00703527884976606,0.8400272294077604
510,0.00703527884976606,0.8407079646017699
511,0.0070865066083808615,0.8407079646017699
512,0.0070865066083808615,0.8410483321987747
513,0.007103582527919128,0.8410483321987747
514,0.007103582527919128,0.8413886997957795
515,0.007137734366995663,0.8413886997957795
516,0.007137734366995663,0.8424098025867938
517,0.0071548102865339296,0.8424098025867938
518,0.0071548102865339296,0.8427501701837985
519,0.007171886206072197,0.8427501701837985
520,0.007171886206072197,0.8434309053778081
521,0.007188962125610464,0.8434309053778081
522,0.007188962125610464,0.8437712729748128
523,0.0072231139646869984,0.8437712729748128
524,0.0072231139646869984,0.8441116405718175
525,0.007257265803763533,0.8441116405718175
526,0.007257265803763533,0.8444520081688224
527,0.0072743417233018,0.8444520081688224
528,0.0072743417233018,0.8447923757658271
529,0.007325569481916601,0.8447923757658271
530,0.007325569481916601,0.8451327433628318
531,0.007376797240531403,0.8451327433628318
532,0.007376797240531403,0.8458134785568414
533,0.007428024999146204,0.8458134785568414
534,0.007428024999146204,0.8461538461538461
535,0.007462176838222739,0.8461538461538461
536,0.007462176838222739,0.8464942137508509
537,0.0074792527577610055,0.8464942137508509
538,0.0074792527577610055,0.8471749489448605
539,0.007496328677299272,0.8471749489448605
540,0.007496328677299272,0.8475153165418652
541,0.007581708274990608,0.8475153165418652
542,0.007581708274990608,0.84785568413887
543,0.007667087872681944,0.84785568413887
544,0.007667087872681944,0.8481960517358748
545,0.007718315631296746,0.8481960517358748
546,0.007718315631296746,0.8492171545268891
547,0.007752467470373279,0.8492171545268891
548,0.007752467470373279,0.8498978897208985
549,0.007769543389911547,0.8498978897208985
550,0.007769543389911547,0.8505786249149081
551,0.007854922987602882,0.8505786249149081
552,0.007854922987602882,0.8509189925119128
553,0.007889074826679417,0.8509189925119128
554,0.007889074826679417,0.8512593601089177
555,0.00792322666575595,0.8512593601089177
556,0.00792322666575595,0.8515997277059224
557,0.007940302585294217,0.8515997277059224
558,0.007940302585294217,0.8519400953029271
559,0.00799153034390902,0.8519400953029271
560,0.00799153034390902,0.852280462899932
561,0.008025682182985553,0.852280462899932
562,0.008025682182985553,0.8526208304969367
563,0.008059834022062088,0.8526208304969367
564,0.008059834022062088,0.8533015656909462
565,0.008076909941600355,0.8533015656909462
566,0.008076909941600355,0.853641933287951
567,0.008145213619753424,0.853641933287951
568,0.008145213619753424,0.8539823008849557
569,0.008452580171442231,0.8539823008849557
570,0.008452580171442231,0.8543226684819605
571,0.0085208838495953,0.8543226684819605
572,0.0085208838495953,0.8553437712729748
573,0.008606263447286636,0.8553437712729748
574,0.008606263447286636,0.8556841388699796
575,0.008640415286363171,0.8556841388699796
576,0.008640415286363171,0.8560245064669844
577,0.008708718964516238,0.8560245064669844
578,0.008708718964516238,0.8567052416609938
579,0.008742870803592774,0.8567052416609938
580,0.008742870803592774,0.8570456092579987
581,0.00875994672313104,0.8570456092579987
582,0.00875994672313104,0.8573859768550034
583,0.008811174481745843,0.8573859768550034
584,0.008811174481745843,0.858066712049013
585,0.008845326320822376,0.858066712049013
586,0.008845326320822376,0.8584070796460177
587,0.00887947815989891,0.8584070796460177
588,0.00887947815989891,0.8587474472430224
589,0.008947781838051979,0.8587474472430224
590,0.008947781838051979,0.8590878148400273
591,0.009135616952972917,0.8590878148400273
592,0.009135616952972917,0.859428182437032
593,0.009152692872511185,0.859428182437032
594,0.009152692872511185,0.8597685500340367
595,0.009255148389740788,0.8597685500340367
596,0.009255148389740788,0.8601089176310415
597,0.009374679826508657,0.8601089176310415
598,0.009374679826508657,0.8618107556160653
599,0.009408831665585192,0.8618107556160653
600,0.009408831665585192,0.8621511232130701
601,0.009494211263276528,0.8621511232130701
602,0.009494211263276528,0.8624914908100749
603,0.009562514941429595,0.8624914908100749
604,0.009562514941429595,0.8628318584070797
605,0.009579590860967864,0.8628318584070797
606,0.009579590860967864,0.8631722260040844
607,0.00959666678050613,0.8631722260040844
608,0.00959666678050613,0.8635125936010892
609,0.009630818619582664,0.8635125936010892
610,0.009630818619582664,0.863852961198094
611,0.0096649704586592,0.863852961198094
612,0.0096649704586592,0.8641933287950987
613,0.009818653734503604,0.8641933287950987
614,0.009818653734503604,0.8645336963921034
615,0.00983572965404187,0.8645336963921034
616,0.00983572965404187,0.865214431586113
617,0.009852805573580137,0.865214431586113
618,0.009852805573580137,0.8655547991831177
619,0.009921109251733206,0.8655547991831177
620,0.009921109251733206,0.8658951667801226
621,0.009972337010348007,0.8658951667801226
622,0.009972337010348007,0.8662355343771273
623,0.010023564768962809,0.8662355343771273
624,0.010023564768962809,0.8672566371681416
625,0.010040640688501076,0.8672566371681416
626,0.010040640688501076,0.8679373723621511
627,0.010057716608039342,0.8679373723621511
628,0.010057716608039342,0.8686181075561606
629,0.010091868447115878,0.8686181075561606
630,0.010091868447115878,0.8689584751531654
631,0.01019432396434548,0.8689584751531654
632,0.01019432396434548,0.869639210347175
633,0.010211399883883747,0.869639210347175
634,0.010211399883883747,0.8699795779441797
635,0.010228475803422014,0.8699795779441797
636,0.010228475803422014,0.8706603131381893
637,0.010279703562036816,0.8706603131381893
638,0.010279703562036816,0.8716814159292036
639,0.010296779481575083,0.8716814159292036
640,0.010296779481575083,0.8720217835262083
641,0.01031385540111335,0.8720217835262083
642,0.01031385540111335,0.872362151123213
643,0.010365083159728151,0.872362151123213
644,0.010365083159728151,0.8730428863172226
645,0.010416310918342954,0.8730428863172226
646,0.010416310918342954,0.8733832539142273
647,0.010450462757419487,0.8733832539142273
648,0.010450462757419487,0.8744043567052416
649,0.01050169051603429,0.8744043567052416
650,0.01050169051603429,0.8750850918992512
651,0.010587070113725625,0.8750850918992512
652,0.010587070113725625,0.8754254594962559
653,0.010604146033263892,0.8754254594962559
654,0.010604146033263892,0.8761061946902655
655,0.01067244971141696,0.8761061946902655
656,0.01067244971141696,0.8764465622872702
657,0.010689525630955227,0.8764465622872702
658,0.010689525630955227,0.8778080326752893
659,0.010706601550493494,0.8778080326752893
660,0.010706601550493494,0.8784887678692989
661,0.010809057067723097,0.8784887678692989
662,0.010809057067723097,0.8788291354663036
663,0.010996892182644035,0.8788291354663036
664,0.010996892182644035,0.8791695030633083
665,0.01108227178033537,0.8791695030633083
666,0.01108227178033537,0.8795098706603132
667,0.011099347699873639,0.8795098706603132
668,0.011099347699873639,0.8798502382573179
669,0.011133499538950173,0.8798502382573179
670,0.011133499538950173,0.8801906058543226
671,0.01115057545848844,0.8801906058543226
672,0.01115057545848844,0.8805309734513275
673,0.011184727297564975,0.8805309734513275
674,0.011184727297564975,0.8815520762423418
675,0.011201803217103241,0.8815520762423418
676,0.011201803217103241,0.8818924438393465
677,0.011218879136641508,0.8818924438393465
678,0.011218879136641508,0.882573179033356
679,0.01132133465387111,0.882573179033356
680,0.01132133465387111,0.8832539142273655
681,0.011372562412485913,0.8832539142273655
682,0.011372562412485913,0.8835942818243703
683,0.011423790171100713,0.8835942818243703
684,0.011423790171100713,0.8839346494213751
685,0.011526245688330317,0.8839346494213751
686,0.011526245688330317,0.8842750170183798
687,0.01162870120555992,0.8842750170183798
688,0.01162870120555992,0.8846153846153846
689,0.011645777125098187,0.8846153846153846
690,0.011645777125098187,0.8849557522123894
691,0.011662853044636453,0.8849557522123894
692,0.011662853044636453,0.8852961198093942
693,0.01167992896417472,0.8852961198093942
694,0.01167992896417472,0.8856364874063989
695,0.011782384481404324,0.8856364874063989
696,0.011782384481404324,0.8859768550034037
697,0.011799460400942591,0.8859768550034037
698,0.011799460400942591,0.8863172226004085
699,0.011833612240019125,0.8863172226004085
700,0.011833612240019125,0.8866575901974132
701,0.01191899183771046,0.8866575901974132
702,0.01191899183771046,0.8869979577944179
703,0.012004371435401796,0.8869979577944179
704,0.012004371435401796,0.8873383253914228
705,0.0121580547112462,0.8873383253914228
706,0.0121580547112462,0.8876786929884275
707,0.012260510228475803,0.8876786929884275
708,0.012260510228475803,0.8880190605854322
709,0.01239711758478194,0.8880190605854322
710,0.01239711758478194,0.8883594281824371
711,0.012431269423858474,0.8883594281824371
712,0.012431269423858474,0.8886997957794418
713,0.01246542126293501,0.8886997957794418
714,0.01246542126293501,0.8893805309734514
715,0.012499573102011543,0.8893805309734514
716,0.012499573102011543,0.8897208985704561
717,0.012584952699702879,0.8897208985704561
718,0.012584952699702879,0.8900612661674608
719,0.012687408216932481,0.8900612661674608
720,0.012687408216932481,0.8904016337644656
721,0.012789863734162084,0.8904016337644656
722,0.012789863734162084,0.8907420013614704
723,0.012892319251391688,0.8907420013614704
724,0.012892319251391688,0.8917631041524847
725,0.012926471090468222,0.8917631041524847
726,0.012926471090468222,0.8921034717494895
727,0.012977698849083024,0.8921034717494895
728,0.012977698849083024,0.8924438393464942
729,0.01299477476862129,0.8924438393464942
730,0.01299477476862129,0.892784206943499
731,0.013011850688159557,0.892784206943499
732,0.013011850688159557,0.8931245745405038
733,0.01304600252723609,0.8931245745405038
734,0.01304600252723609,0.8934649421375085
735,0.013080154366312626,0.8934649421375085
736,0.013080154366312626,0.8938053097345132
737,0.013148458044465695,0.8938053097345132
738,0.013148458044465695,0.8944860449285228
739,0.01323383764215703,0.8944860449285228
740,0.01323383764215703,0.8948264125255275
741,0.013336293159386633,0.8948264125255275
742,0.013336293159386633,0.8951667801225324
743,0.013421672757077969,0.8951667801225324
744,0.013421672757077969,0.8955071477195371
745,0.01347290051569277,0.8955071477195371
746,0.01347290051569277,0.8958475153165418
747,0.013558280113384105,0.8958475153165418
748,0.013558280113384105,0.8961878829135467
749,0.013609507871998907,0.8961878829135467
750,0.013609507871998907,0.8965282505105514
751,0.013660735630613709,0.8965282505105514
752,0.013660735630613709,0.8982300884955752
753,0.013848570745534647,0.8982300884955752
754,0.013848570745534647,0.89857045609258
755,0.013985178101840785,0.89857045609258
756,0.013985178101840785,0.8989108236895847
757,0.014036405860455585,0.8989108236895847
758,0.014036405860455585,0.8992511912865895
759,0.01419008913629999,0.8992511912865895
760,0.01419008913629999,0.8995915588835943
761,0.014258392814453059,0.8995915588835943
762,0.014258392814453059,0.9006126616746086
763,0.014343772412144394,0.9006126616746086
764,0.014343772412144394,0.9009530292716134
765,0.014360848331682661,0.9009530292716134
766,0.014360848331682661,0.9012933968686181
767,0.01442915200983573,0.9012933968686181
768,0.01442915200983573,0.9019741320626277
769,0.0145486834466036,0.9019741320626277
770,0.0145486834466036,0.9026548672566371
771,0.014616987124756668,0.9026548672566371
772,0.014616987124756668,0.902995234853642
773,0.014634063044294935,0.902995234853642
774,0.014634063044294935,0.9033356024506467
775,0.014770670400601073,0.9033356024506467
776,0.014770670400601073,0.9036759700476514
777,0.014856049998292408,0.9036759700476514
778,0.014856049998292408,0.9040163376446563
779,0.014907277756907209,0.9040163376446563
780,0.014907277756907209,0.904356705241661
781,0.014924353676445477,0.904356705241661
782,0.014924353676445477,0.9046970728386657
783,0.014992657354598544,0.9046970728386657
784,0.014992657354598544,0.9050374404356705
785,0.015060961032751613,0.9050374404356705
786,0.015060961032751613,0.9053778080326753
787,0.015129264710904682,0.9053778080326753
788,0.015129264710904682,0.90571817562968
789,0.015146340630442949,0.90571817562968
790,0.015146340630442949,0.9060585432266848
791,0.01531709982582562,0.9060585432266848
792,0.01531709982582562,0.9063989108236896
793,0.015453707182131758,0.9063989108236896
794,0.015453707182131758,0.9067392784206944
795,0.015487859021208292,0.9067392784206944
796,0.015487859021208292,0.9070796460176991
797,0.015522010860284827,0.9070796460176991
798,0.015522010860284827,0.9081007488087134
799,0.015573238618899627,0.9081007488087134
800,0.015573238618899627,0.9084411164057182
801,0.015658618216590963,0.9084411164057182
802,0.015658618216590963,0.9091218515997277
803,0.015692770055667497,0.9091218515997277
804,0.015692770055667497,0.9094622191967324
805,0.015761073733820567,0.9094622191967324
806,0.015761073733820567,0.9098025867937373
807,0.015778149653358834,0.9098025867937373
808,0.015778149653358834,0.910142954390742
809,0.015948908848741505,0.910142954390742
810,0.015948908848741505,0.9104833219877467
811,0.015965984768279772,0.9104833219877467
812,0.015965984768279772,0.9108236895847516
813,0.01603428844643284,0.9108236895847516
814,0.01603428844643284,0.9111640571817563
815,0.016051364365971106,0.9111640571817563
816,0.016051364365971106,0.911504424778761
817,0.016170895802738977,0.911504424778761
818,0.016170895802738977,0.9118447923757659
819,0.01646118643488952,0.9118447923757659
820,0.01646118643488952,0.9121851599727706
821,0.016614869710733924,0.9121851599727706
822,0.016614869710733924,0.9125255275697753
823,0.016717325227963525,0.9125255275697753
824,0.016717325227963525,0.9128658951667801
825,0.01676855298657833,0.9128658951667801
826,0.01676855298657833,0.9132062627637849
827,0.01687100850380793,0.9132062627637849
828,0.01687100850380793,0.9142273655547992
829,0.016905160342884463,0.9142273655547992
830,0.016905160342884463,0.914567733151804
831,0.0169905399405758,0.914567733151804
832,0.0169905399405758,0.9149081007488087
833,0.01711007137734367,0.9149081007488087
834,0.01711007137734367,0.9152484683458135
835,0.017127147296881938,0.9152484683458135
836,0.017127147296881938,0.9155888359428183
837,0.017144223216420205,0.9155888359428183
838,0.017144223216420205,0.9166099387338326
839,0.017366210170417676,0.9166099387338326
840,0.017366210170417676,0.9169503063308373
841,0.017554045285338615,0.9169503063308373
842,0.017554045285338615,0.917290673927842
843,0.01765650080256822,0.917290673927842
844,0.01765650080256822,0.9176310415248469
845,0.01775895631979782,0.9176310415248469
846,0.01775895631979782,0.9179714091218516
847,0.017980943273795295,0.9179714091218516
848,0.017980943273795295,0.9186521443158612
849,0.01799801919333356,0.9186521443158612
850,0.01799801919333356,0.9189925119128659
851,0.018049246951948362,0.9189925119128659
852,0.018049246951948362,0.9193328795098706
853,0.018083398791024895,0.9193328795098706
854,0.018083398791024895,0.9196732471068755
855,0.018373689423175438,0.9196732471068755
856,0.018373689423175438,0.9203539823008849
857,0.018390765342713705,0.9203539823008849
858,0.018390765342713705,0.9206943498978897
859,0.01840784126225197,0.9206943498978897
860,0.01840784126225197,0.9210347174948945
861,0.018578600457634643,0.9210347174948945
862,0.018578600457634643,0.921715452688904
863,0.01871520781394078,0.921715452688904
864,0.01871520781394078,0.9220558202859088
865,0.018800587411632118,0.9220558202859088
866,0.018800587411632118,0.9223961878829136
867,0.018885967009323452,0.9223961878829136
868,0.018885967009323452,0.9227365554799183
869,0.019005498446091323,0.9227365554799183
870,0.019005498446091323,0.9230769230769231
871,0.019056726204706123,0.9230769230769231
872,0.019056726204706123,0.9234172906739279
873,0.019176257641473994,0.9234172906739279
874,0.019176257641473994,0.9237576582709326
875,0.019312864997780132,0.9237576582709326
876,0.019312864997780132,0.9240980258679373
877,0.0193299409173184,0.9240980258679373
878,0.0193299409173184,0.9244383934649422
879,0.019517776032239337,0.9244383934649422
880,0.019517776032239337,0.9247787610619469
881,0.019637307469007208,0.9247787610619469
882,0.019637307469007208,0.9251191286589516
883,0.01967145930808374,0.9251191286589516
884,0.01967145930808374,0.9254594962559565
885,0.01979099074485161,0.9254594962559565
886,0.01979099074485161,0.9257998638529612
887,0.02003005361838735,0.9257998638529612
888,0.02003005361838735,0.9261402314499659
889,0.020405723848229227,0.9261402314499659
890,0.020405723848229227,0.9264805990469708
891,0.020661862641303236,0.9264805990469708
892,0.020661862641303236,0.9268209666439755
893,0.020678938560841503,0.9268209666439755
894,0.020678938560841503,0.9271613342409802
895,0.02096922919299204,0.9271613342409802
896,0.02096922919299204,0.927501701837985
897,0.021020456951606845,0.927501701837985
898,0.021020456951606845,0.9278420694349898
899,0.021071684710221646,0.9278420694349898
900,0.021071684710221646,0.9285228046289993
901,0.021447354940063522,0.9285228046289993
902,0.021447354940063522,0.9288631722260041
903,0.021925480687135002,0.9288631722260041
904,0.021925480687135002,0.9292035398230089
905,0.021976708445749803,0.9292035398230089
906,0.021976708445749803,0.9295439074200136
907,0.02199378436528807,0.9295439074200136
908,0.02199378436528807,0.9298842750170184
909,0.022079163962979407,0.9298842750170184
910,0.022079163962979407,0.9305650102110279
911,0.02211331580205594,0.9305650102110279
912,0.02211331580205594,0.9309053778080327
913,0.02216454356067074,0.9309053778080327
914,0.02216454356067074,0.9312457454050375
915,0.022284074997438612,0.9312457454050375
916,0.022284074997438612,0.9315861130020422
917,0.02254021379051262,0.9315861130020422
918,0.02254021379051262,0.9319264805990469
919,0.02264266930774222,0.9319264805990469
920,0.02264266930774222,0.9322668481960518
921,0.022676821146818755,0.9322668481960518
922,0.022676821146818755,0.9326072157930565
923,0.023086643215737168,0.9326072157930565
924,0.023086643215737168,0.9332879509870661
925,0.0231207950548137,0.9332879509870661
926,0.0231207950548137,0.9336283185840708
927,0.02313787097435197,0.9336283185840708
928,0.02313787097435197,0.9339686861810755
929,0.023445237526040778,0.9339686861810755
930,0.023445237526040778,0.9343090537780804
931,0.023598920801885182,0.9343090537780804
932,0.023598920801885182,0.9346494213750851
933,0.023718452238653053,0.9346494213750851
934,0.023718452238653053,0.9349897889720898
935,0.023752604077729587,0.9349897889720898
936,0.023752604077729587,0.9353301565690946
937,0.024128274307571463,0.9353301565690946
938,0.024128274307571463,0.9356705241660994
939,0.024179502066186263,0.9356705241660994
940,0.024179502066186263,0.9360108917631041
941,0.024213653905262797,0.9360108917631041
942,0.024213653905262797,0.9363512593601089
943,0.024469792698336806,0.9363512593601089
944,0.024469792698336806,0.9366916269571137
945,0.02457224821556641,0.9366916269571137
946,0.02457224821556641,0.9370319945541185
947,0.024606400054642943,0.9370319945541185
948,0.024606400054642943,0.9373723621511232
949,0.02467470373279601,0.9373723621511232
950,0.02467470373279601,0.937712729748128
951,0.025084525801714424,0.937712729748128
952,0.025084525801714424,0.9380530973451328
953,0.025135753560329224,0.9380530973451328
954,0.025135753560329224,0.9383934649421375
955,0.02520405723848229,0.9383934649421375
956,0.02520405723848229,0.9387338325391422
957,0.025357740514326696,0.9387338325391422
958,0.025357740514326696,0.9390742001361471
959,0.025682182985553772,0.9390742001361471
960,0.025682182985553772,0.9394145677331518
961,0.02581879034185991,0.9394145677331518
962,0.02581879034185991,0.9397549353301565
963,0.026262764249854853,0.9397549353301565
964,0.026262764249854853,0.9400953029271614
965,0.02629691608893139,0.9400953029271614
966,0.02629691608893139,0.9404356705241661
967,0.026450599364775795,0.9404356705241661
968,0.026450599364775795,0.9407760381211708
969,0.0267067381578498,0.9407760381211708
970,0.0267067381578498,0.9411164057181757
971,0.026792117755541137,0.9411164057181757
972,0.026792117755541137,0.9414567733151804
973,0.02682626959461767,0.9414567733151804
974,0.02682626959461767,0.9417971409121851
975,0.026911649192309005,0.9417971409121851
976,0.026911649192309005,0.94213750850919
977,0.02694580103138554,0.94213750850919
978,0.02694580103138554,0.9424778761061947
979,0.02706533246815341,0.9424778761061947
980,0.02706533246815341,0.9428182437031994
981,0.027219015743997814,0.9428182437031994
982,0.027219015743997814,0.9431586113002042
983,0.02723609166353608,0.9431586113002042
984,0.02723609166353608,0.943498978897209
985,0.027321471261227418,0.943498978897209
986,0.027321471261227418,0.9438393464942137
987,0.02735562310030395,0.9438393464942137
988,0.02735562310030395,0.9441797140912185
989,0.027628837812916227,0.9441797140912185
990,0.027628837812916227,0.9445200816882233
991,0.028038659881834637,0.9445200816882233
992,0.028038659881834637,0.944860449285228
993,0.028465557870291314,0.944860449285228
994,0.028465557870291314,0.9452008168822328
995,0.028568013387520918,0.9452008168822328
996,0.028568013387520918,0.9455411844792376
997,0.028772924421980123,0.9455411844792376
998,0.028772924421980123,0.9458815520762424
999,0.028807076261056656,0.9458815520762424
1000,0.028807076261056656,0.9462219196732471
1001,0.028841228100133193,0.9462219196732471
1002,0.028841228100133193,0.9465622872702518
1003,0.028892455858747994,0.9465622872702518
1004,0.028892455858747994,0.9469026548672567
1005,0.028977835456439328,0.9469026548672567
1006,0.028977835456439328,0.9472430224642614
1007,0.029643796318431746,0.9472430224642614
1008,0.029643796318431746,0.947923757658271
1009,0.02979747959427615,0.947923757658271
1010,0.02979747959427615,0.9482641252552757
1011,0.029814555513814418,0.9482641252552757
1012,0.029814555513814418,0.9486044928522804
1013,0.029917011031044022,0.9486044928522804
1014,0.029917011031044022,0.9489448604492853
1015,0.03015607390457976,0.9489448604492853
1016,0.03015607390457976,0.94928522804629
1017,0.030207301663194564,0.94928522804629
1018,0.030207301663194564,0.9496255956432947
1019,0.03046344045626857,0.9496255956432947
1020,0.03046344045626857,0.9499659632402995
1021,0.03058297189303644,0.9499659632402995
1022,0.03058297189303644,0.9503063308373043
1023,0.03070250332980431,0.9503063308373043
1024,0.03070250332980431,0.950646698434309
1025,0.030804958847033912,0.950646698434309
1026,0.030804958847033912,0.9509870660313138
1027,0.03099279396195485,0.9509870660313138
1028,0.03099279396195485,0.9513274336283186
1029,0.03106109764010792,0.9513274336283186
1030,0.03106109764010792,0.9516678012253234
1031,0.031317236433181926,0.9516678012253234
1032,0.031317236433181926,0.9520081688223281
1033,0.03141969195041153,0.9520081688223281
1034,0.03141969195041153,0.9523485364193329
1035,0.0314879956285646,0.9523485364193329
1036,0.0314879956285646,0.9526889040163377
1037,0.03188074177794474,0.9526889040163377
1038,0.03188074177794474,0.9530292716133424
1039,0.031931969536559544,0.9530292716133424
1040,0.031931969536559544,0.9533696392103471
1041,0.03232471568593969,0.9533696392103471
1042,0.03232471568593969,0.953710006807352
1043,0.03264915815716676,0.953710006807352
1044,0.03264915815716676,0.9540503744043567
1045,0.0327857655134729,0.9540503744043567
1046,0.0327857655134729,0.9543907420013614
1047,0.032973600628393836,0.9543907420013614
1048,0.032973600628393836,0.9547311095983663
1049,0.03346880229500358,0.9547311095983663
1050,0.03346880229500358,0.955071477195371
1051,0.03363956149038626,0.955071477195371
1052,0.03363956149038626,0.9554118447923757
1053,0.03369078924900106,0.9554118447923757
1054,0.03369078924900106,0.9557522123893806
1055,0.03394692804207507,0.9557522123893806
1056,0.03394692804207507,0.9560925799863853
1057,0.03396400396161333,0.9560925799863853
1058,0.03396400396161333,0.95643294758339
1059,0.034015231720228134,0.95643294758339
1060,0.034015231720228134,0.9567733151803949
1061,0.03558621631774871,0.9567733151803949
1062,0.03558621631774871,0.9571136827773996
1063,0.035910658788975786,0.9571136827773996
1064,0.035910658788975786,0.9574540503744043
1065,0.036200949421126324,0.9574540503744043
1066,0.036200949421126324,0.9581347855684139
1067,0.03659369557050647,0.9581347855684139
1068,0.03659369557050647,0.9584751531654186
1069,0.03688398620265701,0.9584751531654186
1070,0.03688398620265701,0.9588155207624234
1071,0.03690106212219528,0.9588155207624234
1072,0.03690106212219528,0.9591558883594282
1073,0.03722550459342235,0.9591558883594282
1074,0.03722550459342235,0.959496255956433
1075,0.03729380827157543,0.959496255956433
1076,0.03729380827157543,0.9598366235534377
1077,0.03732796011065196,0.9598366235534377
1078,0.03732796011065196,0.9601769911504425
1079,0.037584098903725965,0.9601769911504425
1080,0.037584098903725965,0.9605173587474473
1081,0.03790854137495304,0.9605173587474473
1082,0.03790854137495304,0.960857726344452
1083,0.03833543936340972,0.960857726344452
1084,0.03833543936340972,0.9611980939414567
1085,0.03845497080017759,0.9611980939414567
1086,0.03845497080017759,0.9615384615384616
1087,0.03857450223694546,0.9615384615384616
1088,0.03857450223694546,0.9618788291354663
1089,0.038625729995560264,0.9618788291354663
1090,0.038625729995560264,0.962219196732471
1091,0.03869403367371333,0.962219196732471
1092,0.03869403367371333,0.9625595643294759
1093,0.03939414637478228,0.9625595643294759
1094,0.03939414637478228,0.9628999319264806
1095,0.03959905740924149,0.9628999319264806
1096,0.03959905740924149,0.9632402995234853
1097,0.0402650182712339,0.9632402995234853
1098,0.0402650182712339,0.9635806671204902
1099,0.0414091048802978,0.9635806671204902
1100,0.0414091048802978,0.9639210347174949
1101,0.04210921758136676,0.9639210347174949
1102,0.04210921758136676,0.9642614023144996
1103,0.042194597179058095,0.9642614023144996
1104,0.042194597179058095,0.9646017699115044
1105,0.04275810252382091,0.9646017699115044
1106,0.04275810252382091,0.9649421375085092
1107,0.042997165397356645,0.9649421375085092
1108,0.042997165397356645,0.9652825051055139
1109,0.04357774666165773,0.9652825051055139
1110,0.04357774666165773,0.9656228727025187
1111,0.04368020217888733,0.9656228727025187
1112,0.04368020217888733,0.9659632402995235
1113,0.04429493528226495,0.9659632402995235
1114,0.04429493528226495,0.9663036078965282
1115,0.045951299477476865,0.9663036078965282
1116,0.045951299477476865,0.966643975493533
1117,0.0459854513165534,0.966643975493533
1118,0.0459854513165534,0.9669843430905378
1119,0.04745398039684437,0.9669843430905378
1120,0.04745398039684437,0.9673247106875426
1121,0.04830777637375773,0.9673247106875426
1122,0.04830777637375773,0.9676650782845473
1123,0.0483760800519108,0.9676650782845473
1124,0.0483760800519108,0.9680054458815521
1125,0.048683446603599606,0.9680054458815521
1126,0.048683446603599606,0.9683458134785569
1127,0.05028858304019671,0.9683458134785569
1128,0.05028858304019671,0.9686861810755616
1129,0.05040811447696458,0.9686861810755616
1130,0.05040811447696458,0.9690265486725663
1131,0.05047641815511765,0.9690265486725663
1132,0.05047641815511765,0.9693669162695712
1133,0.05144974556879888,0.9693669162695712
1134,0.05144974556879888,0.9697072838665759
1135,0.05184249171817902,0.9697072838665759
1136,0.05184249171817902,0.9700476514635806
1137,0.05196202315494689,0.9700476514635806
1138,0.05196202315494689,0.9703880190605855
1139,0.05225231378709744,0.9703880190605855
1140,0.05225231378709744,0.9707283866575902
1141,0.05652129367166422,0.9707283866575902
1142,0.05652129367166422,0.9710687542545949
1143,0.05664082510843209,0.9710687542545949
1144,0.05664082510843209,0.9714091218515998
1145,0.05667497694750862,0.9714091218515998
1146,0.05667497694750862,0.9717494894486045
1147,0.0569481916601209,0.9717494894486045
1148,0.0569481916601209,0.9720898570456092
1149,0.0571018749359653,0.9720898570456092
1150,0.0571018749359653,0.972430224642614
1151,0.057870291315187325,0.972430224642614
1152,0.057870291315187325,0.9734513274336283
1153,0.05937297223455483,0.9734513274336283
1154,0.05937297223455483,0.9737916950306331
1155,0.059765718383934976,0.9737916950306331
1156,0.059765718383934976,0.9741320626276379
1157,0.06022676821146819,0.9741320626276379
1158,0.06022676821146819,0.9744724302246426
1159,0.06031214780915952,0.9744724302246426
1160,0.06031214780915952,0.9748127978216474
1161,0.06140500665960862,0.9748127978216474
1162,0.06140500665960862,0.9751531654186522
1163,0.06219049895836891,0.9751531654186522
1164,0.06219049895836891,0.9754935330156569
1165,0.0630784467743588,0.9754935330156569
1166,0.0630784467743588,0.9758339006126616
1167,0.06343704108466242,0.9758339006126616
1168,0.06343704108466242,0.9761742682096665
1169,0.06386393907311909,0.9761742682096665
1170,0.06386393907311909,0.9765146358066712
1171,0.06490557016495338,0.9765146358066712
1172,0.06490557016495338,0.9768550034036759
1173,0.06521293671664219,0.9768550034036759
1174,0.06521293671664219,0.9771953710006808
1175,0.06618626413032341,0.9771953710006808
1176,0.06618626413032341,0.9775357385976855
1177,0.06654485844062703,0.9775357385976855
1178,0.06654485844062703,0.9778761061946902
1179,0.06709128786585157,0.9778761061946902
1180,0.06709128786585157,0.9782164737916951
1181,0.06733035073938731,0.9782164737916951
1182,0.06733035073938731,0.9785568413886998
1183,0.06803046344045627,0.9785568413886998
1184,0.06803046344045627,0.9788972089857045
1185,0.06804753935999454,0.9788972089857045
1186,0.06804753935999454,0.9792375765827094
1187,0.06927700556674977,0.9792375765827094
1188,0.06927700556674977,0.9795779441797141
1189,0.070250332980431,0.9795779441797141
1190,0.070250332980431,0.9799183117767188
1191,0.07077968648611728,0.9799183117767188
1192,0.07077968648611728,0.9802586793737236
1193,0.07098459752057648,0.9802586793737236
1194,0.07098459752057648,0.9805990469707284
1195,0.07194084901471945,0.9805990469707284
1196,0.07194084901471945,0.9809394145677331
1197,0.0729483282674772,0.9809394145677331
1198,0.0729483282674772,0.9812797821647379
1199,0.07318739114101294,0.9812797821647379
1200,0.07318739114101294,0.9816201497617427
1201,0.0739387316006967,0.9816201497617427
1202,0.0739387316006967,0.9819605173587475
1203,0.07682456200266384,0.9819605173587475
1204,0.07682456200266384,0.9823008849557522
1205,0.07759297838188586,0.9823008849557522
1206,0.07759297838188586,0.982641252552757
1207,0.0786687613127967,0.982641252552757
1208,0.0786687613127967,0.9829816201497618
1209,0.0800177589563198,0.9829816201497618
1210,0.0800177589563198,0.9833219877467665
1211,0.08124722516307503,0.9833219877467665
1212,0.08124722516307503,0.9836623553437712
1213,0.08179365458829958,0.9836623553437712
1214,0.08179365458829958,0.9840027229407761
1215,0.08218640073767973,0.9840027229407761
1216,0.08218640073767973,0.9843430905377808
1217,0.08257914688705986,0.9843430905377808
1218,0.08257914688705986,0.9846834581347855
1219,0.08384276493289164,0.9846834581347855
1220,0.08384276493289164,0.9850238257317904
1221,0.0839110686110447,0.9850238257317904
1222,0.0839110686110447,0.9853641933287951
1223,0.08737748027731293,0.9853641933287951
1224,0.08737748027731293,0.9857045609257998
1225,0.09063898090912195,0.9857045609257998
1226,0.09063898090912195,0.9860449285228047
1227,0.0933711280352447,0.9860449285228047
1228,0.0933711280352447,0.9863852961198094
1229,0.09376387418462484,0.9863852961198094
1230,0.09376387418462484,0.9867256637168141
1231,0.09386632970185445,0.9867256637168141
1232,0.09386632970185445,0.9870660313138189
1233,0.09651309723028585,0.9870660313138189
1234,0.09654724906936238,0.9870660313138189
1235,0.0970595266555104,0.9870660313138189
1236,0.0970595266555104,0.9874063989108237
1237,0.09738396912673747,0.9874063989108237
1238,0.09738396912673747,0.9877467665078284
1239,0.09813530958642123,0.9877467665078284
1240,0.09813530958642123,0.9880871341048332
1241,0.0984597520576483,0.9880871341048332
1242,0.0984597520576483,0.988427501701838
1243,0.09890372596564324,0.988427501701838
1244,0.09890372596564324,0.9887678692988427
1245,0.09929647211502339,0.9887678692988427
1246,0.09933062395409993,0.9887678692988427
1247,0.09968921826440354,0.9887678692988427
1248,0.09968921826440354,0.9891082368958475
1249,0.10127727878146238,0.9891082368958475
1250,0.10127727878146238,0.9894486044928523
1251,0.10153341757453639,0.9894486044928523
1252,0.10153341757453639,0.989788972089857
1253,0.10167002493084253,0.989788972089857
1254,0.10167002493084253,0.9901293396868618
1255,0.10395819814897032,0.9901293396868618
1256,0.10395819814897032,0.9904697072838666
1257,0.10399234998804685,0.9904697072838666
1258,0.10399234998804685,0.9908100748808714
1259,0.10723677470031762,0.9908100748808714
1260,0.10723677470031762,0.9911504424778761
1261,0.1089614425736826,0.9911504424778761
1262,0.1089614425736826,0.9914908100748808
1263,0.11003722550459342,0.9914908100748808
1264,0.11007137734366995,0.9914908100748808
1265,0.11584303814760424,0.9914908100748808
1266,0.11584303814760424,0.9918311776718857
1267,0.116338239814214,0.9918311776718857
1268,0.116338239814214,0.9921715452688904
1269,0.11787507257265804,0.9921715452688904
1270,0.11787507257265804,0.9925119128658951
1271,0.11857518527372699,0.9925119128658951
1272,0.11857518527372699,0.9928522804629
1273,0.12251972268706669,0.9928522804629
1274,0.12251972268706669,0.9931926480599047
1275,0.1262593490659472,0.9931926480599047
1276,0.12629350090502373,0.9931926480599047
1277,0.12847921860592193,0.9931926480599047
1278,0.12847921860592193,0.9935330156569094
1279,0.12868412964038115,0.9935330156569094
1280,0.12868412964038115,0.9938733832539143
1281,0.13643659711075443,0.9938733832539143
1282,0.13643659711075443,0.994213750850919
1283,0.13694887469690242,0.994213750850919
1284,0.13694887469690242,0.9945541184479237
1285,0.14092756394931866,0.9945541184479237
1286,0.1409617157883952,0.9945541184479237
1287,0.1416959803285407,0.9945541184479237
1288,0.1416959803285407,0.9948944860449285
1289,0.1420545746388443,0.9948944860449285
1290,0.1420545746388443,0.9952348536419333
1291,0.14514531607527065,0.9952348536419333
1292,0.14514531607527065,0.995575221238938
1293,0.15569823434991975,0.995575221238938
1294,0.15569823434991975,0.9959155888359428
1295,0.15938663297018543,0.9959155888359428
1296,0.15942078480926197,0.9959155888359428
1297,0.16287012055599195,0.9959155888359428
1298,0.16287012055599195,0.9962559564329476
1299,0.1645435606707421,0.9962559564329476
1300,0.16457771250981865,0.9962559564329476
1301,0.1675147706704006,0.9962559564329476
1302,0.1675147706704006,0.9965963240299524
1303,0.16910283118745945,0.9965963240299524
1304,0.16910283118745945,0.9969366916269571
1305,0.176360096991223,0.9969366916269571
1306,0.176360096991223,0.9972770592239619
1307,0.17919469963457532,0.9972770592239619
1308,0.17919469963457532,0.9976174268209667
1309,0.18144872101362658,0.9976174268209667
1310,0.18144872101362658,0.9979577944179714
1311,0.19099416003551792,0.9979577944179714
1312,0.19102831187459446,0.9979577944179714
1313,0.19205286704689048,0.9979577944179714
1314,0.19208701888596702,0.9979577944179714
1315,0.1933847887708753,0.9979577944179714
1316,0.19341894060995185,0.9979577944179714
1317,0.20062497865510057,0.9979577944179714
1318,0.20062497865510057,0.9982981620149761
1319,0.2223967760663912,0.9982981620149761
1320,0.2223967760663912,0.998638529611981
1321,0.22359209043406988,0.998638529611981
1322,0.2236262422731464,0.998638529611981
1323,0.23004678801953485,0.998638529611981
1324,0.2300809398586114,0.998638529611981
1325,0.2395409992828114,0.998638529611981
1326,0.2395751511218879,0.998638529611981
1327,0.2403606434206482,0.998638529611981
1328,0.24039479525972474,0.998638529611981
1329,0.24579078583381714,0.998638529611981
1330,0.24582493767289368,0.998638529611981
1331,0.2461323042245825,0.998638529611981
1332,0.24616645606365903,0.998638529611981
1333,0.27089238755506984,0.998638529611981
1334,0.27092653939414635,0.998638529611981
1335,0.2770567945083843,0.998638529611981
1336,0.2770909463474608,0.998638529611981
1337,0.304207506574229,0.998638529611981
1338,0.3042416584133056,0.998638529611981
1339,0.3061029336429767,0.998638529611981
1340,0.3061370854820532,0.998638529611981
1341,0.3250059765718384,0.998638529611981
1342,0.3250059765718384,0.9989788972089857
1343,0.3468802295003586,0.9989788972089857
1344,0.34691438133943514,0.9989788972089857
1345,0.3516444110515351,0.9989788972089857
1346,0.35167856289061167,0.9989788972089857
1347,0.3536422936375124,0.9989788972089857
1348,0.3536422936375124,0.9993192648059904
1349,0.3539325842696629,0.9993192648059904
1350,0.35396673610873947,0.9993192648059904
1351,0.3549742153614972,0.9993192648059904
1352,0.35500836720057377,0.9993192648059904
1353,0.35973839691267373,0.9993192648059904
1354,0.3597725487517503,0.9993192648059904
1355,0.36083125576312286,0.9993192648059904
1356,0.3608654076021994,0.9993192648059904
1357,0.37486766162357843,0.9993192648059904
1358,0.37486766162357843,0.9996596324029953
1359,0.3837129879444008,0.9996596324029953
1360,0.38374713978347735,0.9996596324029953
1361,0.3984153546668488,0.9996596324029953
1362,0.3984153546668488,1.0
1363,0.4093268672518015,1.0
1364,0.409361019090878,1.0
1365,0.41263959564222535,1.0
1366,0.41267374748130187,1.0
1367,0.4134933916191387,1.0
1368,0.41352754345821524,1.0
1369,0.4144667190328199,1.0
1370,0.41450087087189647,1.0
1371,0.4154058946074246,1.0
1372,0.4154400464465011,1.0
1373,0.4177282196646289,1.0
1374,0.4177623715037055,1.0
1375,0.429237389433421,1.0
1376,0.4292715412724975,1.0
1377,0.430962057306786,1.0
1378,0.4309962091458625,1.0
1379,0.446176701615382,1.0
1380,0.44621085345445854,1.0
1381,0.44709880127044843,1.0
1382,0.44713295310952494,1.0
1383,0.45324613230422456,1.0
1384,0.4532802841433011,1.0
1385,0.45582459615450294,1.0
1386,0.45585874799357945,1.0
1387,0.462859875004269,1.0
1388,0.4628940268433455,1.0
1389,0.47062941839418054,1.0
1390,0.47066357023325706,1.0
1391,0.4713295310952495,1.0
1392,0.471363682934326,1.0
1393,0.483060687818039,1.0
1394,0.4830948396571155,1.0
1395,0.4836924968409549,1.0
1396,0.4837266486800314,1.0
1397,0.4854000887947816,1.0
1398,0.48543424063385815,1.0
1399,0.4982924080461733,1.0
1400,0.4983265598852498,1.0
1401,0.5007171886206072,1.0
1402,0.5007513404596837,1.0
1403,0.5097845018954271,1.0
1404,0.5098186537345036,1.0
1405,0.5369693658003484,1.0
1406,0.5370035176394249,1.0
1407,0.5383866671220245,1.0
1408,0.538420818961101,1.0
1409,0.5498446091322018,1.0
1410,0.5498787609712783,1.0
1411,0.5532085652812404,1.0
1412,0.5532427171203169,1.0
1413,0.5669717564290837,1.0
1414,0.5670059082681602,1.0
1415,0.5690550186127523,1.0
1416,0.5690891704518288,1.0
1417,0.5738362760834671,1.0
1418,0.5738704279225436,1.0
1419,0.57479252757761,1.0
1420,0.5748266794166866,1.0
1421,0.5777637375772685,1.0
1422,0.577797889416345,1.0
1423,0.5835012465421263,1.0
1424,0.5835353983812028,1.0
1425,0.5836207779788941,1.0
1426,0.5836549298179707,1.0
1427,0.5844916498753457,1.0
1428,0.5845258017144224,1.0
1429,0.5861138622314812,1.0
1430,0.5861480140705577,1.0
1431,0.5878726819439227,1.0
1432,0.5879068337829992,1.0
1433,0.5890167685529866,1.0
1434,0.5890509203920631,1.0
1435,0.594925036713227,1.0
1436,0.5949591885523036,1.0
1437,0.5960691233222909,1.0
1438,0.5961032751613674,1.0
1439,0.599842901540248,1.0
1440,0.5998770533793245,1.0
1441,0.6001844199310132,1.0
1442,0.6002185717700899,1.0
1443,0.6029677948157508,1.0
1444,0.6030019466548273,1.0
1445,0.6056828660223353,1.0
1446,0.6057170178614119,1.0
1447,0.6084320890679963,1.0
1448,0.6084662409070728,1.0
1449,0.6098152385505959,1.0
1450,0.6098493903896725,1.0
1451,0.619275297974796,1.0
1452,0.6193094498138725,1.0
1453,0.6303746456746696,1.0
1454,0.6304087975137461,1.0
1455,0.6314333526860422,1.0
1456,0.6314675045251187,1.0
1457,0.6325945152146443,1.0
1458,0.6326286670537209,1.0
1459,0.6345753218810833,1.0
1460,0.6346094737201599,1.0
1461,0.6461357194084901,1.0
1462,0.6461698712475666,1.0
1463,0.6627335131996858,1.0
1464,0.6627676650387624,1.0
1465,0.6830026296916089,1.0
1466,0.6830367815306855,1.0
1467,0.6883303165875483,1.0
1468,0.6883644684266248,1.0
1469,0.691130767391824,1.0
1470,0.6911649192309006,1.0
1471,0.6970902633106792,1.0
1472,0.6971244151497558,1.0
1473,0.705508691643045,1.0
1474,0.7055428434821215,1.0
1475,0.7061234247464226,1.0
1476,0.7061575765854992,1.0
1477,0.7115535671595915,1.0
1478,0.7115877189986681,1.0
1479,0.7247191011235955,1.0
1480,0.724753252962672,1.0
1481,0.7409583006044875,1.0
1482,0.740992452443564,1.0
1483,0.7512550800860627,1.0
1484,0.7512892319251392,1.0
1485,0.7555752877292442,1.0
1486,0.7556094395683207,1.0
1487,0.7599467231310406,1.0
1488,0.7599808749701171,1.0
1489,0.7613981762917933,1.0
1490,0.7614323281308698,1.0
1491,0.7666063317509648,1.0
1492,0.7666404835900413,1.0
1493,0.779276664048359,1.0
1494,0.7793108158874356,1.0
1495,0.786824220484273,1.0
1496,0.7868583723233497,1.0
1497,0.8027048256548616,1.0
1498,0.8027389774939381,1.0
1499,0.8184658993886821,1.0
1500,0.8185000512277586,1.0
1501,0.825108432089068,1.0
1502,0.8251425839281445,1.0
1503,0.8258426966292135,1.0
1504,0.82587684846829,1.0
1505,0.8359345650763294,1.0
1506,0.8359687169154059,1.0
1507,0.8390765342713705,1.0
1508,0.839110686110447,1.0
1509,0.8513028926607697,1.0
1510,0.8513370444998463,1.0
1511,0.8580137290393087,1.0
1512,0.8580478808783853,1.0
1513,0.8911580888630852,1.0
1514,0.8911922407021619,1.0
1515,0.8946074246098152,1.0
1516,0.8946415764488918,1.0
1517,0.9043406987466275,1.0
1518,0.904374850585704,1.0
1519,0.9381851712714729,1.0
1520,0.9382193231105495,1.0
1521,0.9501212390287217,1.0
1522,0.9501553908677982,1.0
1523,0.984853659369557,1.0
1524,0.9848878112086336,1.0
1525,1.0,1.0
