,fpr,tpr
0,0.0,0.0
1,1.6518004625041296e-05,0.0
2,1.6518004625041296e-05,0.0020833333333333333
3,3.303600925008259e-05,0.0020833333333333333
4,3.303600925008259e-05,0.002777777777777778
5,4.955401387512388e-05,0.002777777777777778
6,4.955401387512388e-05,0.005555555555555556
7,8.259002312520647e-05,0.005555555555555556
8,8.259002312520647e-05,0.010416666666666666
9,9.910802775024777e-05,0.010416666666666666
10,9.910802775024777e-05,0.03263888888888889
11,9.910802775024777e-05,0.034027777777777775
12,9.910802775024777e-05,0.041666666666666664
13,0.00011562603237528906,0.041666666666666664
14,0.00011562603237528906,0.05138888888888889
15,0.00014866204162537167,0.05138888888888889
16,0.00014866204162537167,0.058333333333333334
17,0.00016518004625041294,0.058333333333333334
18,0.00016518004625041294,0.06111111111111111
19,0.00018169805087545423,0.06111111111111111
20,0.00018169805087545423,0.06180555555555556
21,0.00019821605550049553,0.06180555555555556
22,0.00019821605550049553,0.0625
23,0.00021473406012553683,0.0625
24,0.00021473406012553683,0.06319444444444444
25,0.00023125206475057812,0.06319444444444444
26,0.00023125206475057812,0.06944444444444445
27,0.0002477700693756194,0.06944444444444445
28,0.0002477700693756194,0.10138888888888889
29,0.0002477700693756194,0.10277777777777777
30,0.0002477700693756194,0.11180555555555556
31,0.00026428807400066074,0.11180555555555556
32,0.00026428807400066074,0.1388888888888889
33,0.000280806078625702,0.1388888888888889
34,0.000280806078625702,0.14097222222222222
35,0.000280806078625702,0.1423611111111111
36,0.000280806078625702,0.15416666666666667
37,0.00029732408325074334,0.15416666666666667
38,0.00029732408325074334,0.15902777777777777
39,0.0003138420878757846,0.15902777777777777
40,0.0003138420878757846,0.16458333333333333
41,0.0003303600925008259,0.16458333333333333
42,0.0003303600925008259,0.16666666666666666
43,0.0003468780971258672,0.16666666666666666
44,0.0003468780971258672,0.16944444444444445
45,0.0003468780971258672,0.17083333333333334
46,0.0003468780971258672,0.17222222222222222
47,0.00036339610175090847,0.17222222222222222
48,0.00036339610175090847,0.17708333333333334
49,0.0003799141063759498,0.17708333333333334
50,0.0003799141063759498,0.18680555555555556
51,0.00039643211100099106,0.18680555555555556
52,0.00039643211100099106,0.18888888888888888
53,0.0004129501156260324,0.18888888888888888
54,0.0004129501156260324,0.19652777777777777
55,0.0004129501156260324,0.19791666666666666
56,0.0004129501156260324,0.20347222222222222
57,0.000445986124876115,0.20347222222222222
58,0.000445986124876115,0.20416666666666666
59,0.00046250412950115625,0.20416666666666666
60,0.00046250412950115625,0.20625
61,0.00047902213412619757,0.20625
62,0.00047902213412619757,0.2076388888888889
63,0.0004955401387512388,0.2076388888888889
64,0.0004955401387512388,0.2263888888888889
65,0.0005120581433762802,0.2263888888888889
66,0.0005120581433762802,0.23541666666666666
67,0.0005285761480013215,0.2361111111111111
68,0.0005450941526263627,0.2361111111111111
69,0.0005450941526263627,0.24027777777777778
70,0.000561612157251404,0.24027777777777778
71,0.000561612157251404,0.24791666666666667
72,0.0005781301618764453,0.24791666666666667
73,0.0005781301618764453,0.24930555555555556
74,0.0005946481665014867,0.24930555555555556
75,0.0005946481665014867,0.25069444444444444
76,0.0006111661711265279,0.25069444444444444
77,0.0006111661711265279,0.2534722222222222
78,0.0006111661711265279,0.2548611111111111
79,0.0006111661711265279,0.2611111111111111
80,0.0006442021803766105,0.2611111111111111
81,0.0006442021803766105,0.26319444444444445
82,0.0006772381896266931,0.26319444444444445
83,0.0006772381896266931,0.2652777777777778
84,0.0007102741988767757,0.2652777777777778
85,0.0007102741988767757,0.26875
86,0.0007267922035018169,0.26875
87,0.0007267922035018169,0.275
88,0.0007433102081268583,0.275
89,0.0007433102081268583,0.28194444444444444
90,0.0007598282127518996,0.28194444444444444
91,0.0007598282127518996,0.29305555555555557
92,0.0007763462173769409,0.29305555555555557
93,0.0007763462173769409,0.30416666666666664
94,0.0007928642220019821,0.30416666666666664
95,0.0007928642220019821,0.30486111111111114
96,0.0008093822266270234,0.30486111111111114
97,0.0008093822266270234,0.3111111111111111
98,0.0008259002312520648,0.3111111111111111
99,0.0008259002312520648,0.31666666666666665
100,0.0008424182358771061,0.31666666666666665
101,0.0008424182358771061,0.31875
102,0.0008589362405021473,0.31875
103,0.0008589362405021473,0.32013888888888886
104,0.0008754542451271886,0.32013888888888886
105,0.0008754542451271886,0.3326388888888889
106,0.00089197224975223,0.3326388888888889
107,0.00089197224975223,0.3402777777777778
108,0.0009084902543772713,0.3402777777777778
109,0.0009084902543772713,0.34305555555555556
110,0.0009250082590023125,0.34305555555555556
111,0.0009250082590023125,0.34652777777777777
112,0.0009415262636273538,0.34652777777777777
113,0.0009415262636273538,0.35
114,0.0009580442682523951,0.35
115,0.0009580442682523951,0.35208333333333336
116,0.0009745622728774364,0.35208333333333336
117,0.0009745622728774364,0.35555555555555557
118,0.0010241162867525603,0.35555555555555557
119,0.0010241162867525603,0.36319444444444443
120,0.0010241162867525603,0.3645833333333333
121,0.0010241162867525603,0.36666666666666664
122,0.0010406342913776017,0.36666666666666664
123,0.0010406342913776017,0.36875
124,0.001057152296002643,0.36875
125,0.001057152296002643,0.3701388888888889
126,0.001073670300627684,0.3701388888888889
127,0.001073670300627684,0.3729166666666667
128,0.0010901883052527254,0.3729166666666667
129,0.0010901883052527254,0.3736111111111111
130,0.0011067063098777667,0.3736111111111111
131,0.0011067063098777667,0.37916666666666665
132,0.001123224314502808,0.37916666666666665
133,0.001123224314502808,0.38125
134,0.0011397423191278494,0.38125
135,0.0011397423191278494,0.3819444444444444
136,0.0011562603237528907,0.3819444444444444
137,0.0011562603237528907,0.38333333333333336
138,0.001172778328377932,0.38333333333333336
139,0.001172778328377932,0.3840277777777778
140,0.0011892963330029733,0.3840277777777778
141,0.0011892963330029733,0.3861111111111111
142,0.0012058143376280145,0.3861111111111111
143,0.0012058143376280145,0.38819444444444445
144,0.0012223323422530558,0.38819444444444445
145,0.0012223323422530558,0.39444444444444443
146,0.001238850346878097,0.39444444444444443
147,0.001238850346878097,0.40208333333333335
148,0.0012553683515031384,0.4027777777777778
149,0.0012553683515031384,0.41875
150,0.0012718863561281797,0.41875
151,0.0012718863561281797,0.4215277777777778
152,0.001288404360753221,0.4215277777777778
153,0.001288404360753221,0.425
154,0.0013049223653782624,0.425
155,0.0013049223653782624,0.4263888888888889
156,0.0013214403700033035,0.4263888888888889
157,0.0013214403700033035,0.4375
158,0.0013379583746283448,0.4375
159,0.0013379583746283448,0.44027777777777777
160,0.0013544763792533861,0.44027777777777777
161,0.0013544763792533861,0.44513888888888886
162,0.0013709943838784275,0.44513888888888886
163,0.0013709943838784275,0.44722222222222224
164,0.0013875123885034688,0.44722222222222224
165,0.0013875123885034688,0.4479166666666667
166,0.0014205483977535514,0.4479166666666667
167,0.0014205483977535514,0.4486111111111111
168,0.0014370664023785928,0.4486111111111111
169,0.0014370664023785928,0.4527777777777778
170,0.0014535844070036339,0.4527777777777778
171,0.0014535844070036339,0.4534722222222222
172,0.0014701024116286752,0.4534722222222222
173,0.0014701024116286752,0.45416666666666666
174,0.0014701024116286752,0.45555555555555555
175,0.0014701024116286752,0.45694444444444443
176,0.0014866204162537165,0.45694444444444443
177,0.0014866204162537165,0.45902777777777776
178,0.0015031384208787578,0.45902777777777776
179,0.0015031384208787578,0.46111111111111114
180,0.0015196564255037992,0.46111111111111114
181,0.0015196564255037992,0.4638888888888889
182,0.0015526924347538818,0.4638888888888889
183,0.0015526924347538818,0.4673611111111111
184,0.001569210439378923,0.4673611111111111
185,0.001569210439378923,0.46944444444444444
186,0.0016022464486290056,0.46944444444444444
187,0.0016022464486290056,0.47152777777777777
188,0.001618764453254047,0.47152777777777777
189,0.001618764453254047,0.475
190,0.0016683184671291709,0.475
191,0.0016683184671291709,0.4756944444444444
192,0.0016848364717542122,0.4756944444444444
193,0.0016848364717542122,0.48055555555555557
194,0.0017013544763792533,0.48055555555555557
195,0.0017013544763792533,0.4861111111111111
196,0.001734390485629336,0.4861111111111111
197,0.001734390485629336,0.48680555555555555
198,0.0017509084902543773,0.48680555555555555
199,0.0017509084902543773,0.49444444444444446
200,0.0017674264948794186,0.49444444444444446
201,0.0017674264948794186,0.4979166666666667
202,0.00178394449950446,0.4979166666666667
203,0.00178394449950446,0.5034722222222222
204,0.0018004625041295012,0.5034722222222222
205,0.0018004625041295012,0.5111111111111111
206,0.0018004625041295012,0.5125
207,0.0018169805087545426,0.5125
208,0.0018169805087545426,0.5145833333333333
209,0.001850016518004625,0.5145833333333333
210,0.001850016518004625,0.5166666666666667
211,0.0018830525272547076,0.5166666666666667
212,0.0018830525272547076,0.5180555555555556
213,0.001899570531879749,0.5180555555555556
214,0.001899570531879749,0.5194444444444445
215,0.001899570531879749,0.5215277777777778
216,0.0019160885365047903,0.5215277777777778
217,0.0019160885365047903,0.5222222222222223
218,0.0019326065411298316,0.5222222222222223
219,0.0019326065411298316,0.5326388888888889
220,0.0019491245457548727,0.5326388888888889
221,0.0019491245457548727,0.5388888888888889
222,0.001965642550379914,0.5388888888888889
223,0.001965642550379914,0.5402777777777777
224,0.0019821605550049554,0.5402777777777777
225,0.0019821605550049554,0.54375
226,0.0019986785596299967,0.54375
227,0.0019986785596299967,0.5444444444444444
228,0.002015196564255038,0.5444444444444444
229,0.002015196564255038,0.5472222222222223
230,0.0020317145688800793,0.5472222222222223
231,0.0020317145688800793,0.5513888888888889
232,0.0020482325735051207,0.5513888888888889
233,0.0020482325735051207,0.5520833333333334
234,0.002064750578130162,0.5520833333333334
235,0.002064750578130162,0.5527777777777778
236,0.0021308225966303273,0.5527777777777778
237,0.0021308225966303273,0.5534722222222223
238,0.0021638586058804095,0.5534722222222223
239,0.0021638586058804095,0.5555555555555556
240,0.0022299306243805748,0.5555555555555556
241,0.0022299306243805748,0.5583333333333333
242,0.002246448629005616,0.5583333333333333
243,0.002246448629005616,0.5611111111111111
244,0.0022629666336306574,0.5611111111111111
245,0.0022629666336306574,0.5618055555555556
246,0.00229600264288074,0.5618055555555556
247,0.00229600264288074,0.5645833333333333
248,0.0023125206475057814,0.5645833333333333
249,0.0023125206475057814,0.5652777777777778
250,0.0023620746613809054,0.5652777777777778
251,0.0023620746613809054,0.5666666666666667
252,0.0024281466798810702,0.5666666666666667
253,0.0024281466798810702,0.5673611111111111
254,0.0024446646845061116,0.5673611111111111
255,0.0024446646845061116,0.5694444444444444
256,0.002461182689131153,0.5694444444444444
257,0.002461182689131153,0.5715277777777777
258,0.002477700693756194,0.5715277777777777
259,0.002477700693756194,0.5722222222222222
260,0.0024942186983812355,0.5722222222222222
261,0.0024942186983812355,0.575
262,0.002510736703006277,0.575
263,0.002510736703006277,0.5763888888888888
264,0.002527254707631318,0.5763888888888888
265,0.002527254707631318,0.5770833333333333
266,0.0025437727122563595,0.5770833333333333
267,0.0025437727122563595,0.5791666666666667
268,0.002576808721506442,0.5791666666666667
269,0.002576808721506442,0.5798611111111112
270,0.0025933267261314835,0.5798611111111112
271,0.0025933267261314835,0.58125
272,0.002626362735381566,0.58125
273,0.002626362735381566,0.5833333333333334
274,0.002692434753881731,0.5833333333333334
275,0.002692434753881731,0.5868055555555556
276,0.002741988767756855,0.5868055555555556
277,0.002741988767756855,0.5875
278,0.002741988767756855,0.5888888888888889
279,0.002741988767756855,0.5902777777777778
280,0.0027585067723818963,0.5902777777777778
281,0.0027585067723818963,0.5916666666666667
282,0.0027585067723818963,0.5965277777777778
283,0.0028080607862570202,0.5965277777777778
284,0.0028080607862570202,0.5986111111111111
285,0.002841096795507103,0.5986111111111111
286,0.002841096795507103,0.6
287,0.002857614800132144,0.6
288,0.002857614800132144,0.6006944444444444
289,0.0029071688140072677,0.6006944444444444
290,0.0029071688140072677,0.6013888888888889
291,0.002923686818632309,0.6013888888888889
292,0.002923686818632309,0.6020833333333333
293,0.0029402048232573504,0.6020833333333333
294,0.0029402048232573504,0.6027777777777777
295,0.0029567228278823917,0.6027777777777777
296,0.0029567228278823917,0.6034722222222222
297,0.0029897588371324744,0.6034722222222222
298,0.0029897588371324744,0.6048611111111111
299,0.003022794846382557,0.6048611111111111
300,0.003022794846382557,0.6055555555555555
301,0.0030393128510075983,0.6055555555555555
302,0.0030393128510075983,0.6090277777777777
303,0.003072348860257681,0.6090277777777777
304,0.003072348860257681,0.6097222222222223
305,0.0030888668648827223,0.6097222222222223
306,0.0030888668648827223,0.6111111111111112
307,0.0031053848695077636,0.6111111111111112
308,0.0031053848695077636,0.6138888888888889
309,0.003204492897258011,0.6138888888888889
310,0.003204492897258011,0.6145833333333334
311,0.0032210109018830525,0.6145833333333334
312,0.0032210109018830525,0.6159722222222223
313,0.003237528906508094,0.6159722222222223
314,0.003237528906508094,0.6180555555555556
315,0.0032705649157581764,0.6180555555555556
316,0.0032705649157581764,0.6194444444444445
317,0.0032870829203832178,0.6194444444444445
318,0.0032870829203832178,0.6201388888888889
319,0.0033366369342583417,0.6201388888888889
320,0.0033366369342583417,0.6215277777777778
321,0.0033696729435084244,0.6215277777777778
322,0.0033696729435084244,0.6222222222222222
323,0.0033861909481334653,0.6222222222222222
324,0.0033861909481334653,0.6229166666666667
325,0.003419226957383548,0.6229166666666667
326,0.003419226957383548,0.6256944444444444
327,0.0034357449620085892,0.6256944444444444
328,0.0034357449620085892,0.6270833333333333
329,0.0034522629666336306,0.6270833333333333
330,0.0034522629666336306,0.6361111111111111
331,0.003468780971258672,0.6361111111111111
332,0.003468780971258672,0.6368055555555555
333,0.003485298975883713,0.6368055555555555
334,0.003485298975883713,0.6375
335,0.0035018169805087545,0.6375
336,0.0035018169805087545,0.6395833333333333
337,0.003534852989758837,0.6395833333333333
338,0.003534852989758837,0.6402777777777777
339,0.00356788899900892,0.6402777777777777
340,0.00356788899900892,0.6416666666666667
341,0.0036009250082590025,0.6416666666666667
342,0.0036009250082590025,0.6430555555555556
343,0.003633961017509085,0.6430555555555556
344,0.003633961017509085,0.64375
345,0.003650479022134126,0.64375
346,0.003650479022134126,0.6451388888888889
347,0.0036669970267591673,0.6451388888888889
348,0.0036669970267591673,0.6479166666666667
349,0.00370003303600925,0.6479166666666667
350,0.00370003303600925,0.6506944444444445
351,0.0037330690452593326,0.6506944444444445
352,0.0037330690452593326,0.6520833333333333
353,0.003749587049884374,0.6520833333333333
354,0.003749587049884374,0.6534722222222222
355,0.0037661050545094153,0.6534722222222222
356,0.0037661050545094153,0.6541666666666667
357,0.003799141063759498,0.6541666666666667
358,0.003799141063759498,0.6548611111111111
359,0.0038156590683845392,0.6548611111111111
360,0.0038156590683845392,0.65625
361,0.003865213082259663,0.65625
362,0.003865213082259663,0.6569444444444444
363,0.0038817310868847045,0.6569444444444444
364,0.0038817310868847045,0.6576388888888889
365,0.0038982490915097454,0.6576388888888889
366,0.0038982490915097454,0.6583333333333333
367,0.003914767096134787,0.6583333333333333
368,0.003914767096134787,0.6590277777777778
369,0.00394780310538487,0.6590277777777778
370,0.00394780310538487,0.6604166666666667
371,0.003964321110009911,0.6604166666666667
372,0.003964321110009911,0.6611111111111111
373,0.003997357119259993,0.6611111111111111
374,0.003997357119259993,0.6618055555555555
375,0.004013875123885034,0.6618055555555555
376,0.004013875123885034,0.6625
377,0.004030393128510076,0.6625
378,0.004030393128510076,0.6631944444444444
379,0.004046911133135117,0.6631944444444444
380,0.004046911133135117,0.6638888888888889
381,0.0040799471423851996,0.6638888888888889
382,0.0040799471423851996,0.6645833333333333
383,0.004112983151635282,0.6645833333333333
384,0.004112983151635282,0.6652777777777777
385,0.004146019160885365,0.6652777777777777
386,0.004146019160885365,0.6659722222222222
387,0.004162537165510407,0.6659722222222222
388,0.004162537165510407,0.6666666666666666
389,0.004245127188635613,0.6666666666666666
390,0.004245127188635613,0.6680555555555555
391,0.0042616451932606545,0.6680555555555555
392,0.0042616451932606545,0.66875
393,0.004294681202510736,0.66875
394,0.004294681202510736,0.6701388888888888
395,0.004311199207135778,0.6701388888888888
396,0.004311199207135778,0.6736111111111112
397,0.004344235216385861,0.6736111111111112
398,0.004344235216385861,0.6756944444444445
399,0.004393789230260984,0.6756944444444445
400,0.004393789230260984,0.6763888888888889
401,0.0044598612487611496,0.6763888888888889
402,0.0044598612487611496,0.6770833333333334
403,0.004492897258011232,0.6770833333333334
404,0.004492897258011232,0.6784722222222223
405,0.004525933267261315,0.6784722222222223
406,0.004525933267261315,0.6791666666666667
407,0.004542451271886356,0.6791666666666667
408,0.004542451271886356,0.6798611111111111
409,0.0045589692765113975,0.6798611111111111
410,0.0045589692765113975,0.6805555555555556
411,0.00459200528576148,0.6805555555555556
412,0.00459200528576148,0.68125
413,0.004608523290386521,0.68125
414,0.004608523290386521,0.6826388888888889
415,0.004641559299636604,0.6826388888888889
416,0.004641559299636604,0.6833333333333333
417,0.0046580773042616454,0.6833333333333333
418,0.0046580773042616454,0.6840277777777778
419,0.004674595308886686,0.6840277777777778
420,0.004674595308886686,0.6847222222222222
421,0.004691113313511728,0.6847222222222222
422,0.004691113313511728,0.6854166666666667
423,0.004724149322761811,0.6854166666666667
424,0.004724149322761811,0.6868055555555556
425,0.004757185332011893,0.6868055555555556
426,0.004757185332011893,0.6875
427,0.004922365378262306,0.6875
428,0.004922365378262306,0.6881944444444444
429,0.0049388833828873475,0.6881944444444444
430,0.0049388833828873475,0.6895833333333333
431,0.005004955401387513,0.6895833333333333
432,0.005004955401387513,0.6909722222222222
433,0.005021473406012554,0.6909722222222222
434,0.005021473406012554,0.6916666666666667
435,0.005037991410637595,0.6916666666666667
436,0.005037991410637595,0.6923611111111111
437,0.005071027419887677,0.6923611111111111
438,0.005071027419887677,0.6930555555555555
439,0.005087545424512719,0.6930555555555555
440,0.005087545424512719,0.69375
441,0.005120581433762802,0.69375
442,0.005120581433762802,0.6951388888888889
443,0.005153617443012884,0.6951388888888889
444,0.005153617443012884,0.6958333333333333
445,0.005186653452262967,0.6958333333333333
446,0.005186653452262967,0.6965277777777777
447,0.005203171456888008,0.6965277777777777
448,0.005203171456888008,0.6972222222222222
449,0.00521968946151305,0.6972222222222222
450,0.00521968946151305,0.6979166666666666
451,0.0052362074661380905,0.6979166666666666
452,0.0052362074661380905,0.6986111111111111
453,0.005252725470763132,0.6986111111111111
454,0.005252725470763132,0.6993055555555555
455,0.005269243475388173,0.6993055555555555
456,0.005269243475388173,0.7
457,0.005285761480013214,0.7
458,0.005285761480013214,0.7027777777777777
459,0.005335315493888338,0.7027777777777777
460,0.005335315493888338,0.7034722222222223
461,0.005368351503138421,0.7034722222222223
462,0.005368351503138421,0.7041666666666667
463,0.005401387512388504,0.7041666666666667
464,0.005401387512388504,0.7048611111111112
465,0.005417905517013545,0.7048611111111112
466,0.005417905517013545,0.7055555555555556
467,0.005450941526263627,0.7055555555555556
468,0.005450941526263627,0.7069444444444445
469,0.00548397753551371,0.7069444444444445
470,0.00548397753551371,0.7076388888888889
471,0.005500495540138752,0.7076388888888889
472,0.005500495540138752,0.7090277777777778
473,0.005533531549388833,0.7090277777777778
474,0.005533531549388833,0.7104166666666667
475,0.005550049554013875,0.7104166666666667
476,0.005550049554013875,0.7111111111111111
477,0.005583085563263958,0.7111111111111111
478,0.005583085563263958,0.7118055555555556
479,0.005632639577139081,0.7118055555555556
480,0.005632639577139081,0.7125
481,0.005715229600264288,0.7125
482,0.005715229600264288,0.7131944444444445
483,0.005748265609514371,0.7131944444444445
484,0.005748265609514371,0.7180555555555556
485,0.005913445655764783,0.7180555555555556
486,0.005913445655764783,0.71875
487,0.005962999669639908,0.71875
488,0.005962999669639908,0.7194444444444444
489,0.0059960356788899905,0.7194444444444444
490,0.0059960356788899905,0.7201388888888889
491,0.006045589692765114,0.7201388888888889
492,0.006045589692765114,0.7215277777777778
493,0.006062107697390155,0.7215277777777778
494,0.006062107697390155,0.7222222222222222
495,0.0060951437066402376,0.7222222222222222
496,0.0060951437066402376,0.7229166666666667
497,0.00612817971589032,0.7229166666666667
498,0.00612817971589032,0.7236111111111111
499,0.006144697720515362,0.7236111111111111
500,0.006144697720515362,0.7243055555555555
501,0.006161215725140403,0.7243055555555555
502,0.006161215725140403,0.7256944444444444
503,0.006177733729765445,0.7256944444444444
504,0.006177733729765445,0.7277777777777777
505,0.006210769739015527,0.7277777777777777
506,0.006210769739015527,0.7291666666666666
507,0.006260323752890651,0.7291666666666666
508,0.006260323752890651,0.7298611111111111
509,0.006342913776015857,0.7298611111111111
510,0.006342913776015857,0.73125
511,0.006491575817641229,0.73125
512,0.006491575817641229,0.7326388888888888
513,0.00650809382226627,0.7326388888888888
514,0.00650809382226627,0.7340277777777777
515,0.006607201850016518,0.7340277777777777
516,0.006607201850016518,0.7368055555555556
517,0.006623719854641559,0.7368055555555556
518,0.006623719854641559,0.7375
519,0.006640237859266601,0.7375
520,0.006640237859266601,0.7381944444444445
521,0.00675586389164189,0.7381944444444445
522,0.00675586389164189,0.7388888888888889
523,0.0067723818962669305,0.7388888888888889
524,0.0067723818962669305,0.7395833333333334
525,0.006838453914767096,0.7395833333333334
526,0.006838453914767096,0.7402777777777778
527,0.006854971919392138,0.7402777777777778
528,0.006854971919392138,0.7416666666666667
529,0.0068714899240171785,0.7416666666666667
530,0.0068714899240171785,0.7423611111111111
531,0.00688800792864222,0.7423611111111111
532,0.00688800792864222,0.7430555555555556
533,0.006970597951767426,0.7430555555555556
534,0.006970597951767426,0.74375
535,0.007102741988767757,0.74375
536,0.007102741988767757,0.7444444444444445
537,0.00713577799801784,0.7444444444444445
538,0.00713577799801784,0.7451388888888889
539,0.007168814007267922,0.7451388888888889
540,0.007168814007267922,0.7465277777777778
541,0.007234886025768088,0.7465277777777778
542,0.007234886025768088,0.7472222222222222
543,0.0072514040303931285,0.7472222222222222
544,0.0072514040303931285,0.7486111111111111
545,0.00726792203501817,0.7486111111111111
546,0.00726792203501817,0.7493055555555556
547,0.007300958044268252,0.7493055555555556
548,0.007300958044268252,0.7513888888888889
549,0.0074000660720185,0.7513888888888889
550,0.0074000660720185,0.7520833333333333
551,0.007416584076643542,0.7520833333333333
552,0.007416584076643542,0.7527777777777778
553,0.00751569210439379,0.7527777777777778
554,0.00751569210439379,0.7541666666666667
555,0.007548728113643871,0.7541666666666667
556,0.007548728113643871,0.7548611111111111
557,0.007614800132144037,0.7548611111111111
558,0.007614800132144037,0.7555555555555555
559,0.0076313181367690785,0.7555555555555555
560,0.0076313181367690785,0.75625
561,0.007680872150644202,0.75625
562,0.007680872150644202,0.7569444444444444
563,0.007746944169144367,0.7569444444444444
564,0.007746944169144367,0.7611111111111111
565,0.00777998017839445,0.7611111111111111
566,0.007813016187644533,0.7611111111111111
567,0.007829534192269574,0.7611111111111111
568,0.007829534192269574,0.7618055555555555
569,0.007846052196894614,0.7618055555555555
570,0.007846052196894614,0.7625
571,0.008027750247770069,0.7625
572,0.008027750247770069,0.7631944444444444
573,0.008077304261645194,0.7631944444444444
574,0.008077304261645194,0.7638888888888888
575,0.008093822266270234,0.7638888888888888
576,0.008093822266270234,0.7645833333333333
577,0.008159894284770399,0.7645833333333333
578,0.008159894284770399,0.7652777777777777
579,0.008209448298645524,0.7652777777777777
580,0.008209448298645524,0.7659722222222223
581,0.008325074331020813,0.7659722222222223
582,0.008325074331020813,0.7666666666666667
583,0.008358110340270895,0.7666666666666667
584,0.008358110340270895,0.7673611111111112
585,0.008407664354146019,0.7673611111111112
586,0.008407664354146019,0.7680555555555556
587,0.00842418235877106,0.7680555555555556
588,0.00842418235877106,0.76875
589,0.008605880409646514,0.76875
590,0.008605880409646514,0.7694444444444445
591,0.008688470432771721,0.7694444444444445
592,0.008688470432771721,0.7708333333333334
593,0.008936240502147341,0.7708333333333334
594,0.008936240502147341,0.7715277777777778
595,0.008952758506772383,0.7715277777777778
596,0.008952758506772383,0.7722222222222223
597,0.009117938553022795,0.7722222222222223
598,0.009117938553022795,0.7729166666666667
599,0.009283118599273207,0.7729166666666667
600,0.009283118599273207,0.7736111111111111
601,0.009316154608523291,0.7736111111111111
602,0.009316154608523291,0.7743055555555556
603,0.009415262636273538,0.7743055555555556
604,0.009415262636273538,0.775
605,0.009448298645523621,0.775
606,0.009448298645523621,0.7756944444444445
607,0.009481334654773703,0.7756944444444445
608,0.009481334654773703,0.7770833333333333
609,0.009613478691774034,0.7770833333333333
610,0.009613478691774034,0.7784722222222222
611,0.009729104724149323,0.7784722222222222
612,0.009729104724149323,0.7791666666666667
613,0.009762140733399406,0.7791666666666667
614,0.009762140733399406,0.7798611111111111
615,0.009844730756524612,0.7798611111111111
616,0.009844730756524612,0.7805555555555556
617,0.009927320779649819,0.7805555555555556
618,0.0099603567888999,0.7805555555555556
619,0.0099603567888999,0.78125
620,0.010142054839775354,0.78125
621,0.010142054839775354,0.7819444444444444
622,0.010241162867525603,0.7819444444444444
623,0.010241162867525603,0.7826388888888889
624,0.010274198876775685,0.7826388888888889
625,0.010307234886025769,0.7826388888888889
626,0.010356788899900892,0.7826388888888889
627,0.010389824909150974,0.7826388888888889
628,0.010538486950776346,0.7826388888888889
629,0.010538486950776346,0.7833333333333333
630,0.010621076973901553,0.7833333333333333
631,0.010621076973901553,0.7840277777777778
632,0.010670630987776677,0.7840277777777778
633,0.010670630987776677,0.7847222222222222
634,0.010703666997026759,0.7847222222222222
635,0.010703666997026759,0.7854166666666667
636,0.010736703006276842,0.7854166666666667
637,0.010736703006276842,0.7861111111111111
638,0.010819293029402047,0.7861111111111111
639,0.010819293029402047,0.7868055555555555
640,0.010852329038652131,0.7868055555555555
641,0.010852329038652131,0.7875
642,0.01096795507102742,0.7875
643,0.01096795507102742,0.7881944444444444
644,0.011034027089527585,0.7881944444444444
645,0.011034027089527585,0.7888888888888889
646,0.01110009910802775,0.7888888888888889
647,0.01110009910802775,0.7895833333333333
648,0.011116617112652792,0.7895833333333333
649,0.011116617112652792,0.7909722222222222
650,0.011133135117277832,0.7909722222222222
651,0.011133135117277832,0.7923611111111111
652,0.011166171126527916,0.7923611111111111
653,0.011199207135777997,0.7923611111111111
654,0.011199207135777997,0.7930555555555555
655,0.011232243145028081,0.7930555555555555
656,0.011232243145028081,0.79375
657,0.011413941195903535,0.79375
658,0.011446977205153617,0.79375
659,0.011579121242153947,0.79375
660,0.011579121242153947,0.7944444444444444
661,0.011678229269904196,0.7944444444444444
662,0.011678229269904196,0.7951388888888888
663,0.011760819293029402,0.7951388888888888
664,0.011760819293029402,0.7965277777777777
665,0.011793855302279485,0.7965277777777777
666,0.011793855302279485,0.7972222222222223
667,0.01185992732077965,0.7972222222222223
668,0.01185992732077965,0.7979166666666667
669,0.01187644532540469,0.7986111111111112
670,0.011942517343904856,0.7986111111111112
671,0.011942517343904856,0.7993055555555556
672,0.01197555335315494,0.7993055555555556
673,0.01197555335315494,0.8006944444444445
674,0.012008589362405021,0.8006944444444445
675,0.012008589362405021,0.8013888888888889
676,0.012058143376280145,0.8013888888888889
677,0.012058143376280145,0.8020833333333334
678,0.012091179385530228,0.8020833333333334
679,0.012091179385530228,0.8027777777777778
680,0.012206805417905517,0.8027777777777778
681,0.012206805417905517,0.8034722222222223
682,0.012223323422530559,0.8034722222222223
683,0.012223323422530559,0.8041666666666667
684,0.01237198546415593,0.8041666666666667
685,0.01237198546415593,0.8048611111111111
686,0.01248761149653122,0.8048611111111111
687,0.01248761149653122,0.8055555555555556
688,0.012537165510406343,0.8055555555555556
689,0.012537165510406343,0.80625
690,0.012586719524281467,0.80625
691,0.012586719524281467,0.8069444444444445
692,0.012603237528906509,0.8069444444444445
693,0.012603237528906509,0.8083333333333333
694,0.012619755533531549,0.8083333333333333
695,0.012619755533531549,0.8090277777777778
696,0.012933597621407333,0.8090277777777778
697,0.012966633630657417,0.8090277777777778
698,0.013296993723158242,0.8090277777777778
699,0.013296993723158242,0.8097222222222222
700,0.013412619755533532,0.8097222222222222
701,0.013412619755533532,0.8104166666666667
702,0.013544763792533861,0.8104166666666667
703,0.013544763792533861,0.8125
704,0.013577799801783945,0.8125
705,0.013577799801783945,0.8131944444444444
706,0.013610835811034026,0.8131944444444444
707,0.013809051866534522,0.8131944444444444
708,0.013809051866534522,0.8138888888888889
709,0.013908159894284771,0.8138888888888889
710,0.013908159894284771,0.8145833333333333
711,0.014073339940535183,0.8145833333333333
712,0.014073339940535183,0.8152777777777778
713,0.014122893954410307,0.8152777777777778
714,0.014122893954410307,0.8159722222222222
715,0.014139411959035349,0.8159722222222222
716,0.014139411959035349,0.8173611111111111
717,0.014304592005285761,0.8173611111111111
718,0.014304592005285761,0.8180555555555555
719,0.014453254046911133,0.8180555555555555
720,0.014453254046911133,0.81875
721,0.01455236207466138,0.81875
722,0.01455236207466138,0.8194444444444444
723,0.014618434093161546,0.8194444444444444
724,0.014618434093161546,0.8201388888888889
725,0.01465147010241163,0.8201388888888889
726,0.01465147010241163,0.8208333333333333
727,0.014717542120911795,0.8208333333333333
728,0.014717542120911795,0.8215277777777777
729,0.014816650148662042,0.8215277777777777
730,0.014816650148662042,0.8222222222222222
731,0.014833168153287083,0.8222222222222222
732,0.014833168153287083,0.8229166666666666
733,0.014981830194912454,0.8229166666666666
734,0.014981830194912454,0.8236111111111111
735,0.01503138420878758,0.8236111111111111
736,0.01503138420878758,0.8243055555555555
737,0.01504790221341262,0.8243055555555555
738,0.01504790221341262,0.825
739,0.015279154278163199,0.825
740,0.015279154278163199,0.8256944444444444
741,0.015295672282788239,0.8256944444444444
742,0.015295672282788239,0.8263888888888888
743,0.01531219028741328,0.8263888888888888
744,0.01531219028741328,0.8270833333333333
745,0.015345226296663362,0.8270833333333333
746,0.015345226296663362,0.8277777777777777
747,0.015609514370664023,0.8277777777777777
748,0.015609514370664023,0.8284722222222223
749,0.01579121242153948,0.8284722222222223
750,0.01579121242153948,0.8291666666666667
751,0.015840766435414603,0.8291666666666667
752,0.015840766435414603,0.8305555555555556
753,0.015873802444664683,0.8305555555555556
754,0.015873802444664683,0.83125
755,0.01595639246778989,0.83125
756,0.01595639246778989,0.8319444444444445
757,0.015972910472414933,0.8319444444444445
758,0.015972910472414933,0.8326388888888889
759,0.016022464486290057,0.8326388888888889
760,0.016055500495540137,0.8326388888888889
761,0.016286752560290718,0.8326388888888889
762,0.016286752560290718,0.8333333333333334
763,0.016319788569540798,0.8333333333333334
764,0.016319788569540798,0.8340277777777778
765,0.016369342583415922,0.8340277777777778
766,0.016369342583415922,0.8347222222222223
767,0.01641889659729105,0.8347222222222223
768,0.01641889659729105,0.8354166666666667
769,0.016732738685166833,0.8354166666666667
770,0.016765774694416914,0.8354166666666667
771,0.016881400726792204,0.8354166666666667
772,0.016881400726792204,0.8361111111111111
773,0.017129170796167822,0.8361111111111111
774,0.017129170796167822,0.8375
775,0.017409976874793526,0.8375
776,0.017409976874793526,0.8381944444444445
777,0.01760819293029402,0.8381944444444445
778,0.01760819293029402,0.8388888888888889
779,0.017657746944169144,0.8388888888888889
780,0.017657746944169144,0.8395833333333333
781,0.01825239511067063,0.8395833333333333
782,0.01825239511067063,0.8402777777777778
783,0.018434093161546084,0.8402777777777778
784,0.018467129170796168,0.8402777777777778
785,0.018533201189296335,0.8402777777777778
786,0.018533201189296335,0.8409722222222222
787,0.018582755203171458,0.8409722222222222
788,0.01861579121242154,0.8409722222222222
789,0.01873141724479683,0.8409722222222222
790,0.01873141724479683,0.8416666666666667
791,0.01874793524942187,0.8416666666666667
792,0.01874793524942187,0.8423611111111111
793,0.018764453254046912,0.8423611111111111
794,0.018764453254046912,0.8430555555555556
795,0.018962669309547407,0.8430555555555556
796,0.018962669309547407,0.84375
797,0.01927651139742319,0.84375
798,0.01927651139742319,0.8444444444444444
799,0.019441691443673605,0.8444444444444444
800,0.019441691443673605,0.8451388888888889
801,0.01962338949454906,0.8451388888888889
802,0.01962338949454906,0.8458333333333333
803,0.019854641559299637,0.8458333333333333
804,0.019854641559299637,0.8465277777777778
805,0.019937231582424844,0.8465277777777778
806,0.019970267591674924,0.8465277777777778
807,0.019986785596299968,0.8465277777777778
808,0.019986785596299968,0.8479166666666667
809,0.02015196564255038,0.8479166666666667
810,0.02015196564255038,0.8486111111111111
811,0.020317145688800792,0.8486111111111111
812,0.020317145688800792,0.8493055555555555
813,0.020350181698050876,0.8493055555555555
814,0.020350181698050876,0.85
815,0.02041625371655104,0.85
816,0.02041625371655104,0.8506944444444444
817,0.020449289725801123,0.8506944444444444
818,0.020449289725801123,0.8513888888888889
819,0.020465807730426163,0.8513888888888889
820,0.020465807730426163,0.8520833333333333
821,0.020647505781301617,0.8520833333333333
822,0.020647505781301617,0.8527777777777777
823,0.020862239841427155,0.8527777777777777
824,0.020862239841427155,0.8534722222222222
825,0.021225635943178063,0.8534722222222222
826,0.021225635943178063,0.8541666666666666
827,0.021374297984803437,0.8541666666666666
828,0.021374297984803437,0.8548611111111111
829,0.021390815989428477,0.8548611111111111
830,0.021390815989428477,0.8555555555555555
831,0.021605550049554015,0.8555555555555555
832,0.021605550049554015,0.85625
833,0.021622068054179055,0.85625
834,0.021622068054179055,0.8569444444444444
835,0.021688140072679222,0.8569444444444444
836,0.021688140072679222,0.8576388888888888
837,0.02193591014205484,0.8576388888888888
838,0.02193591014205484,0.8583333333333333
839,0.02218368021143046,0.8583333333333333
840,0.02218368021143046,0.8590277777777777
841,0.023686818632309217,0.8590277777777777
842,0.023686818632309217,0.8597222222222223
843,0.02373637264618434,0.8597222222222223
844,0.02373637264618434,0.8604166666666667
845,0.023785926660059464,0.8604166666666667
846,0.023785926660059464,0.8611111111111112
847,0.023818962669309548,0.8611111111111112
848,0.023818962669309548,0.8618055555555556
849,0.02385199867855963,0.8618055555555556
850,0.02385199867855963,0.8625
851,0.02386851668318467,0.8625
852,0.02386851668318467,0.8631944444444445
853,0.024000660720185002,0.8631944444444445
854,0.024000660720185002,0.8645833333333334
855,0.02421539478031054,0.8645833333333334
856,0.02421539478031054,0.8652777777777778
857,0.024297984803435747,0.8652777777777778
858,0.024297984803435747,0.8659722222222223
859,0.024562272877436404,0.8659722222222223
860,0.024562272877436404,0.8666666666666667
861,0.024777006937561942,0.8666666666666667
862,0.024777006937561942,0.8673611111111111
863,0.025569871159563926,0.8673611111111111
864,0.025569871159563926,0.8680555555555556
865,0.02563594317806409,0.8680555555555556
866,0.02563594317806409,0.86875
867,0.025685497191939213,0.86875
868,0.025685497191939213,0.8694444444444445
869,0.02588371324743971,0.8694444444444445
870,0.02588371324743971,0.8701388888888889
871,0.025999339279814997,0.8701388888888889
872,0.025999339279814997,0.8715277777777778
873,0.026114965312190288,0.8715277777777778
874,0.02614800132144037,0.8715277777777778
875,0.026693095474066734,0.8715277777777778
876,0.026693095474066734,0.8722222222222222
877,0.026891311529567228,0.8722222222222222
878,0.026891311529567228,0.8729166666666667
879,0.02727122563594318,0.8729166666666667
880,0.02727122563594318,0.8736111111111111
881,0.027337297654443343,0.8736111111111111
882,0.027337297654443343,0.8743055555555556
883,0.02776676577469442,0.8743055555555556
884,0.02776676577469442,0.875
885,0.027832837793194582,0.875
886,0.027865873802444666,0.875
887,0.028510075982821275,0.875
888,0.028510075982821275,0.8756944444444444
889,0.02867525602907169,0.8756944444444444
890,0.02867525602907169,0.8763888888888889
891,0.02870829203832177,0.8763888888888889
892,0.02923686818632309,0.8763888888888889
893,0.02923686818632309,0.8770833333333333
894,0.029253386190948135,0.8770833333333333
895,0.029253386190948135,0.8777777777777778
896,0.02930294020482326,0.8777777777777778
897,0.02930294020482326,0.8784722222222222
898,0.029402048232573506,0.8784722222222222
899,0.029402048232573506,0.8791666666666667
900,0.029666336306574167,0.8791666666666667
901,0.029666336306574167,0.8798611111111111
902,0.03049223653782623,0.8798611111111111
903,0.03049223653782623,0.8805555555555555
904,0.030541790551701354,0.8805555555555555
905,0.030541790551701354,0.88125
906,0.030591344565576477,0.88125
907,0.03062438057482656,0.88125
908,0.03085563263957714,0.88125
909,0.03085563263957714,0.8819444444444444
910,0.031070366699702676,0.8819444444444444
911,0.03110340270895276,0.8819444444444444
912,0.03151635282457879,0.8819444444444444
913,0.03151635282457879,0.8826388888888889
914,0.03161546085232904,0.8826388888888889
915,0.03161546085232904,0.8833333333333333
916,0.03166501486620416,0.8833333333333333
917,0.03166501486620416,0.8840277777777777
918,0.03176412289395441,0.8840277777777777
919,0.03176412289395441,0.8847222222222222
920,0.032077964981830194,0.8847222222222222
921,0.032077964981830194,0.8854166666666666
922,0.03217707300958044,0.8854166666666666
923,0.03217707300958044,0.8861111111111111
924,0.0323587710604559,0.8861111111111111
925,0.0323587710604559,0.8868055555555555
926,0.033415923356458536,0.8868055555555555
927,0.033415923356458536,0.8875
928,0.03353154938883383,0.8875
929,0.03353154938883383,0.8881944444444444
930,0.03392798149983482,0.8881944444444444
931,0.03392798149983482,0.8888888888888888
932,0.03419226957383548,0.8888888888888888
933,0.03419226957383548,0.8895833333333333
934,0.034340931615460854,0.8895833333333333
935,0.034340931615460854,0.8902777777777777
936,0.03562933597621407,0.8902777777777777
937,0.03562933597621407,0.8909722222222223
938,0.03605880409646515,0.8909722222222223
939,0.03605880409646515,0.8916666666666667
940,0.03622398414271556,0.8916666666666667
941,0.03622398414271556,0.8923611111111112
942,0.03658738024446647,0.8923611111111112
943,0.03658738024446647,0.8930555555555556
944,0.037561942517343905,0.8930555555555556
945,0.037561942517343905,0.89375
946,0.03828873472084572,0.89375
947,0.03828873472084572,0.8944444444444445
948,0.03847043277172118,0.8944444444444445
949,0.03847043277172118,0.8951388888888889
950,0.03918070697059795,0.8951388888888889
951,0.03918070697059795,0.8958333333333334
952,0.03929633300297324,0.8958333333333334
953,0.03932936901222332,0.8958333333333334
954,0.039378923026098446,0.8958333333333334
955,0.03941195903534853,0.8958333333333334
956,0.03944499504459861,0.8958333333333334
957,0.03944499504459861,0.8965277777777778
958,0.0400396432111001,0.8965277777777778
959,0.0400396432111001,0.8972222222222223
960,0.04007267922035018,0.8972222222222223
961,0.04007267922035018,0.8979166666666667
962,0.04022134126197555,0.8979166666666667
963,0.04022134126197555,0.8986111111111111
964,0.040370003303600924,0.8986111111111111
965,0.040370003303600924,0.8993055555555556
966,0.040601255368351505,0.8993055555555556
967,0.040601255368351505,0.9
968,0.040716881400726795,0.9
969,0.040749917409976875,0.9
970,0.04094813346547737,0.9
971,0.04098116947472745,0.9
972,0.04104724149322762,0.9
973,0.041080277502477704,0.9
974,0.04147670961347869,0.9
975,0.04147670961347869,0.9006944444444445
976,0.041526263627353815,0.9006944444444445
977,0.041559299636603896,0.9006944444444445
978,0.04169144367360423,0.9006944444444445
979,0.04169144367360423,0.9013888888888889
980,0.04177403369672943,0.9013888888888889
981,0.04177403369672943,0.9020833333333333
982,0.04208787578460522,0.9020833333333333
983,0.042120911793855305,0.9020833333333333
984,0.04217046580773043,0.9020833333333333
985,0.04217046580773043,0.9027777777777778
986,0.04236868186323092,0.9027777777777778
987,0.04236868186323092,0.9034722222222222
988,0.04309547406673274,0.9034722222222222
989,0.04309547406673274,0.9041666666666667
990,0.043557978196233894,0.9041666666666667
991,0.043557978196233894,0.9048611111111111
992,0.04377271225635943,0.9048611111111111
993,0.04377271225635943,0.9055555555555556
994,0.0439213742979848,0.9055555555555556
995,0.0439213742979848,0.90625
996,0.04426825239511067,0.90625
997,0.04426825239511067,0.9069444444444444
998,0.044416914436736045,0.9069444444444444
999,0.044416914436736045,0.9083333333333333
1000,0.044681202510736706,0.9083333333333333
1001,0.044681202510736706,0.9090277777777778
1002,0.045308886686488276,0.9090277777777778
1003,0.045308886686488276,0.9097222222222222
1004,0.04532540469111331,0.9097222222222222
1005,0.0453584407003634,0.9097222222222222
1006,0.04595308886686488,0.9097222222222222
1007,0.04595308886686488,0.9104166666666667
1008,0.04636603898249091,0.9104166666666667
1009,0.04636603898249091,0.9111111111111111
1010,0.04679550710274199,0.9111111111111111
1011,0.04682854311199207,0.9111111111111111
1012,0.04684506111661711,0.9111111111111111
1013,0.04684506111661711,0.9118055555555555
1014,0.04705979517674265,0.9118055555555555
1015,0.04705979517674265,0.9125
1016,0.04727452923686819,0.9125
1017,0.04727452923686819,0.9131944444444444
1018,0.04894284770399736,0.9131944444444444
1019,0.04897588371324744,0.9131944444444444
1020,0.04937231582424843,0.9131944444444444
1021,0.04937231582424843,0.9138888888888889
1022,0.04960356788899901,0.9138888888888889
1023,0.049636603898249095,0.9138888888888889
1024,0.04988437396762471,0.9138888888888889
1025,0.04988437396762471,0.9145833333333333
1026,0.051569210439378926,0.9145833333333333
1027,0.051569210439378926,0.9152777777777777
1028,0.05165180046250413,0.9152777777777777
1029,0.05168483647175421,0.9152777777777777
1030,0.05178394449950446,0.9152777777777777
1031,0.05178394449950446,0.9159722222222222
1032,0.05189957053187975,0.9159722222222222
1033,0.051932606541129835,0.9159722222222222
1034,0.05218037661050545,0.9159722222222222
1035,0.05221341261975553,0.9159722222222222
1036,0.05257680872150644,0.9159722222222222
1037,0.05257680872150644,0.9166666666666666
1038,0.05345226296663363,0.9166666666666666
1039,0.05345226296663363,0.9173611111111111
1040,0.0537991410637595,0.9173611111111111
1041,0.0537991410637595,0.9180555555555555
1042,0.053931285100759827,0.9180555555555555
1043,0.053931285100759827,0.91875
1044,0.05449289725801123,0.91875
1045,0.05449289725801123,0.9194444444444444
1046,0.05505450941526264,0.9194444444444444
1047,0.05505450941526264,0.9201388888888888
1048,0.055599603567889,0.9201388888888888
1049,0.055599603567889,0.9208333333333333
1050,0.05584737363726462,0.9208333333333333
1051,0.0558804096465147,0.9208333333333333
1052,0.055896927651139745,0.9208333333333333
1053,0.055929963660389825,0.9208333333333333
1054,0.05690452593326726,0.9208333333333333
1055,0.05690452593326726,0.9215277777777777
1056,0.05865543442352164,0.9215277777777777
1057,0.05865543442352164,0.9222222222222223
1058,0.059894284770399736,0.9222222222222223
1059,0.059894284770399736,0.9229166666666667
1060,0.06019160885365048,0.9229166666666667
1061,0.06019160885365048,0.9236111111111112
1062,0.06030723488602577,0.9236111111111112
1063,0.06034027089527585,0.9236111111111112
1064,0.06083581103402709,0.9236111111111112
1065,0.06086884704327717,0.9236111111111112
1066,0.0612817971589032,0.9236111111111112
1067,0.0612817971589032,0.9243055555555556
1068,0.061298315163528246,0.9243055555555556
1069,0.061298315163528246,0.925
1070,0.06131483316815329,0.925
1071,0.06131483316815329,0.9256944444444445
1072,0.0617608192930294,0.9256944444444445
1073,0.06179385530227949,0.9256944444444445
1074,0.06187644532540469,0.9256944444444445
1075,0.06190948133465477,0.9256944444444445
1076,0.06333002973240832,0.9256944444444445
1077,0.06333002973240832,0.9263888888888889
1078,0.06336306574165841,0.9263888888888889
1079,0.06339610175090848,0.9263888888888889
1080,0.06380905186653452,0.9263888888888889
1081,0.06380905186653452,0.9270833333333334
1082,0.06418896597291048,0.9270833333333334
1083,0.06418896597291048,0.9277777777777778
1084,0.06478361413941196,0.9277777777777778
1085,0.06478361413941196,0.9284722222222223
1086,0.06483316815328709,0.9284722222222223
1087,0.06483316815328709,0.9291666666666667
1088,0.06724479682854312,0.9291666666666667
1089,0.06724479682854312,0.9298611111111111
1090,0.06770730095804427,0.9298611111111111
1091,0.06770730095804427,0.9305555555555556
1092,0.06795507102741989,0.9305555555555556
1093,0.06795507102741989,0.93125
1094,0.06798810703666996,0.93125
1095,0.06802114304592005,0.93125
1096,0.06810373306904526,0.93125
1097,0.06810373306904526,0.9319444444444445
1098,0.06815328708292039,0.9319444444444445
1099,0.06818632309217047,0.9319444444444445
1100,0.06853320118929633,0.9319444444444445
1101,0.06853320118929633,0.9326388888888889
1102,0.06929302940204823,0.9326388888888889
1103,0.06929302940204823,0.9333333333333333
1104,0.06937561942517344,0.9333333333333333
1105,0.06937561942517344,0.9347222222222222
1106,0.07152296002642881,0.9347222222222222
1107,0.07152296002642881,0.9354166666666667
1108,0.07241493227618104,0.9354166666666667
1109,0.07241493227618104,0.9361111111111111
1110,0.07563594317806409,0.9361111111111111
1111,0.07566897918731418,0.9361111111111111
1112,0.07586719524281467,0.9361111111111111
1113,0.07590023125206476,0.9361111111111111
1114,0.07887347208457218,0.9361111111111111
1115,0.07887347208457218,0.9368055555555556
1116,0.07981499834819954,0.9368055555555556
1117,0.07984803435744962,0.9368055555555556
1118,0.07999669639907499,0.9368055555555556
1119,0.08002973240832507,0.9368055555555556
1120,0.08016187644532541,0.9368055555555556
1121,0.08016187644532541,0.9375
1122,0.08017839444995045,0.9375
1123,0.08021143045920053,0.9375
1124,0.08021143045920053,0.9381944444444444
1125,0.08075652461182689,0.9381944444444444
1126,0.08075652461182689,0.9388888888888889
1127,0.0815163528245788,0.9388888888888889
1128,0.0815163528245788,0.9395833333333333
1129,0.08222662702345557,0.9395833333333333
1130,0.08222662702345557,0.9402777777777778
1131,0.08262305913445656,0.9402777777777778
1132,0.08262305913445656,0.9409722222222222
1133,0.0829203832177073,0.9409722222222222
1134,0.0829203832177073,0.9416666666666667
1135,0.0830029732408325,0.9416666666666667
1136,0.0830029732408325,0.9423611111111111
1137,0.08323422530558308,0.9423611111111111
1138,0.08326726131483317,0.9423611111111111
1139,0.08344895936570862,0.9423611111111111
1140,0.08344895936570862,0.9430555555555555
1141,0.08386190948133465,0.9430555555555555
1142,0.08386190948133465,0.94375
1143,0.08442352163858606,0.94375
1144,0.08442352163858606,0.9444444444444444
1145,0.08453914767096135,0.9444444444444444
1146,0.08457218368021142,0.9444444444444444
1147,0.08495209778658738,0.9444444444444444
1148,0.08495209778658738,0.9451388888888889
1149,0.0862405021473406,0.9451388888888889
1150,0.0862405021473406,0.9458333333333333
1151,0.08690122233234225,0.9458333333333333
1152,0.08690122233234225,0.9465277777777777
1153,0.08695077634621738,0.9465277777777777
1154,0.08695077634621738,0.9472222222222222
1155,0.08777667657746945,0.9472222222222222
1156,0.08777667657746945,0.9479166666666666
1157,0.08779319458209449,0.9479166666666666
1158,0.08782623059134456,0.9479166666666666
1159,0.08815659068384539,0.9479166666666666
1160,0.08818962669309548,0.9479166666666666
1161,0.08842087875784606,0.9479166666666666
1162,0.08845391476709613,0.9479166666666666
1163,0.08941195903534853,0.9479166666666666
1164,0.08944499504459862,0.9479166666666666
1165,0.09046911133135117,0.9479166666666666
1166,0.09050214734060126,0.9479166666666666
1167,0.09078295341922696,0.9479166666666666
1168,0.09078295341922696,0.9486111111111111
1169,0.0909976874793525,0.9486111111111111
1170,0.09103072348860258,0.9486111111111111
1171,0.09142715559960357,0.9486111111111111
1172,0.09144367360422861,0.9493055555555555
1173,0.0921209117938553,0.9493055555555555
1174,0.0921209117938553,0.95
1175,0.09251734390485629,0.95
1176,0.09251734390485629,0.9506944444444444
1177,0.09354146019160885,0.9506944444444444
1178,0.09354146019160885,0.9513888888888888
1179,0.09478031053848696,0.9513888888888888
1180,0.09481334654773703,0.9513888888888888
1181,0.09529236868186323,0.9513888888888888
1182,0.09532540469111331,0.9513888888888888
1183,0.0954410307234886,0.9513888888888888
1184,0.0954410307234886,0.9520833333333333
1185,0.09644862900561613,0.9520833333333333
1186,0.0964816650148662,0.9520833333333333
1187,0.09653121902874133,0.9520833333333333
1188,0.09653121902874133,0.9527777777777777
1189,0.1011562603237529,0.9527777777777777
1190,0.1011562603237529,0.9534722222222223
1191,0.10355137099438388,0.9534722222222223
1192,0.10355137099438388,0.9541666666666667
1193,0.10373306904525934,0.9541666666666667
1194,0.10376610505450942,0.9541666666666667
1195,0.1044763792533862,0.9541666666666667
1196,0.10450941526263627,0.9541666666666667
1197,0.10592996366038983,0.9541666666666667
1198,0.10592996366038983,0.9548611111111112
1199,0.10619425173439048,0.9548611111111112
1200,0.10619425173439048,0.9555555555555556
1201,0.10766435414601916,0.9555555555555556
1202,0.10769739015526925,0.9555555555555556
1203,0.10862239841427156,0.9555555555555556
1204,0.10865543442352164,0.9555555555555556
1205,0.10944829864552362,0.9555555555555556
1206,0.10944829864552362,0.95625
1207,0.11055500495540138,0.95625
1208,0.11055500495540138,0.9569444444444445
1209,0.1106375949785266,0.9569444444444445
1210,0.11067063098777667,0.9569444444444445
1211,0.11200858936240503,0.9569444444444445
1212,0.1120416253716551,0.9569444444444445
1213,0.11243805748265609,0.9569444444444445
1214,0.11243805748265609,0.9576388888888889
1215,0.11296663363065741,0.9576388888888889
1216,0.11296663363065741,0.9583333333333334
1217,0.1131648496861579,0.9583333333333334
1218,0.11318136769078295,0.9590277777777778
1219,0.11339610175090849,0.9590277777777778
1220,0.11342913776015857,0.9590277777777778
1221,0.11560951437066402,0.9590277777777778
1222,0.11562603237528907,0.9597222222222223
1223,0.11673273868516683,0.9597222222222223
1224,0.11673273868516683,0.9604166666666667
1225,0.11701354476379254,0.9604166666666667
1226,0.11704658077304261,0.9604166666666667
1227,0.11793855302279485,0.9604166666666667
1228,0.11797158903204492,0.9604166666666667
1229,0.11808721506442021,0.9604166666666667
1230,0.11808721506442021,0.9611111111111111
1231,0.11904525933267261,0.9611111111111111
1232,0.1190782953419227,0.9611111111111111
1233,0.11982160555004956,0.9611111111111111
1234,0.11982160555004956,0.9618055555555556
1235,0.1223158242484308,0.9618055555555556
1236,0.12234886025768087,0.9618055555555556
1237,0.12535513709943838,0.9618055555555556
1238,0.12535513709943838,0.9625
1239,0.12566897918731418,0.9625
1240,0.12566897918731418,0.9631944444444445
1241,0.12606541129831517,0.9631944444444445
1242,0.12609844730756525,0.9631944444444445
1243,0.12697390155269245,0.9631944444444445
1244,0.12697390155269245,0.9638888888888889
1245,0.1270399735711926,0.9638888888888889
1246,0.1270399735711926,0.9645833333333333
1247,0.12722167162206804,0.9645833333333333
1248,0.12722167162206804,0.9652777777777778
1249,0.12725470763131813,0.9652777777777778
1250,0.12728774364056822,0.9652777777777778
1251,0.1280806078625702,0.9652777777777778
1252,0.12811364387182028,0.9652777777777778
1253,0.12898909811694748,0.9652777777777778
1254,0.12898909811694748,0.9659722222222222
1255,0.13022794846382557,0.9659722222222222
1256,0.13026098447307566,0.9659722222222222
1257,0.1314833168153287,0.9659722222222222
1258,0.1315163528245788,0.9659722222222222
1259,0.13265609514370663,0.9659722222222222
1260,0.13265609514370663,0.9666666666666667
1261,0.13330029732408324,0.9666666666666667
1262,0.13333333333333333,0.9666666666666667
1263,0.13614139411959036,0.9666666666666667
1264,0.13614139411959036,0.9673611111111111
1265,0.1365213082259663,0.9673611111111111
1266,0.1365543442352164,0.9673611111111111
1267,0.13681863230921704,0.9673611111111111
1268,0.13681863230921704,0.9680555555555556
1269,0.13733069045259333,0.9680555555555556
1270,0.13736372646184342,0.9680555555555556
1271,0.14045259332672613,0.9680555555555556
1272,0.14045259332672613,0.9694444444444444
1273,0.14146019160885365,0.9694444444444444
1274,0.14149322761810373,0.9694444444444444
1275,0.14177403369672945,0.9694444444444444
1276,0.14177403369672945,0.9701388888888889
1277,0.14390485629335975,0.9701388888888889
1278,0.14393789230260984,0.9701388888888889
1279,0.14448298645523622,0.9701388888888889
1280,0.14451602246448628,0.9701388888888889
1281,0.14482986455236208,0.9701388888888889
1282,0.14486290056161216,0.9701388888888889
1283,0.14514370664023785,0.9701388888888889
1284,0.14517674264948793,0.9701388888888889
1285,0.14613478691774034,0.9701388888888889
1286,0.14616782292699043,0.9701388888888889
1287,0.1480343574496201,0.9701388888888889
1288,0.14806739345887016,0.9701388888888889
1289,0.14986785596299967,0.9701388888888889
1290,0.14990089197224976,0.9701388888888889
1291,0.15092500825900232,0.9701388888888889
1292,0.15092500825900232,0.9708333333333333
1293,0.15122233234225305,0.9708333333333333
1294,0.15125536835150313,0.9708333333333333
1295,0.1516848364717542,0.9708333333333333
1296,0.1516848364717542,0.9715277777777778
1297,0.1527254707631318,0.9715277777777778
1298,0.1527585067723819,0.9715277777777778
1299,0.15277502477700694,0.9715277777777778
1300,0.15280806078625703,0.9715277777777778
1301,0.15502147340601255,0.9715277777777778
1302,0.15505450941526264,0.9715277777777778
1303,0.15533531549388835,0.9715277777777778
1304,0.15533531549388835,0.9722222222222222
1305,0.15564915758176412,0.9722222222222222
1306,0.1556821935910142,0.9722222222222222
1307,0.15629335976214073,0.9722222222222222
1308,0.15632639577139082,0.9722222222222222
1309,0.1563594317806409,0.9722222222222222
1310,0.156392467789891,0.9722222222222222
1311,0.15665675586389163,0.9722222222222222
1312,0.15668979187314172,0.9722222222222222
1313,0.15781301618764454,0.9722222222222222
1314,0.15781301618764454,0.9729166666666667
1315,0.15782953419226958,0.9729166666666667
1316,0.15786257020151967,0.9729166666666667
1317,0.1586719524281467,0.9729166666666667
1318,0.15870498843739675,0.9729166666666667
1319,0.15901883052527255,0.9729166666666667
1320,0.15901883052527255,0.9736111111111111
1321,0.16058804096465146,0.9736111111111111
1322,0.16062107697390154,0.9736111111111111
1323,0.16085232903865213,0.9736111111111111
1324,0.16085232903865213,0.9743055555555555
1325,0.1638751238850347,0.9743055555555555
1326,0.16390815989428478,0.9743055555555555
1327,0.16620416253716552,0.9743055555555555
1328,0.16623719854641558,0.9743055555555555
1329,0.16721176081929304,0.9743055555555555
1330,0.16721176081929304,0.975
1331,0.16869838123554676,0.975
1332,0.16873141724479682,0.975
1333,0.17035018169805088,0.975
1334,0.17038321770730097,0.975
1335,0.1705153617443013,0.975
1336,0.17054839775355138,0.975
1337,0.170796167822927,0.975
1338,0.170796167822927,0.9763888888888889
1339,0.17081268582755202,0.9763888888888889
1340,0.17081268582755202,0.9770833333333333
1341,0.1729269904195573,0.9770833333333333
1342,0.1729600264288074,0.9770833333333333
1343,0.1753221010901883,0.9770833333333333
1344,0.1753221010901883,0.9777777777777777
1345,0.17626362735381565,0.9777777777777777
1346,0.17629666336306574,0.9777777777777777
1347,0.17778328377931946,0.9777777777777777
1348,0.17781631978856954,0.9777777777777777
1349,0.18001321440370002,0.9777777777777777
1350,0.1800462504129501,0.9777777777777777
1351,0.18217707300958044,0.9777777777777777
1352,0.18221010901883053,0.9777777777777777
1353,0.18571192599933928,0.9777777777777777
1354,0.18574496200858936,0.9777777777777777
1355,0.18587710604558969,0.9777777777777777
1356,0.18587710604558969,0.9784722222222222
1357,0.1860422860918401,0.9784722222222222
1358,0.18607532210109018,0.9784722222222222
1359,0.1874793524942187,0.9784722222222222
1360,0.18751238850346877,0.9784722222222222
1361,0.18828873472084573,0.9784722222222222
1362,0.18832177073009582,0.9784722222222222
1363,0.18838784274859596,0.9784722222222222
1364,0.18838784274859596,0.9791666666666666
1365,0.18913115295672284,0.9791666666666666
1366,0.18916418896597292,0.9791666666666666
1367,0.1901552692434754,0.9791666666666666
1368,0.19018830525272548,0.9791666666666666
1369,0.1907168814007268,0.9791666666666666
1370,0.19074991740997688,0.9791666666666666
1371,0.19076643541460192,0.9791666666666666
1372,0.19076643541460192,0.9798611111111111
1373,0.19101420548397754,0.9798611111111111
1374,0.19104724149322763,0.9798611111111111
1375,0.1925999339279815,0.9798611111111111
1376,0.1925999339279815,0.9805555555555555
1377,0.19321110009910802,0.9805555555555555
1378,0.1932441361083581,0.9805555555555555
1379,0.19549058473736372,0.9805555555555555
1380,0.1955236207466138,0.9805555555555555
1381,0.19562272877436407,0.9805555555555555
1382,0.19565576478361413,0.9805555555555555
1383,0.19674595308886686,0.9805555555555555
1384,0.19677898909811695,0.9805555555555555
1385,0.19694416914436735,0.9805555555555555
1386,0.19694416914436735,0.98125
1387,0.1999174099768748,0.98125
1388,0.19995044598612488,0.98125
1389,0.20003303600925007,0.98125
1390,0.20006607201850016,0.98125
1391,0.20026428807400065,0.98125
1392,0.20026428807400065,0.9819444444444444
1393,0.20089197224975222,0.9819444444444444
1394,0.2009250082590023,0.9819444444444444
1395,0.2012718863561282,0.9819444444444444
1396,0.20130492236537825,0.9819444444444444
1397,0.2018334985133796,0.9819444444444444
1398,0.2018334985133796,0.9826388888888888
1399,0.2023125206475058,0.9826388888888888
1400,0.2023125206475058,0.9833333333333333
1401,0.2094813346547737,0.9833333333333333
1402,0.20951437066402379,0.9833333333333333
1403,0.21007598282127518,0.9833333333333333
1404,0.21010901883052527,0.9833333333333333
1405,0.2104393789230261,0.9833333333333333
1406,0.21047241493227617,0.9833333333333333
1407,0.21121572514040304,0.9833333333333333
1408,0.21124876114965313,0.9833333333333333
1409,0.21253716551040636,0.9833333333333333
1410,0.21253716551040636,0.9840277777777777
1411,0.21351172778328378,0.9840277777777777
1412,0.21354476379253387,0.9840277777777777
1413,0.21377601585728445,0.9840277777777777
1414,0.2138090518665345,0.9840277777777777
1415,0.21461843409316156,0.9840277777777777
1416,0.21465147010241162,0.9840277777777777
1417,0.21549388833828872,0.9840277777777777
1418,0.2155269243475388,0.9840277777777777
1419,0.21598942847703997,0.9840277777777777
1420,0.21602246448629006,0.9840277777777777
1421,0.21778989098116946,0.9840277777777777
1422,0.21782292699041955,0.9840277777777777
1423,0.21788899900891973,0.9840277777777777
1424,0.2179220350181698,0.9840277777777777
1425,0.2188800792864222,0.9840277777777777
1426,0.21891311529567228,0.9840277777777777
1427,0.21925999339279814,0.9840277777777777
1428,0.21929302940204823,0.9840277777777777
1429,0.22025107367030064,0.9840277777777777
1430,0.22025107367030064,0.9847222222222223
1431,0.22035018169805087,0.9847222222222223
1432,0.22038321770730096,0.9847222222222223
1433,0.2206805417905517,0.9847222222222223
1434,0.22071357779980177,0.9847222222222223
1435,0.22125867195242815,0.9847222222222223
1436,0.22129170796167824,0.9847222222222223
1437,0.22309217046580773,0.9847222222222223
1438,0.22312520647505782,0.9847222222222223
1439,0.22421539478031055,0.9847222222222223
1440,0.2242484307895606,0.9847222222222223
1441,0.22670961347869178,0.9847222222222223
1442,0.22674264948794184,0.9847222222222223
1443,0.22738685166831846,0.9847222222222223
1444,0.22741988767756854,0.9847222222222223
1445,0.22758506772381895,0.9847222222222223
1446,0.22761810373306904,0.9847222222222223
1447,0.22784935579781962,0.9847222222222223
1448,0.2278823918070697,0.9847222222222223
1449,0.22874132804757186,0.9847222222222223
1450,0.22877436405682194,0.9847222222222223
1451,0.22925338619094812,0.9847222222222223
1452,0.2292864222001982,0.9847222222222223
1453,0.23077304261645193,0.9847222222222223
1454,0.23080607862570202,0.9847222222222223
1455,0.23217707300958043,0.9847222222222223
1456,0.23221010901883052,0.9847222222222223
1457,0.23277172117608194,0.9847222222222223
1458,0.232804757185332,0.9847222222222223
1459,0.2345226296663363,0.9847222222222223
1460,0.2345556656755864,0.9847222222222223
1461,0.23496861579121242,0.9847222222222223
1462,0.2350016518004625,0.9847222222222223
1463,0.23528245787908822,0.9847222222222223
1464,0.23531549388833828,0.9847222222222223
1465,0.23675256029071687,0.9847222222222223
1466,0.23678559629996696,0.9847222222222223
1467,0.2370003303600925,0.9847222222222223
1468,0.23703336636934258,0.9847222222222223
1469,0.23985794516022466,0.9847222222222223
1470,0.2398744631648497,0.9854166666666667
1471,0.24074991740997687,0.9854166666666667
1472,0.24078295341922695,0.9854166666666667
1473,0.24253386190948134,0.9854166666666667
1474,0.24256689791873143,0.9854166666666667
1475,0.24273207796498183,0.9854166666666667
1476,0.24276511397423192,0.9854166666666667
1477,0.24329369012223323,0.9854166666666667
1478,0.24332672613148332,0.9854166666666667
1479,0.2435579781962339,0.9854166666666667
1480,0.2435579781962339,0.9861111111111112
1481,0.24393789230260984,0.9861111111111112
1482,0.2439544103072349,0.9868055555555556
1483,0.2446316484968616,0.9868055555555556
1484,0.24466468450611167,0.9868055555555556
1485,0.2449620085893624,0.9868055555555556
1486,0.2449950445986125,0.9868055555555556
1487,0.24588701684836473,0.9868055555555556
1488,0.2459200528576148,0.9868055555555556
1489,0.24596960687148992,0.9868055555555556
1490,0.24600264288074,0.9868055555555556
1491,0.24990089197224974,0.9868055555555556
1492,0.24990089197224974,0.9875
1493,0.2502147340601255,0.9875
1494,0.2502477700693756,0.9875
1495,0.25089197224975224,0.9875
1496,0.2509250082590023,0.9875
1497,0.2510571522960026,0.9875
1498,0.2510901883052527,0.9875
1499,0.2519326065411298,0.9875
1500,0.2519656425503799,0.9875
1501,0.25294020482325735,0.9875
1502,0.25297324083250744,0.9875
1503,0.25327056491575817,0.9875
1504,0.25330360092500825,0.9875
1505,0.25414601916088536,0.9875
1506,0.25417905517013545,0.9875
1507,0.25421209117938554,0.9875
1508,0.2542451271886356,0.9875
1509,0.25566567558638914,0.9875
1510,0.25566567558638914,0.9881944444444445
1511,0.25604558969276514,0.9881944444444445
1512,0.25604558969276514,0.9888888888888889
1513,0.25769739015526927,0.9888888888888889
1514,0.25769739015526927,0.9895833333333334
1515,0.2578130161876445,0.9895833333333334
1516,0.2578460521968946,0.9895833333333334
1517,0.26177733729765446,0.9895833333333334
1518,0.26181037330690454,0.9895833333333334
1519,0.2654443343244136,0.9895833333333334
1520,0.2654773703336637,0.9895833333333334
1521,0.26570862239841425,0.9895833333333334
1522,0.2657746944169144,0.9895833333333334
1523,0.2661711265279154,0.9895833333333334
1524,0.2662041625371655,0.9895833333333334
1525,0.2673604228609184,0.9895833333333334
1526,0.26739345887016847,0.9895833333333334
1527,0.2690948133465477,0.9895833333333334
1528,0.2691278493557978,0.9895833333333334
1529,0.2709117938553023,0.9895833333333334
1530,0.2709117938553023,0.9902777777777778
1531,0.27125867195242814,0.9902777777777778
1532,0.27129170796167823,0.9902777777777778
1533,0.2715725140403039,0.9902777777777778
1534,0.271605550049554,0.9902777777777778
1535,0.2735051205814338,0.9902777777777778
1536,0.27353815659068387,0.9902777777777778
1537,0.27357119259993395,0.9902777777777778
1538,0.273604228609184,0.9902777777777778
1539,0.27623059134456557,0.9902777777777778
1540,0.27626362735381566,0.9902777777777778
1541,0.2778163197885695,0.9902777777777778
1542,0.2778493557978196,0.9902777777777778
1543,0.2782953419226957,0.9902777777777778
1544,0.2783283779319458,0.9902777777777778
1545,0.2795672282788239,0.9902777777777778
1546,0.279600264288074,0.9902777777777778
1547,0.28082259663032705,0.9902777777777778
1548,0.28082259663032705,0.9909722222222223
1549,0.2812851007598282,0.9909722222222223
1550,0.2813181367690783,0.9909722222222223
1551,0.283201189296333,0.9909722222222223
1552,0.28323422530558306,0.9909722222222223
1553,0.2841922695738355,0.9909722222222223
1554,0.28422530558308556,0.9909722222222223
1555,0.2857945160224645,0.9909722222222223
1556,0.28582755203171456,0.9909722222222223
1557,0.29017178724810044,0.9909722222222223
1558,0.29020482325735053,0.9909722222222223
1559,0.2920548397753551,0.9909722222222223
1560,0.2920878757846052,0.9909722222222223
1561,0.2985133795837463,0.9909722222222223
1562,0.2985464155929964,0.9909722222222223
1563,0.29871159563924676,0.9909722222222223
1564,0.29874463164849685,0.9909722222222223
1565,0.29897588371324746,0.9909722222222223
1566,0.29900891972249755,0.9909722222222223
1567,0.2998017839444995,0.9909722222222223
1568,0.2998348199537496,0.9909722222222223
1569,0.30122233234225304,0.9909722222222223
1570,0.3012553683515031,0.9909722222222223
1571,0.301602246448629,0.9909722222222223
1572,0.3016352824578791,0.9909722222222223
1573,0.3016518004625041,0.9909722222222223
1574,0.3016848364717542,0.9909722222222223
1575,0.30181698050875455,0.9909722222222223
1576,0.30185001651800464,0.9909722222222223
1577,0.3024777006937562,0.9909722222222223
1578,0.3024777006937562,0.9916666666666667
1579,0.30287413280475717,0.9916666666666667
1580,0.30290716881400725,0.9916666666666667
1581,0.30404691113313514,0.9916666666666667
1582,0.3040799471423852,0.9916666666666667
1583,0.30462504129501156,0.9916666666666667
1584,0.30465807730426164,0.9916666666666667
1585,0.306805417905517,0.9916666666666667
1586,0.3068384539147671,0.9916666666666667
1587,0.3071192599933928,0.9916666666666667
1588,0.3071522960026429,0.9916666666666667
1589,0.30769739015526926,0.9916666666666667
1590,0.30773042616451934,0.9916666666666667
1591,0.30890320449289727,0.9916666666666667
1592,0.30890320449289727,0.9923611111111111
1593,0.30951437066402376,0.9923611111111111
1594,0.30954740667327385,0.9923611111111111
1595,0.3097456227287744,0.9923611111111111
1596,0.30977865873802446,0.9923611111111111
1597,0.31050545094152626,0.9923611111111111
1598,0.31053848695077635,0.9923611111111111
1599,0.3108523290386521,0.9923611111111111
1600,0.3108853650479022,0.9923611111111111
1601,0.311215725140403,0.9923611111111111
1602,0.3112487611496531,0.9923611111111111
1603,0.3119590353485299,0.9923611111111111
1604,0.31199207135777995,0.9923611111111111
1605,0.3124876114965312,0.9923611111111111
1606,0.3125206475057813,0.9923611111111111
1607,0.31400726792203504,0.9923611111111111
1608,0.3140403039312851,0.9923611111111111
1609,0.3144367360422861,0.9923611111111111
1610,0.3144697720515362,0.9923611111111111
1611,0.31684836471754213,0.9923611111111111
1612,0.31684836471754213,0.9930555555555556
1613,0.3168814007267922,0.9930555555555556
1614,0.3169144367360423,0.9930555555555556
1615,0.3170135447637925,0.9930555555555556
1616,0.3170135447637925,0.99375
1617,0.3189131152956723,0.99375
1618,0.3189461513049224,0.99375
1619,0.3194251734390486,0.99375
1620,0.31945820944829867,0.99375
1621,0.31988767756854974,0.99375
1622,0.3199207135777998,0.99375
1623,0.32125867195242813,0.99375
1624,0.3212917079616782,0.99375
1625,0.3216881400726792,0.99375
1626,0.3216881400726792,0.9944444444444445
1627,0.3227452923686819,0.9944444444444445
1628,0.32277832837793197,0.9944444444444445
1629,0.32418235877106044,0.9944444444444445
1630,0.32421539478031053,0.9944444444444445
1631,0.3243475388173109,0.9944444444444445
1632,0.3243475388173109,0.9951388888888889
1633,0.3278493557978196,0.9951388888888889
1634,0.3278823918070697,0.9951388888888889
1635,0.33214403700033035,0.9951388888888889
1636,0.33217707300958044,0.9951388888888889
1637,0.3343244136108358,0.9951388888888889
1638,0.3343574496200859,0.9951388888888889
1639,0.33670300627684174,0.9951388888888889
1640,0.33673604228609183,0.9951388888888889
1641,0.3403204492897258,0.9951388888888889
1642,0.3403534852989759,0.9951388888888889
1643,0.3412950115626032,0.9951388888888889
1644,0.3413280475718533,0.9951388888888889
1645,0.34302940204823257,0.9951388888888889
1646,0.34306243805748265,0.9951388888888889
1647,0.34360753221010903,0.9951388888888889
1648,0.3436405682193591,0.9951388888888889
1649,0.34554013875123885,0.9951388888888889
1650,0.34557317476048893,0.9951388888888889
1651,0.34601916088536505,0.9951388888888889
1652,0.34605219689461514,0.9951388888888889
1653,0.3465972910472415,0.9951388888888889
1654,0.34663032705649155,0.9951388888888889
1655,0.3480508754542451,0.9951388888888889
1656,0.3480839114634952,0.9951388888888889
1657,0.34945490584737365,0.9951388888888889
1658,0.34945490584737365,0.9958333333333333
1659,0.3507102741988768,0.9958333333333333
1660,0.3507433102081269,0.9958333333333333
1661,0.35077634621737697,0.9958333333333333
1662,0.350809382226627,0.9958333333333333
1663,0.3508919722497522,0.9958333333333333
1664,0.3509250082590023,0.9958333333333333
1665,0.35298975883713246,0.9958333333333333
1666,0.35302279484638255,0.9958333333333333
1667,0.3536669970267592,0.9958333333333333
1668,0.3537000330360093,0.9958333333333333
1669,0.35429468120251073,0.9958333333333333
1670,0.3543277172117608,0.9958333333333333
1671,0.3551205814337628,0.9958333333333333
1672,0.3551536174430129,0.9958333333333333
1673,0.35802775024777006,0.9958333333333333
1674,0.35806078625702015,0.9958333333333333
1675,0.3631648496861579,0.9958333333333333
1676,0.363197885695408,0.9958333333333333
1677,0.3636769078295342,0.9958333333333333
1678,0.3637099438387843,0.9958333333333333
1679,0.36372646184340934,0.9958333333333333
1680,0.3637594978526594,0.9958333333333333
1681,0.36418896597291045,0.9958333333333333
1682,0.36422200198216054,0.9958333333333333
1683,0.3649487941856624,0.9958333333333333
1684,0.3649818301949125,0.9958333333333333
1685,0.3651304922365378,0.9958333333333333
1686,0.3651635282457879,0.9958333333333333
1687,0.3682689131152957,0.9958333333333333
1688,0.3683019491245458,0.9958333333333333
1689,0.3693591014205484,0.9958333333333333
1690,0.3693921374297985,0.9958333333333333
1691,0.3702345556656756,0.9958333333333333
1692,0.3702675916749257,0.9958333333333333
1693,0.3721341261975553,0.9958333333333333
1694,0.3721671622068054,0.9958333333333333
1695,0.3754872811364387,0.9958333333333333
1696,0.3755203171456888,0.9958333333333333
1697,0.37553683515031383,0.9958333333333333
1698,0.3755698711595639,0.9958333333333333
1699,0.37601585728444004,0.9958333333333333
1700,0.3760488932936901,0.9958333333333333
1701,0.3765939874463165,0.9958333333333333
1702,0.3766270234555666,0.9958333333333333
1703,0.37832837793194585,0.9958333333333333
1704,0.3783614139411959,0.9958333333333333
1705,0.381185992732078,0.9958333333333333
1706,0.38121902874132807,0.9958333333333333
1707,0.3817971589032045,0.9958333333333333
1708,0.38183019491245457,0.9958333333333333
1709,0.3827221671622068,0.9958333333333333
1710,0.3827552031714569,0.9958333333333333
1711,0.382788239180707,0.9958333333333333
1712,0.38282127518995707,0.9958333333333333
1713,0.38334985133795835,0.9958333333333333
1714,0.38334985133795835,0.9965277777777778
1715,0.38412619755533534,0.9965277777777778
1716,0.3841592335645854,0.9965277777777778
1717,0.3842913776015857,0.9965277777777778
1718,0.3843244136108358,0.9965277777777778
1719,0.3847703997357119,0.9965277777777778
1720,0.384803435744962,0.9965277777777778
1721,0.38670300627684173,0.9965277777777778
1722,0.3867360422860918,0.9965277777777778
1723,0.38916418896597293,0.9965277777777778
1724,0.38919722497522297,0.9965277777777778
1725,0.39094813346547735,0.9965277777777778
1726,0.39098116947472744,0.9965277777777778
1727,0.39131152956722826,0.9965277777777778
1728,0.39134456557647834,0.9965277777777778
1729,0.3913941195903535,0.9965277777777778
1730,0.39142715559960356,0.9965277777777778
1731,0.39182358771060455,0.9965277777777778
1732,0.39185662371985464,0.9965277777777778
1733,0.3955731747604889,0.9965277777777778
1734,0.395606210769739,0.9965277777777778
1735,0.39661380905186655,0.9965277777777778
1736,0.39664684506111664,0.9965277777777778
1737,0.3988767756854972,0.9965277777777778
1738,0.39890981169474726,0.9965277777777778
1739,0.39963660389824907,0.9965277777777778
1740,0.39966963990749915,0.9965277777777778
1741,0.3999174099768748,0.9965277777777778
1742,0.3999504459861249,0.9965277777777778
1743,0.4005946481665015,0.9965277777777778
1744,0.40062768417575156,0.9965277777777778
1745,0.4015526924347539,0.9965277777777778
1746,0.401585728444004,0.9965277777777778
1747,0.4049223653782623,0.9965277777777778
1748,0.4049554013875124,0.9965277777777778
1749,0.40545094152626365,0.9965277777777778
1750,0.4054839775355137,0.9965277777777778
1751,0.4072844400396432,0.9965277777777778
1752,0.4073174760488933,0.9965277777777778
1753,0.4080938222662702,0.9965277777777778
1754,0.4081268582755203,0.9965277777777778
1755,0.4089197224975223,0.9965277777777778
1756,0.4089527585067724,0.9965277777777778
1757,0.4097951767426495,0.9965277777777778
1758,0.40982821275189957,0.9965277777777778
1759,0.41261975553353153,0.9965277777777778
1760,0.4126527915427816,0.9965277777777778
1761,0.4126858275520317,0.9965277777777778
1762,0.4127188635612818,0.9965277777777778
1763,0.4129996696399075,0.9965277777777778
1764,0.41303270564915756,0.9965277777777778
1765,0.4137594978526594,0.9965277777777778
1766,0.4137925338619095,0.9965277777777778
1767,0.4160720185001652,0.9965277777777778
1768,0.41610505450941526,0.9965277777777778
1769,0.41669970267591677,0.9965277777777778
1770,0.41673273868516686,0.9965277777777778
1771,0.41674925668979185,0.9965277777777778
1772,0.41678229269904193,0.9965277777777778
1773,0.4181532870829204,0.9965277777777778
1774,0.41818632309217046,0.9965277777777778
1775,0.42142385199867854,0.9965277777777778
1776,0.42145688800792863,0.9965277777777778
1777,0.42256359431780643,0.9965277777777778
1778,0.42262966633630655,0.9965277777777778
1779,0.4234555665675586,0.9965277777777778
1780,0.4234886025768087,0.9965277777777778
1781,0.42353815659068383,0.9965277777777778
1782,0.4235711925999339,0.9965277777777778
1783,0.42561942517343904,0.9965277777777778
1784,0.4256524611826891,0.9965277777777778
1785,0.4263627353815659,0.9965277777777778
1786,0.42639577139081597,0.9965277777777778
1787,0.43146679881070366,0.9965277777777778
1788,0.43149983481995374,0.9965277777777778
1789,0.43158242484307896,0.9965277777777778
1790,0.43161546085232905,0.9965277777777778
1791,0.43164849686157913,0.9965277777777778
1792,0.4316815328708292,0.9965277777777778
1793,0.43377931945820947,0.9965277777777778
1794,0.43381235546745955,0.9965277777777778
1795,0.4373141724479683,0.9965277777777778
1796,0.43734720845721836,0.9965277777777778
1797,0.43886686488272214,0.9965277777777778
1798,0.4388833828873472,0.9972222222222222
1799,0.4398083911463495,0.9972222222222222
1800,0.4398414271555996,0.9972222222222222
1801,0.4406012553683515,0.9972222222222222
1802,0.4406342913776016,0.9972222222222222
1803,0.44179055170135445,0.9972222222222222
1804,0.44182358771060454,0.9972222222222222
1805,0.44332672613148333,0.9972222222222222
1806,0.4433597621407334,0.9972222222222222
1807,0.44354146019160884,0.9972222222222222
1808,0.4435744962008589,0.9972222222222222
1809,0.4436405682193591,0.9972222222222222
1810,0.4436736042286092,0.9972222222222222
1811,0.4452428146679881,0.9972222222222222
1812,0.4452758506772382,0.9972222222222222
1813,0.44600264288074,0.9972222222222222
1814,0.4460356788899901,0.9972222222222222
1815,0.449190617773373,0.9972222222222222
1816,0.4492236537826231,0.9972222222222222
1817,0.45071027419887677,0.9972222222222222
1818,0.45074331020812686,0.9972222222222222
1819,0.4529897588371325,0.9972222222222222
1820,0.4530227948463826,0.9972222222222222
1821,0.45333663693425835,0.9972222222222222
1822,0.45336967294350844,0.9972222222222222
1823,0.4549884373967625,0.9972222222222222
1824,0.45502147340601257,0.9972222222222222
1825,0.4554674595308887,0.9972222222222222
1826,0.4555004955401388,0.9972222222222222
1827,0.45673934588701687,0.9972222222222222
1828,0.45677238189626695,0.9972222222222222
1829,0.456788899900892,0.9972222222222222
1830,0.45682193591014203,0.9972222222222222
1831,0.45716881400726794,0.9972222222222222
1832,0.45720185001651803,0.9972222222222222
1833,0.45949785265939874,0.9972222222222222
1834,0.45953088866864883,0.9972222222222222
1835,0.4619590353485299,0.9972222222222222
1836,0.46199207135778,0.9972222222222222
1837,0.46329699372315825,0.9972222222222222
1838,0.46333002973240833,0.9972222222222222
1839,0.46818632309217045,0.9972222222222222
1840,0.46821935910142054,0.9972222222222222
1841,0.47201850016518004,0.9972222222222222
1842,0.47205153617443013,0.9972222222222222
1843,0.4720845721836802,0.9972222222222222
1844,0.4721176081929303,0.9972222222222222
1845,0.4730756524611827,0.9972222222222222
1846,0.47310868847043275,0.9972222222222222
1847,0.4733564585398084,0.9972222222222222
1848,0.4733564585398084,0.9979166666666667
1849,0.47340601255368353,0.9979166666666667
1850,0.4734390485629336,0.9979166666666667
1851,0.47563594317806407,0.9979166666666667
1852,0.47566897918731416,0.9979166666666667
1853,0.47775024777006936,0.9979166666666667
1854,0.47778328377931945,0.9979166666666667
1855,0.4793029402048233,0.9979166666666667
1856,0.47933597621407337,0.9979166666666667
1857,0.48001321440370004,0.9979166666666667
1858,0.4800462504129501,0.9979166666666667
1859,0.4818962669309547,0.9979166666666667
1860,0.4819293029402048,0.9979166666666667
1861,0.48260654112983153,0.9979166666666667
1862,0.4826395771390816,0.9979166666666667
1863,0.48401057152296,0.9979166666666667
1864,0.4840436075322101,0.9979166666666667
1865,0.4847703997357119,0.9979166666666667
1866,0.484803435744962,0.9979166666666667
1867,0.4854311199207136,0.9979166666666667
1868,0.48546415592996367,0.9979166666666667
1869,0.4857614800132144,0.9979166666666667
1870,0.4857945160224645,0.9979166666666667
1871,0.4867525602907169,0.9979166666666667
1872,0.486785596299967,0.9979166666666667
1873,0.4878427485959696,0.9979166666666667
1874,0.4878757846052197,0.9979166666666667
1875,0.4885695407994714,0.9979166666666667
1876,0.4885695407994714,0.9986111111111111
1877,0.48878427485959697,0.9986111111111111
1878,0.48881731086884705,0.9986111111111111
1879,0.4903534852989759,0.9986111111111111
1880,0.49038652130822596,0.9986111111111111
1881,0.4907168814007268,0.9986111111111111
1882,0.49074991740997687,0.9986111111111111
1883,0.4922860918401057,0.9986111111111111
1884,0.4923191278493558,0.9986111111111111
1885,0.4943673604228609,0.9986111111111111
1886,0.494400396432111,0.9986111111111111
1887,0.49545754872811365,0.9986111111111111
1888,0.49549058473736374,0.9986111111111111
1889,0.4977700693756194,0.9986111111111111
1890,0.4978031053848695,0.9986111111111111
1891,0.4983151635282458,0.9986111111111111
1892,0.4983481995374959,0.9986111111111111
1893,0.49886025768087217,0.9986111111111111
1894,0.49889329369012225,0.9986111111111111
1895,0.4989098116947473,0.9986111111111111
1896,0.4989428477039974,0.9986111111111111
1897,0.49942186983812353,0.9986111111111111
1898,0.4994549058473736,0.9986111111111111
1899,0.5013544763792533,0.9986111111111111
1900,0.5013875123885034,0.9986111111111111
1901,0.5029402048232573,0.9986111111111111
1902,0.5029732408325074,0.9986111111111111
1903,0.5031549388833829,0.9986111111111111
1904,0.503187974892633,0.9986111111111111
1905,0.5038156590683845,0.9986111111111111
1906,0.5038486950776346,0.9986111111111111
1907,0.5050214734060126,0.9986111111111111
1908,0.5050545094152626,0.9986111111111111
1909,0.5053683515031384,0.9986111111111111
1910,0.5054013875123885,0.9986111111111111
1911,0.506821935910142,0.9986111111111111
1912,0.506821935910142,0.9993055555555556
1913,0.5070531879748926,0.9993055555555556
1914,0.5070862239841427,0.9993055555555556
1915,0.5099768747935249,0.9993055555555556
1916,0.510009910802775,0.9993055555555556
1917,0.5156921043937892,0.9993055555555556
1918,0.5157251404030393,0.9993055555555556
1919,0.5171787248100429,0.9993055555555556
1920,0.517211760819293,0.9993055555555556
1921,0.5222497522299306,0.9993055555555556
1922,0.5222827882391807,0.9993055555555556
1923,0.5241658407664355,0.9993055555555556
1924,0.5241988767756856,0.9993055555555556
1925,0.5251569210439379,0.9993055555555556
1926,0.5251899570531879,0.9993055555555556
1927,0.5268747935249422,0.9993055555555556
1928,0.5269078295341922,0.9993055555555556
1929,0.5280475718533201,0.9993055555555556
1930,0.5280806078625702,0.9993055555555556
1931,0.5296498183019491,0.9993055555555556
1932,0.5296828543111992,0.9993055555555556
1933,0.5301618764453254,0.9993055555555556
1934,0.5301949124545755,0.9993055555555556
1935,0.5306739345887017,0.9993055555555556
1936,0.5307400066072019,0.9993055555555556
1937,0.5312685827552032,0.9993055555555556
1938,0.5313016187644533,0.9993055555555556
1939,0.5328377931945821,0.9993055555555556
1940,0.5328708292038322,0.9993055555555556
1941,0.5335480673934588,0.9993055555555556
1942,0.5335811034027089,0.9993055555555556
1943,0.5347043277172118,0.9993055555555556
1944,0.5347373637264619,0.9993055555555556
1945,0.5350677238189626,0.9993055555555556
1946,0.5351007598282127,0.9993055555555556
1947,0.5367690782953419,0.9993055555555556
1948,0.536802114304592,0.9993055555555556
1949,0.5375619425173439,0.9993055555555556
1950,0.537594978526594,0.9993055555555556
1951,0.5384704327717211,0.9993055555555556
1952,0.5385034687809712,0.9993055555555556
1953,0.5407003633961017,0.9993055555555556
1954,0.5407333994053518,0.9993055555555556
1955,0.5436570862239841,0.9993055555555556
1956,0.5436901222332342,0.9993055555555556
1957,0.5437231582424843,0.9993055555555556
1958,0.5437561942517344,0.9993055555555556
1959,0.5456722827882392,0.9993055555555556
1960,0.5457053187974893,0.9993055555555556
1961,0.5471423851998679,0.9993055555555556
1962,0.5471754212091179,0.9993055555555556
1963,0.5514205483977536,0.9993055555555556
1964,0.5514535844070036,0.9993055555555556
1965,0.5514866204162537,0.9993055555555556
1966,0.5515196564255038,0.9993055555555556
1967,0.5517178724810043,0.9993055555555556
1968,0.5517509084902544,0.9993055555555556
1969,0.5538156590683846,0.9993055555555556
1970,0.5538486950776346,0.9993055555555556
1971,0.5543442352163859,0.9993055555555556
1972,0.554377271225636,0.9993055555555556
1973,0.554393789230261,0.9993055555555556
1974,0.554426825239511,0.9993055555555556
1975,0.5546911133135117,0.9993055555555556
1976,0.5547241493227618,0.9993055555555556
1977,0.555599603567889,0.9993055555555556
1978,0.555632639577139,0.9993055555555556
1979,0.5558143376280146,0.9993055555555556
1980,0.5558473736372647,0.9993055555555556
1981,0.5560951437066403,0.9993055555555556
1982,0.5561281797158903,0.9993055555555556
1983,0.5574331020812686,0.9993055555555556
1984,0.5574661380905187,0.9993055555555556
1985,0.5583085563263958,0.9993055555555556
1986,0.5583415923356458,0.9993055555555556
1987,0.5607036669970268,0.9993055555555556
1988,0.5607367030062769,0.9993055555555556
1989,0.5624215394780311,0.9993055555555556
1990,0.5624545754872812,0.9993055555555556
1991,0.5660389824909151,0.9993055555555556
1992,0.5660720185001652,0.9993055555555556
1993,0.5669309547406673,0.9993055555555556
1994,0.5669639907499174,0.9993055555555556
1995,0.5730095804426826,0.9993055555555556
1996,0.5730426164519326,0.9993055555555556
1997,0.5735711925999339,0.9993055555555556
1998,0.573604228609184,0.9993055555555556
1999,0.5736537826230591,0.9993055555555556
2000,0.5736868186323092,0.9993055555555556
2001,0.5753055830855632,0.9993055555555556
2002,0.5753386190948133,0.9993055555555556
2003,0.5775685497191939,0.9993055555555556
2004,0.577601585728444,0.9993055555555556
2005,0.5788734720845722,0.9993055555555556
2006,0.5789065080938223,0.9993055555555556
2007,0.5801453584407004,0.9993055555555556
2008,0.5801783944499505,0.9993055555555556
2009,0.5817971589032045,0.9993055555555556
2010,0.5818301949124546,0.9993055555555556
2011,0.581995374958705,0.9993055555555556
2012,0.5820284109679551,0.9993055555555556
2013,0.5838619094813347,0.9993055555555556
2014,0.5838949454905847,0.9993055555555556
2015,0.583994053518335,0.9993055555555556
2016,0.5840270895275851,0.9993055555555556
2017,0.5846547737033366,0.9993055555555556
2018,0.5846878097125867,0.9993055555555556
2019,0.586818632309217,0.9993055555555556
2020,0.5868516683184671,0.9993055555555556
2021,0.5868847043277172,0.9993055555555556
2022,0.5869177403369673,0.9993055555555556
2023,0.5869342583415923,0.9993055555555556
2024,0.5869672943508424,0.9993055555555556
2025,0.5910802775024777,0.9993055555555556
2026,0.5911133135117278,0.9993055555555556
2027,0.5919557317476049,0.9993055555555556
2028,0.5919887677568549,0.9993055555555556
2029,0.5931450280806079,0.9993055555555556
2030,0.593178064089858,0.9993055555555556
2031,0.597191939213743,0.9993055555555556
2032,0.5972249752229931,0.9993055555555556
2033,0.5984803435744962,0.9993055555555556
2034,0.5985133795837463,0.9993055555555556
2035,0.6021473406012554,0.9993055555555556
2036,0.6021803766105055,0.9993055555555556
2037,0.6027915427816319,0.9993055555555556
2038,0.602824578790882,0.9993055555555556
2039,0.6039312851007598,0.9993055555555556
2040,0.6039643211100099,0.9993055555555556
2041,0.6057152296002642,0.9993055555555556
2042,0.6057482656095143,0.9993055555555556
2043,0.6067228278823918,0.9993055555555556
2044,0.6067558638916419,0.9993055555555556
2045,0.6108358110340271,0.9993055555555556
2046,0.6108688470432772,0.9993055555555556
2047,0.6111166171126527,0.9993055555555556
2048,0.6111496531219028,0.9993055555555556
2049,0.6142054839775355,0.9993055555555556
2050,0.6142385199867856,0.9993055555555556
2051,0.6149157581764123,0.9993055555555556
2052,0.6149487941856624,0.9993055555555556
2053,0.6150313842087876,0.9993055555555556
2054,0.6150644202180376,0.9993055555555556
2055,0.6154112983151635,0.9993055555555556
2056,0.6154443343244136,0.9993055555555556
2057,0.615626032375289,0.9993055555555556
2058,0.6156590683845391,0.9993055555555556
2059,0.6165014866204163,0.9993055555555556
2060,0.6165345226296663,0.9993055555555556
2061,0.6168814007267922,0.9993055555555556
2062,0.6169144367360423,0.9993055555555556
2063,0.6204492897258012,0.9993055555555556
2064,0.6204823257350512,0.9993055555555556
2065,0.6228939544103073,0.9993055555555556
2066,0.6229269904195573,0.9993055555555556
2067,0.6231912784935579,0.9993055555555556
2068,0.623224314502808,0.9993055555555556
2069,0.626395771390816,0.9993055555555556
2070,0.6264288074000661,0.9993055555555556
2071,0.6265279154278163,0.9993055555555556
2072,0.6265609514370664,0.9993055555555556
2073,0.6265939874463164,0.9993055555555556
2074,0.6266270234555665,0.9993055555555556
2075,0.6277832837793195,0.9993055555555556
2076,0.6278163197885696,0.9993055555555556
2077,0.6284935579781963,0.9993055555555556
2078,0.6285265939874464,0.9993055555555556
2079,0.6298975883713247,0.9993055555555556
2080,0.6299306243805748,0.9993055555555556
2081,0.6300462504129501,0.9993055555555556
2082,0.6300792864222002,0.9993055555555556
2083,0.6303435744962008,0.9993055555555556
2084,0.6303766105054509,0.9993055555555556
2085,0.6336471754212091,0.9993055555555556
2086,0.6336802114304592,0.9993055555555556
2087,0.6356293359762141,0.9993055555555556
2088,0.6356623719854642,0.9993055555555556
2089,0.6368847043277173,0.9993055555555556
2090,0.6369177403369672,0.9993055555555556
2091,0.6415592996366039,0.9993055555555556
2092,0.6415923356458539,0.9993055555555556
2093,0.6429633300297324,0.9993055555555556
2094,0.6429963660389825,0.9993055555555556
2095,0.6434588701684837,0.9993055555555556
2096,0.6434919061777338,0.9993055555555556
2097,0.6445160224644862,0.9993055555555556
2098,0.6445490584737363,0.9993055555555556
2099,0.6446151304922365,0.9993055555555556
2100,0.6446481665014866,0.9993055555555556
2101,0.64596960687149,0.9993055555555556
2102,0.64600264288074,0.9993055555555556
2103,0.6498513379583746,0.9993055555555556
2104,0.6498843739676247,0.9993055555555556
2105,0.6500991080277503,0.9993055555555556
2106,0.6501321440370004,0.9993055555555556
2107,0.6505120581433763,0.9993055555555556
2108,0.6505450941526264,0.9993055555555556
2109,0.6533036009250083,0.9993055555555556
2110,0.6533366369342584,0.9993055555555556
2111,0.6542451271886356,0.9993055555555556
2112,0.6542781631978857,0.9993055555555556
2113,0.654426825239511,0.9993055555555556
2114,0.6544598612487611,0.9993055555555556
2115,0.656772381896267,0.9993055555555556
2116,0.656805417905517,0.9993055555555556
2117,0.65802775024777,0.9993055555555556
2118,0.6580607862570201,0.9993055555555556
2119,0.6598777667657747,0.9993055555555556
2120,0.6599108027750248,0.9993055555555556
2121,0.6612487611496531,0.9993055555555556
2122,0.6612817971589032,0.9993055555555556
2123,0.662817971589032,0.9993055555555556
2124,0.6628510075982821,0.9993055555555556
2125,0.6638090518665345,0.9993055555555556
2126,0.6638420878757846,0.9993055555555556
2127,0.6641228939544103,0.9993055555555556
2128,0.6641559299636604,0.9993055555555556
2129,0.6673769408655434,0.9993055555555556
2130,0.6674099768747935,0.9993055555555556
2131,0.6692930294020483,0.9993055555555556
2132,0.6693260654112984,0.9993055555555556
2133,0.6698381235546746,0.9993055555555556
2134,0.6698711595639246,0.9993055555555556
2135,0.6699207135777998,0.9993055555555556
2136,0.6699537495870499,0.9993055555555556
2137,0.6725305583085563,0.9993055555555556
2138,0.6725635943178064,0.9993055555555556
2139,0.6729765444334325,0.9993055555555556
2140,0.6730095804426826,0.9993055555555556
2141,0.6749421869838124,0.9993055555555556
2142,0.6749752229930625,0.9993055555555556
2143,0.6765279154278163,0.9993055555555556
2144,0.6765609514370664,0.9993055555555556
2145,0.6797158903204493,0.9993055555555556
2146,0.6797489263296994,0.9993055555555556
2147,0.6797984803435745,0.9993055555555556
2148,0.6798315163528246,0.9993055555555556
2149,0.6834985133795838,0.9993055555555556
2150,0.683564585398084,0.9993055555555556
2151,0.6837793194582095,0.9993055555555556
2152,0.6838123554674596,0.9993055555555556
2153,0.6857449620085894,0.9993055555555556
2154,0.6857779980178395,0.9993055555555556
2155,0.686025768087215,0.9993055555555556
2156,0.6860588040964651,0.9993055555555556
2157,0.6876775685497192,0.9993055555555556
2158,0.6877106045589693,0.9993055555555556
2159,0.6882887347208457,0.9993055555555556
2160,0.6883217707300958,0.9993055555555556
2161,0.6883713247439709,0.9993055555555556
2162,0.688404360753221,0.9993055555555556
2163,0.6884208787578461,0.9993055555555556
2164,0.6884208787578461,1.0
2165,0.6894449950445987,1.0
2166,0.6894780310538487,1.0
2167,0.6903534852989759,1.0
2168,0.690386521308226,1.0
2169,0.6911628675256029,1.0
2170,0.6911959035348529,1.0
2171,0.6921869838123554,1.0
2172,0.6922200198216055,1.0
2173,0.693161546085233,1.0
2174,0.693194582094483,1.0
2175,0.6949785265939874,1.0
2176,0.6950115626032375,1.0
2177,0.6963164849686158,1.0
2178,0.6963495209778658,1.0
2179,0.6973240832507434,1.0
2180,0.6973571192599934,1.0
2181,0.6999504459861249,1.0
2182,0.699983481995375,1.0
2183,0.7040964651470102,1.0
2184,0.7041295011562603,1.0
2185,0.7054179055170136,1.0
2186,0.7054509415262636,1.0
2187,0.7075487281136439,1.0
2188,0.707581764122894,1.0
2189,0.710009910802775,1.0
2190,0.7100429468120251,1.0
2191,0.710802775024777,1.0
2192,0.710835811034027,1.0
2193,0.7112322431450281,1.0
2194,0.7112652791542782,1.0
2195,0.7129501156260324,1.0
2196,0.7129831516352825,1.0
2197,0.7133961017509085,1.0
2198,0.7134291377601586,1.0
2199,0.7141394119590353,1.0
2200,0.7141724479682854,1.0
2201,0.7149157581764123,1.0
2202,0.7149487941856624,1.0
2203,0.7181037330690453,1.0
2204,0.7181367690782954,1.0
2205,0.7186323092170466,1.0
2206,0.7186653452262967,1.0
2207,0.7226627023455566,1.0
2208,0.7226957383548067,1.0
2209,0.7245787908820615,1.0
2210,0.7246118268913115,1.0
2211,0.7262636273538157,1.0
2212,0.7262966633630658,1.0
2213,0.7283614139411959,1.0
2214,0.728394449950446,1.0
2215,0.7291047241493228,1.0
2216,0.7291377601585728,1.0
2217,0.7293359762140733,1.0
2218,0.7293690122233234,1.0
2219,0.7304261645193261,1.0
2220,0.7304592005285762,1.0
2221,0.7309712586719525,1.0
2222,0.7310042946812025,1.0
2223,0.7315328708292038,1.0
2224,0.7315659068384539,1.0
2225,0.733217707300958,1.0
2226,0.7332507433102081,1.0
2227,0.7353154938883383,1.0
2228,0.7353485298975884,1.0
2229,0.7359431780640898,1.0
2230,0.7359762140733399,1.0
2231,0.7366534522629666,1.0
2232,0.7367030062768417,1.0
2233,0.7376445325404691,1.0
2234,0.7376775685497192,1.0
2235,0.7377436405682194,1.0
2236,0.7377766765774695,1.0
2237,0.7383878427485959,1.0
2238,0.738420878757846,1.0
2239,0.7390320449289726,1.0
2240,0.7390650809382227,1.0
2241,0.7406838453914767,1.0
2242,0.7407168814007268,1.0
2243,0.740782953419227,1.0
2244,0.740815989428477,1.0
2245,0.741592335645854,1.0
2246,0.7416253716551041,1.0
2247,0.7419392137429799,1.0
2248,0.74197224975223,1.0
2249,0.7420878757846052,1.0
2250,0.7421209117938553,1.0
2251,0.742401717872481,1.0
2252,0.7424347538817311,1.0
2253,0.7449950445986124,1.0
2254,0.7450280806078625,1.0
2255,0.7455236207466138,1.0
2256,0.7455566567558639,1.0
2257,0.7460852329038652,1.0
2258,0.7461182689131153,1.0
2259,0.7468780971258672,1.0
2260,0.7469111331351173,1.0
2261,0.7495374958704989,1.0
2262,0.749570531879749,1.0
2263,0.7502312520647506,1.0
2264,0.7502642880740007,1.0
2265,0.7504790221341262,1.0
2266,0.7505120581433763,1.0
2267,0.7512884043607532,1.0
2268,0.7513214403700033,1.0
2269,0.7518004625041295,1.0
2270,0.7518334985133796,1.0
2271,0.752775024777007,1.0
2272,0.7528080607862571,1.0
2273,0.7550875454245127,1.0
2274,0.7551205814337628,1.0
2275,0.7566072018500165,1.0
2276,0.7566402378592666,1.0
2277,0.7567558638916418,1.0
2278,0.7567888999008919,1.0
2279,0.7578625702015197,1.0
2280,0.7578956062107698,1.0
2281,0.7585893624050215,1.0
2282,0.7586223984142716,1.0
2283,0.7604228609184011,1.0
2284,0.7604558969276511,1.0
2285,0.7636108358110341,1.0
2286,0.7636438718202841,1.0
2287,0.7641228939544104,1.0
2288,0.7641559299636604,1.0
2289,0.765576478361414,1.0
2290,0.765609514370664,1.0
2291,0.7694251734390486,1.0
2292,0.7694582094482987,1.0
2293,0.7699867855963,1.0
2294,0.77001982160555,1.0
2295,0.7727452923686818,1.0
2296,0.7727783283779319,1.0
2297,0.772811364387182,1.0
2298,0.7728444003964321,1.0
2299,0.7728609184010572,1.0
2300,0.7728939544103073,1.0
2301,0.7741823587710605,1.0
2302,0.7742153947803105,1.0
2303,0.7743475388173109,1.0
2304,0.774380574826561,1.0
2305,0.7756194251734391,1.0
2306,0.7756524611826892,1.0
2307,0.7779319458209448,1.0
2308,0.7779649818301949,1.0
2309,0.7789065080938222,1.0
2310,0.7789395441030723,1.0
2311,0.7793359762140734,1.0
2312,0.7793690122233234,1.0
2313,0.7803435744962008,1.0
2314,0.780393128510076,1.0
2315,0.7842253055830856,1.0
2316,0.7842583415923357,1.0
2317,0.7845556656755864,1.0
2318,0.7845887016848365,1.0
2319,0.7846382556987116,1.0
2320,0.7846712917079617,1.0
2321,0.7852494218698381,1.0
2322,0.7852824578790882,1.0
2323,0.7862900561612157,1.0
2324,0.7863230921704658,1.0
2325,0.786389164188966,1.0
2326,0.7864222001982161,1.0
2327,0.787182028410968,1.0
2328,0.787215064420218,1.0
2329,0.7881565906838454,1.0
2330,0.7881896266930954,1.0
2331,0.7885034687809712,1.0
2332,0.7885365047902213,1.0
2333,0.790782953419227,1.0
2334,0.7908159894284771,1.0
2335,0.7944499504459861,1.0
2336,0.7944829864552362,1.0
2337,0.7966633630657417,1.0
2338,0.7966963990749918,1.0
2339,0.8019160885365048,1.0
2340,0.8019491245457548,1.0
2341,0.8040964651470103,1.0
2342,0.8041295011562604,1.0
2343,0.8077139081598943,1.0
2344,0.8077469441691444,1.0
2345,0.8080112322431451,1.0
2346,0.8080442682523951,1.0
2347,0.8102246448629006,1.0
2348,0.8102576808721507,1.0
2349,0.8124215394780311,1.0
2350,0.8124545754872812,1.0
2351,0.8129501156260324,1.0
2352,0.8129831516352825,1.0
2353,0.8150809382226627,1.0
2354,0.8151139742319128,1.0
2355,0.8154278163197886,1.0
2356,0.8154608523290386,1.0
2357,0.8156260323752891,1.0
2358,0.8156590683845392,1.0
2359,0.8179550710274199,1.0
2360,0.81798810703667,1.0
2361,0.8186488272216716,1.0
2362,0.8186818632309217,1.0
2363,0.8199207135777998,1.0
2364,0.8199537495870499,1.0
2365,0.8234390485629336,1.0
2366,0.8234720845721837,1.0
2367,0.8241658407664354,1.0
2368,0.8241988767756855,1.0
2369,0.8257350512058144,1.0
2370,0.8257680872150645,1.0
2371,0.8259332672613149,1.0
2372,0.8259663032705649,1.0
2373,0.8281631978856954,1.0
2374,0.8281962338949455,1.0
2375,0.8286587380244467,1.0
2376,0.8286917740336968,1.0
2377,0.8307069705979517,1.0
2378,0.8307400066072018,1.0
2379,0.8311859927320779,1.0
2380,0.831219028741328,1.0
2381,0.8350677238189627,1.0
2382,0.8351007598282127,1.0
2383,0.8354806739345887,1.0
2384,0.8355137099438388,1.0
2385,0.8411628675256029,1.0
2386,0.841195903534853,1.0
2387,0.8444995044598612,1.0
2388,0.8445325404691113,1.0
2389,0.8458704988437397,1.0
2390,0.8459035348529897,1.0
2391,0.8468120251073671,1.0
2392,0.8468450611166171,1.0
2393,0.8479187314172448,1.0
2394,0.8479517674264949,1.0
2395,0.8482325735051206,1.0
2396,0.8482656095143707,1.0
2397,0.8495540138751239,1.0
2398,0.849587049884374,1.0
2399,0.8513214403700033,1.0
2400,0.8513544763792534,1.0
2401,0.8565246118268913,1.0
2402,0.8565576478361414,1.0
2403,0.8576148001321441,1.0
2404,0.8576478361413942,1.0
2405,0.8591509745622729,1.0
2406,0.8591840105715229,1.0
2407,0.8602576808721506,1.0
2408,0.8602907168814007,1.0
2409,0.8610835811034027,1.0
2410,0.8611166171126527,1.0
2411,0.8617112652791543,1.0
2412,0.8617443012884044,1.0
2413,0.8622563594317807,1.0
2414,0.8622893954410307,1.0
2415,0.864420218037661,1.0
2416,0.8644532540469111,1.0
2417,0.8654278163197886,1.0
2418,0.8654608523290387,1.0
2419,0.8663032705649157,1.0
2420,0.8663363065741658,1.0
2421,0.866798810703667,1.0
2422,0.8668318467129171,1.0
2423,0.8692765113974232,1.0
2424,0.8693095474066733,1.0
2425,0.8699537495870499,1.0
2426,0.8699867855962999,1.0
2427,0.8738850346878098,1.0
2428,0.8739180706970598,1.0
2429,0.8746778989098117,1.0
2430,0.8747109349190618,1.0
2431,0.878394449950446,1.0
2432,0.8784274859596961,1.0
2433,0.8794516022464486,1.0
2434,0.8794846382556987,1.0
2435,0.88201189296333,1.0
2436,0.8820449289725801,1.0
2437,0.882821275189957,1.0
2438,0.8828543111992071,1.0
2439,0.8839940535183349,1.0
2440,0.884027089527585,1.0
2441,0.8854806739345887,1.0
2442,0.8855137099438388,1.0
2443,0.8857449620085893,1.0
2444,0.8857779980178394,1.0
2445,0.8865213082259663,1.0
2446,0.8865543442352164,1.0
2447,0.8875123885034688,1.0
2448,0.8875454245127189,1.0
2449,0.8892467789890981,1.0
2450,0.8892798149983482,1.0
2451,0.8898579451602247,1.0
2452,0.8898909811694747,1.0
2453,0.8926494879418566,1.0
2454,0.8926825239511067,1.0
2455,0.8930294020482326,1.0
2456,0.8930624380574826,1.0
2457,0.8938057482656095,1.0
2458,0.8938387842748596,1.0
2459,0.896382556987116,1.0
2460,0.8964155929963661,1.0
2461,0.897588371324744,1.0
2462,0.8976214073339941,1.0
2463,0.8982656095143706,1.0
2464,0.8982986455236207,1.0
2465,0.8990419557317476,1.0
2466,0.8990749917409977,1.0
2467,0.9007598282127519,1.0
2468,0.900792864222002,1.0
2469,0.9019656425503799,1.0
2470,0.90199867855963,1.0
2471,0.9078956062107697,1.0
2472,0.9079286422200198,1.0
2473,0.9080607862570201,1.0
2474,0.9080938222662702,1.0
2475,0.9091344565576478,1.0
2476,0.9091674925668979,1.0
2477,0.9123719854641559,1.0
2478,0.912405021473406,1.0
2479,0.9127518995705319,1.0
2480,0.9127849355797819,1.0
2481,0.9140898579451602,1.0
2482,0.9141228939544103,1.0
2483,0.9141559299636604,1.0
2484,0.9141889659729104,1.0
2485,0.9149983481995375,1.0
2486,0.9150313842087876,1.0
2487,0.916369342583416,1.0
2488,0.916402378592666,1.0
2489,0.916782292699042,1.0
2490,0.9168153287082921,1.0
2491,0.9192765113974232,1.0
2492,0.9193095474066733,1.0
2493,0.9199537495870499,1.0
2494,0.9199867855963,1.0
2495,0.9209448298645524,1.0
2496,0.9209778658738025,1.0
2497,0.9214403700033036,1.0
2498,0.9214734060125537,1.0
2499,0.9217707300958045,1.0
2500,0.9218037661050545,1.0
2501,0.9231252064750578,1.0
2502,0.9231582424843079,1.0
2503,0.9247770069375619,1.0
2504,0.924810042946812,1.0
2505,0.9258837132474397,1.0
2506,0.9259167492566898,1.0
2507,0.9312851007598282,1.0
2508,0.9313181367690783,1.0
2509,0.9390155269243475,1.0
2510,0.9390485629335976,1.0
2511,0.9402048232573506,1.0
2512,0.9402378592666006,1.0
2513,0.9420548397753551,1.0
2514,0.9420878757846052,1.0
2515,0.9435084241823588,1.0
2516,0.9435414601916089,1.0
2517,0.9467294350842418,1.0
2518,0.9467624710934919,1.0
2519,0.9492401717872481,1.0
2520,0.9492732077964982,1.0
2521,0.9506442021803766,1.0
2522,0.9506772381896267,1.0
2523,0.9517013544763793,1.0
2524,0.9517343904856294,1.0
2525,0.9524611826891312,1.0
2526,0.9524942186983812,1.0
2527,0.9527089527585068,1.0
2528,0.9527419887677568,1.0
2529,0.9532044928972581,1.0
2530,0.9532375289065081,1.0
2531,0.9533201189296333,1.0
2532,0.9533531549388834,1.0
2533,0.9550710274198877,1.0
2534,0.9551040634291378,1.0
2535,0.9559629996696399,1.0
2536,0.95599603567889,1.0
2537,0.9561612157251405,1.0
2538,0.9561942517343904,1.0
2539,0.9573009580442683,1.0
2540,0.9573339940535184,1.0
2541,0.9603072348860258,1.0
2542,0.9603402708952758,1.0
2543,0.9618929633300297,1.0
2544,0.9619259993392798,1.0
2545,0.9641228939544103,1.0
2546,0.9641559299636604,1.0
2547,0.9682523951106706,1.0
2548,0.9682854311199207,1.0
2549,0.969590353485299,1.0
2550,0.9696233894945491,1.0
2551,0.9697720515361744,1.0
2552,0.9698050875454245,1.0
2553,0.9771555996035679,1.0
2554,0.977188635612818,1.0
2555,0.9780971258671952,1.0
2556,0.9781301618764453,1.0
2557,0.9794846382556988,1.0
2558,0.9795176742649488,1.0
2559,0.9800462504129501,1.0
2560,0.9800792864222002,1.0
2561,0.9808391146349521,1.0
2562,0.9808721506442022,1.0
2563,0.9825074331020812,1.0
2564,0.9825404691113313,1.0
2565,0.9837628014535844,1.0
2566,0.9837958374628345,1.0
2567,0.9857284440039643,1.0
2568,0.9857614800132144,1.0
2569,0.9858110340270895,1.0
2570,0.9858440700363396,1.0
2571,0.9869838123554675,1.0
2572,0.9870168483647176,1.0
2573,0.99000660720185,1.0
2574,0.9900396432111,1.0
2575,0.9905847373637264,1.0
2576,0.9906177733729765,1.0
2577,0.9935249421869838,1.0
2578,0.9935579781962339,1.0
2579,0.9937066402378593,1.0
2580,0.9937396762471093,1.0
2581,0.9943673604228609,1.0
2582,0.994400396432111,1.0
2583,0.9965312190287413,1.0
2584,0.9965642550379914,1.0
2585,0.9992732077964982,1.0
2586,0.9993062438057483,1.0
2587,1.0,1.0
