,fpr,tpr
0,0.0,0.0
1,0.0,0.0003403675970047651
2,0.0,0.0037440435670524166
3,1.7075919538267136e-05,0.0037440435670524166
4,1.7075919538267136e-05,0.015997277059223963
5,1.7075919538267136e-05,0.016678012253233492
6,1.7075919538267136e-05,0.09496255956432947
7,3.415183907653427e-05,0.09496255956432947
8,3.415183907653427e-05,0.10619469026548672
9,5.1227758614801405e-05,0.10619469026548672
10,5.1227758614801405e-05,0.2756977535738598
11,6.830367815306854e-05,0.2756977535738598
12,6.830367815306854e-05,0.2773995915588836
13,8.537959769133568e-05,0.2773995915588836
14,8.537959769133568e-05,0.3270932607215793
15,0.00010245551722960281,0.3270932607215793
16,0.00010245551722960281,0.3512593601089176
17,0.00011953143676786995,0.3512593601089176
18,0.00011953143676786995,0.3829135466303608
19,0.0001366073563061371,0.3829135466303608
20,0.0001366073563061371,0.42341729067392786
21,0.0001366073563061371,0.4240980258679374
22,0.0001366073563061371,0.4632402995234854
23,0.00015368327584440423,0.4632402995234854
24,0.00015368327584440423,0.48298162014976176
25,0.00017075919538267137,0.48298162014976176
26,0.00017075919538267137,0.48774676650782844
27,0.00018783511492093848,0.48774676650782844
28,0.00018783511492093848,0.505786249149081
29,0.00020491103445920562,0.505786249149081
30,0.00020491103445920562,0.5159972770592239
31,0.00022198695399747276,0.5159972770592239
32,0.00022198695399747276,0.5265486725663717
33,0.0002390628735357399,0.5265486725663717
34,0.0002390628735357399,0.5353982300884956
35,0.000256138793074007,0.5353982300884956
36,0.000256138793074007,0.5439074200136147
37,0.0002732147126122742,0.5439074200136147
38,0.0002732147126122742,0.5571817562968006
39,0.0002902906321505413,0.5571817562968006
40,0.0002902906321505413,0.5585432266848196
41,0.00030736655168880846,0.5585432266848196
42,0.00030736655168880846,0.5663716814159292
43,0.00032444247122707557,0.5663716814159292
44,0.00032444247122707557,0.5684138869979578
45,0.00034151839076534274,0.5684138869979578
46,0.00034151839076534274,0.5707964601769911
47,0.00037567022984187696,0.5707964601769911
48,0.00037567022984187696,0.5735194009530292
49,0.00039274614938014413,0.5735194009530292
50,0.00039274614938014413,0.5738597685500341
51,0.00040982206891841124,0.5738597685500341
52,0.00040982206891841124,0.5762423417290674
53,0.0004268979884566784,0.5762423417290674
54,0.0004268979884566784,0.578284547311096
55,0.0004439739079949455,0.578284547311096
56,0.0004439739079949455,0.5820285908781484
57,0.0004610498275332127,0.5820285908781484
58,0.0004610498275332127,0.5837304288631723
59,0.0004781257470714798,0.5837304288631723
60,0.0004781257470714798,0.5878148400272294
61,0.0004952016666097469,0.5878148400272294
62,0.0004952016666097469,0.595643294758339
63,0.000512277586148014,0.595643294758339
64,0.000512277586148014,0.5963240299523486
65,0.0005293535056862812,0.5963240299523486
66,0.0005293535056862812,0.6106194690265486
67,0.0005635053447628155,0.6106194690265486
68,0.0005635053447628155,0.6116405718175629
69,0.0005805812643010826,0.6116405718175629
70,0.0005805812643010826,0.6143635125936011
71,0.0005976571838393497,0.6143635125936011
72,0.0005976571838393497,0.617426820966644
73,0.0006147331033776169,0.617426820966644
74,0.0006147331033776169,0.6255956432947584
75,0.0006488849424541511,0.6255956432947584
76,0.0006488849424541511,0.6296800544588155
77,0.0006830367815306855,0.6296800544588155
78,0.0006830367815306855,0.6310415248468346
79,0.0007171886206072197,0.6310415248468346
80,0.0007171886206072197,0.6330837304288631
81,0.0007342645401454868,0.6330837304288631
82,0.0007342645401454868,0.633424098025868
83,0.0007513404596837539,0.633424098025868
84,0.0007513404596837539,0.6375085091899251
85,0.0007684163792220211,0.6375085091899251
86,0.0007684163792220211,0.6388699795779442
87,0.0007854922987602883,0.6388699795779442
88,0.0007854922987602883,0.639210347174949
89,0.0008025682182985554,0.639210347174949
90,0.0008025682182985554,0.640571817562968
91,0.0008196441378368225,0.640571817562968
92,0.0008196441378368225,0.6412525527569776
93,0.0008367200573750896,0.6412525527569776
94,0.0008367200573750896,0.6426140231449966
95,0.0008537959769133568,0.6426140231449966
96,0.0008537959769133568,0.6439754935330156
97,0.0008708718964516239,0.6439754935330156
98,0.0008708718964516239,0.6490810074880872
99,0.000887947815989891,0.6490810074880872
100,0.000887947815989891,0.6501021102791015
101,0.0009050237355281582,0.6501021102791015
102,0.0009050237355281582,0.6528250510551395
103,0.0009220996550664254,0.6528250510551395
104,0.0009220996550664254,0.6538461538461539
105,0.0009391755746046925,0.6538461538461539
106,0.0009391755746046925,0.6558883594281825
107,0.0009562514941429596,0.6558883594281825
108,0.0009562514941429596,0.6586113002042205
109,0.0009733274136812267,0.6586113002042205
110,0.0009733274136812267,0.6606535057862492
111,0.001024555172296028,0.6606535057862492
112,0.001024555172296028,0.6650782845473111
113,0.0010416310918342953,0.6650782845473111
114,0.0010416310918342953,0.6660993873383254
115,0.0010587070113725625,0.6660993873383254
116,0.0010587070113725625,0.6664397549353301
117,0.0010757829309108295,0.6664397549353301
118,0.0010757829309108295,0.6684819605173588
119,0.0011099347699873637,0.6684819605173588
120,0.0011099347699873637,0.6722260040844111
121,0.001127010689525631,0.6722260040844111
122,0.001127010689525631,0.672566371681416
123,0.0011440866090638982,0.672566371681416
124,0.0011440866090638982,0.6756296800544588
125,0.0011611625286021652,0.6756296800544588
126,0.0011611625286021652,0.6763104152484684
127,0.0011953143676786994,0.6763104152484684
128,0.0011953143676786994,0.6790333560245064
129,0.0012123902872169666,0.6790333560245064
130,0.0012123902872169666,0.679714091218516
131,0.0012294662067552338,0.679714091218516
132,0.0012294662067552338,0.6807351940095303
133,0.0012465421262935008,0.6807351940095303
134,0.0012465421262935008,0.681075561606535
135,0.001263618045831768,0.681075561606535
136,0.001263618045831768,0.6831177671885637
137,0.0012806939653700353,0.6831177671885637
138,0.0012806939653700353,0.6834581347855684
139,0.0012977698849083023,0.6834581347855684
140,0.0012977698849083023,0.6837985023825732
141,0.0013319217239848365,0.6837985023825732
142,0.0013319217239848365,0.6844792375765827
143,0.001366073563061371,0.6844792375765827
144,0.001366073563061371,0.6851599727705923
145,0.0014002254021379052,0.6851599727705923
146,0.0014002254021379052,0.686861810755616
147,0.0014343772412144394,0.686861810755616
148,0.0014343772412144394,0.6872021783526209
149,0.0014514531607527066,0.6872021783526209
150,0.0014514531607527066,0.6878829135466303
151,0.0014685290802909736,0.6878829135466303
152,0.0014685290802909736,0.6882232811436352
153,0.0014856049998292408,0.6882232811436352
154,0.0014856049998292408,0.6902654867256637
155,0.0015026809193675078,0.6902654867256637
156,0.0015026809193675078,0.6916269571136828
157,0.001519756838905775,0.6916269571136828
158,0.001519756838905775,0.6923076923076923
159,0.0015539086779823093,0.6923076923076923
160,0.0015539086779823093,0.6933287950987066
161,0.0016051364365971107,0.6933287950987066
162,0.0016051364365971107,0.6943498978897209
163,0.001622212356135378,0.6943498978897209
164,0.001622212356135378,0.6953710006807352
165,0.001639288275673645,0.6953710006807352
166,0.001639288275673645,0.6963921034717495
167,0.0016734401147501792,0.6963921034717495
168,0.0016734401147501792,0.6967324710687542
169,0.0016905160342884464,0.6967324710687542
170,0.0016905160342884464,0.6977535738597685
171,0.0017075919538267136,0.6977535738597685
172,0.0017075919538267136,0.6980939414567733
173,0.0017246678733649806,0.6980939414567733
174,0.0017246678733649806,0.6984343090537781
175,0.001758819712441515,0.6984343090537781
176,0.001758819712441515,0.7008168822328115
177,0.001775895631979782,0.7008168822328115
178,0.001775895631979782,0.7014976174268209
179,0.0017929715515180493,0.7014976174268209
180,0.0017929715515180493,0.7018379850238258
181,0.0018100474710563163,0.7018379850238258
182,0.0018100474710563163,0.7021783526208305
183,0.001878351149209385,0.7021783526208305
184,0.001878351149209385,0.7025187202178352
185,0.001895427068747652,0.7025187202178352
186,0.001895427068747652,0.7028590878148401
187,0.0019295789078241864,0.7028590878148401
188,0.0019295789078241864,0.7035398230088495
189,0.0019466548273624534,0.7035398230088495
190,0.0019466548273624534,0.7045609257998638
191,0.0019808066664389876,0.7045609257998638
192,0.0019808066664389876,0.7055820285908782
193,0.0020320344250537893,0.7055820285908782
194,0.0020320344250537893,0.7062627637848877
195,0.002049110344592056,0.7062627637848877
196,0.002049110344592056,0.7089857045609258
197,0.0020661862641303233,0.7089857045609258
198,0.0020661862641303233,0.7096664397549354
199,0.002117414022745125,0.7096664397549354
200,0.002117414022745125,0.7100068073519401
201,0.0021344899422833918,0.7100068073519401
202,0.0021344899422833918,0.7110279101429544
203,0.002151565861821659,0.7110279101429544
204,0.002151565861821659,0.7113682777399591
205,0.0021857177008981934,0.7113682777399591
206,0.0021857177008981934,0.7117086453369639
207,0.0022027936204364607,0.7117086453369639
208,0.0022027936204364607,0.7123893805309734
209,0.0022198695399747274,0.7123893805309734
210,0.0022198695399747274,0.7151123213070115
211,0.0022369454595129947,0.7151123213070115
212,0.0022369454595129947,0.7168141592920354
213,0.002254021379051262,0.7168141592920354
214,0.002254021379051262,0.717494894486045
215,0.0022881732181277963,0.717494894486045
216,0.0022881732181277963,0.7212389380530974
217,0.0023223250572043303,0.7212389380530974
218,0.0023223250572043303,0.7215793056501021
219,0.0023394009767425976,0.7215793056501021
220,0.0023394009767425976,0.7222600408441117
221,0.0023564768962808648,0.7222600408441117
222,0.0023564768962808648,0.7236215112321307
223,0.002373552815819132,0.7236215112321307
224,0.002373552815819132,0.724642614023145
225,0.002407704654895666,0.724642614023145
226,0.002407704654895666,0.7273655547991831
227,0.0024247805744339332,0.7273655547991831
228,0.0024247805744339332,0.729067392784207
229,0.0024418564939722004,0.729067392784207
230,0.0024418564939722004,0.7297481279782164
231,0.0024589324135104677,0.7297481279782164
232,0.0024589324135104677,0.7300884955752213
233,0.002510160172125269,0.7300884955752213
234,0.002510160172125269,0.7307692307692307
235,0.0025443120112018033,0.7307692307692307
236,0.0025443120112018033,0.7311095983662356
237,0.0025613879307400706,0.7311095983662356
238,0.0025613879307400706,0.7334921715452689
239,0.0025784638502783373,0.7334921715452689
240,0.0025784638502783373,0.7345132743362832
241,0.0025955397698166046,0.7345132743362832
242,0.0025955397698166046,0.7358747447243023
243,0.002629691608893139,0.7358747447243023
244,0.002629691608893139,0.736215112321307
245,0.0026467675284314062,0.736215112321307
246,0.0026467675284314062,0.7368958475153166
247,0.0026979952870462075,0.7368958475153166
248,0.0026979952870462075,0.7372362151123213
249,0.0027492230456610087,0.7372362151123213
250,0.0027492230456610087,0.7382573179033356
251,0.002783374884737543,0.7382573179033356
252,0.002783374884737543,0.7385976855003403
253,0.0028004508042758103,0.7385976855003403
254,0.0028004508042758103,0.7389380530973452
255,0.0028175267238140776,0.7389380530973452
256,0.0028175267238140776,0.7396187882913546
257,0.0028516785628906116,0.7396187882913546
258,0.0028516785628906116,0.7402995234853642
259,0.002868754482428879,0.7402995234853642
260,0.002868754482428879,0.7413206262763785
261,0.002885830401967146,0.7413206262763785
262,0.002885830401967146,0.742001361470388
263,0.0029029063215054132,0.742001361470388
264,0.0029029063215054132,0.7430224642614023
265,0.00291998224104368,0.7430224642614023
266,0.00291998224104368,0.7440435670524166
267,0.0029370581605819472,0.7440435670524166
268,0.0029370581605819472,0.7443839346494214
269,0.0029541340801202145,0.7443839346494214
270,0.0029541340801202145,0.7447243022464262
271,0.0029712099996584817,0.7447243022464262
272,0.0029712099996584817,0.7450646698434309
273,0.002988285919196749,0.7450646698434309
274,0.002988285919196749,0.7457454050374405
275,0.0030053618387350157,0.7457454050374405
276,0.0030053618387350157,0.7471068754254595
277,0.0030736655168880846,0.7471068754254595
278,0.0030736655168880846,0.7481279782164738
279,0.0030907414364263514,0.7481279782164738
280,0.0030907414364263514,0.7488087134104833
281,0.0031078173559646186,0.7488087134104833
282,0.0031078173559646186,0.7498298162014976
283,0.003124893275502886,0.7498298162014976
284,0.003124893275502886,0.7515316541865215
285,0.003141969195041153,0.7515316541865215
286,0.003141969195041153,0.7518720217835262
287,0.0031590451145794203,0.7518720217835262
288,0.0031590451145794203,0.7528931245745405
289,0.003176121034117687,0.7528931245745405
290,0.003176121034117687,0.7535738597685501
291,0.0031931969536559543,0.7535738597685501
292,0.0031931969536559543,0.7542545949625595
293,0.0032102728731942215,0.7542545949625595
294,0.0032273487927324887,0.7545949625595644
295,0.0032273487927324887,0.7552756977535738
296,0.00327857655134729,0.7552756977535738
297,0.00327857655134729,0.7556160653505786
298,0.003295652470885557,0.7556160653505786
299,0.003295652470885557,0.7562968005445881
300,0.0033298043099620916,0.7562968005445881
301,0.0033298043099620916,0.7566371681415929
302,0.0033468802295003584,0.7566371681415929
303,0.0033468802295003584,0.7569775357385977
304,0.0033639561490386256,0.7569775357385977
305,0.0033639561490386256,0.757998638529612
306,0.003381032068576893,0.757998638529612
307,0.003381032068576893,0.7597004765146358
308,0.0034151839076534273,0.7597004765146358
309,0.0034151839076534273,0.7614023144996597
310,0.0034322598271916945,0.7614023144996597
311,0.0034322598271916945,0.7620830496936691
312,0.0034493357467299613,0.7620830496936691
313,0.0034493357467299613,0.7644656228727025
314,0.0034664116662682285,0.7644656228727025
315,0.0034664116662682285,0.765146358066712
316,0.0034834875858064957,0.765146358066712
317,0.0034834875858064957,0.7658270932607216
318,0.003500563505344763,0.7658270932607216
319,0.003500563505344763,0.7665078284547311
320,0.003534715344421297,0.7665078284547311
321,0.003534715344421297,0.7675289312457454
322,0.003551791263959564,0.7675289312457454
323,0.003551791263959564,0.768209666439755
324,0.0035688671834978314,0.768209666439755
325,0.0035688671834978314,0.7685500340367597
326,0.0036200949421126326,0.7685500340367597
327,0.0036200949421126326,0.7688904016337644
328,0.0036371708616509,0.7688904016337644
329,0.0036371708616509,0.7699115044247787
330,0.0036883986202657015,0.7699115044247787
331,0.0036883986202657015,0.7702518720217836
332,0.0037054745398039683,0.7702518720217836
333,0.0037054745398039683,0.7722940776038121
334,0.00375670229841877,0.7722940776038121
335,0.00375670229841877,0.7736555479918312
336,0.003790854137495304,0.7736555479918312
337,0.003790854137495304,0.7743362831858407
338,0.0038250059765718384,0.7743362831858407
339,0.0038250059765718384,0.7756977535738597
340,0.0038420818961101056,0.7756977535738597
341,0.0038420818961101056,0.7763784887678693
342,0.003893309654724907,0.7763784887678693
343,0.003893309654724907,0.7770592239618789
344,0.003961613332877975,0.7770592239618789
345,0.003961613332877975,0.7773995915588836
346,0.003978689252416243,0.7773995915588836
347,0.003978689252416243,0.7784206943498979
348,0.0040128410914927765,0.7784206943498979
349,0.0040128410914927765,0.7787610619469026
350,0.004046992930569311,0.7787610619469026
351,0.004046992930569311,0.7791014295439074
352,0.004064068850107579,0.7791014295439074
353,0.004064068850107579,0.779782164737917
354,0.004081144769645845,0.779782164737917
355,0.004081144769645845,0.7808032675289313
356,0.00411529660872238,0.7808032675289313
357,0.00411529660872238,0.781143635125936
358,0.004149448447798914,0.781143635125936
359,0.004149448447798914,0.7818243703199456
360,0.004166524367337181,0.7818243703199456
361,0.004166524367337181,0.782505105513955
362,0.0042006762064137155,0.782505105513955
363,0.0042006762064137155,0.7831858407079646
364,0.00423482804549025,0.7831858407079646
365,0.00423482804549025,0.7835262083049693
366,0.004251903965028517,0.7835262083049693
367,0.004251903965028517,0.7845473110959836
368,0.0042689798845667835,0.7845473110959836
369,0.0042689798845667835,0.7848876786929885
370,0.004337283562719852,0.7848876786929885
371,0.004337283562719852,0.7862491490810075
372,0.004354359482258119,0.7862491490810075
373,0.004354359482258119,0.7879509870660313
374,0.004371435401796387,0.7879509870660313
375,0.004371435401796387,0.7882913546630361
376,0.004439739079949455,0.7882913546630361
377,0.004439739079949455,0.7886317222600409
378,0.004490966838564257,0.7886317222600409
379,0.004490966838564257,0.7889720898570456
380,0.004559270516717325,0.7889720898570456
381,0.004559270516717325,0.7893124574540503
382,0.004576346436255593,0.7893124574540503
383,0.004576346436255593,0.7903335602450646
384,0.004610498275332126,0.7903335602450646
385,0.004610498275332126,0.7906739278420695
386,0.004661726033946928,0.7906739278420695
387,0.004661726033946928,0.7910142954390742
388,0.004695877873023462,0.7910142954390742
389,0.004695877873023462,0.7913546630360789
390,0.0047129537925617295,0.7913546630360789
391,0.0047129537925617295,0.7920353982300885
392,0.004815409309791332,0.7920353982300885
393,0.004815409309791332,0.7923757658270932
394,0.0048324852293296,0.7923757658270932
395,0.0048324852293296,0.7933968686181075
396,0.004883712987944401,0.7933968686181075
397,0.004883712987944401,0.7940776038121171
398,0.00495201666609747,0.7940776038121171
399,0.00495201666609747,0.7947583390061266
400,0.0049690925856357366,0.7947583390061266
401,0.0049690925856357366,0.7950987066031314
402,0.005020320344250538,0.7950987066031314
403,0.005020320344250538,0.7957794417971409
404,0.005054472183327072,0.7957794417971409
405,0.005054472183327072,0.7961198093941457
406,0.005088624022403607,0.7961198093941457
407,0.005088624022403607,0.7968005445881552
408,0.005139851781018408,0.7968005445881552
409,0.005139851781018408,0.7981620149761742
410,0.005225231378709744,0.7981620149761742
411,0.005225231378709744,0.8008849557522124
412,0.00524230729824801,0.8008849557522124
413,0.00524230729824801,0.8015656909462219
414,0.005276459137324545,0.8015656909462219
415,0.005276459137324545,0.8019060585432267
416,0.005310610976401079,0.8019060585432267
417,0.005310610976401079,0.8022464261402315
418,0.0053618387350158805,0.8022464261402315
419,0.0053618387350158805,0.8025867937372362
420,0.005378914654554148,0.8025867937372362
421,0.005378914654554148,0.8039482641252553
422,0.005430142413168949,0.8039482641252553
423,0.005430142413168949,0.8046289993192648
424,0.005464294252245484,0.8046289993192648
425,0.005464294252245484,0.8056501021102791
426,0.005498446091322017,0.8056501021102791
427,0.005498446091322017,0.8059904697072838
428,0.005515522010860285,0.8059904697072838
429,0.005515522010860285,0.8063308373042887
430,0.005532597930398552,0.8063308373042887
431,0.005532597930398552,0.8066712049012934
432,0.0055496738499368195,0.8066712049012934
433,0.0055496738499368195,0.8070115724982981
434,0.0056179775280898875,0.8070115724982981
435,0.0056179775280898875,0.807351940095303
436,0.005635053447628155,0.807351940095303
437,0.005635053447628155,0.8076923076923077
438,0.005686281206242956,0.8076923076923077
439,0.005686281206242956,0.8080326752893124
440,0.005720433045319491,0.8080326752893124
441,0.005720433045319491,0.8083730428863172
442,0.005737508964857758,0.8083730428863172
443,0.005737508964857758,0.808713410483322
444,0.005754584884396024,0.808713410483322
445,0.005754584884396024,0.8090537780803267
446,0.005771660803934292,0.8090537780803267
447,0.005771660803934292,0.8097345132743363
448,0.0058058126430108265,0.8097345132743363
449,0.0058058126430108265,0.810074880871341
450,0.005822888562549093,0.810074880871341
451,0.005822888562549093,0.8104152484683458
452,0.0058741163211638945,0.8104152484683458
453,0.0058741163211638945,0.8110959836623554
454,0.005908268160240429,0.8110959836623554
455,0.005908268160240429,0.8114363512593601
456,0.005925344079778696,0.8114363512593601
457,0.005925344079778696,0.8117767188563648
458,0.005942419999316963,0.8117767188563648
459,0.005942419999316963,0.8121170864533697
460,0.0060619514360848335,0.8121170864533697
461,0.0060619514360848335,0.8127978216473791
462,0.0060790273556231,0.8127978216473791
463,0.0060790273556231,0.813138189244384
464,0.006096103275161367,0.813138189244384
465,0.006096103275161367,0.8134785568413887
466,0.006113179194699635,0.8134785568413887
467,0.006113179194699635,0.8141592920353983
468,0.006147331033776169,0.8141592920353983
469,0.006147331033776169,0.814499659632403
470,0.006164406953314436,0.814499659632403
471,0.006164406953314436,0.8155207624234173
472,0.006232710631467505,0.8155207624234173
473,0.006232710631467505,0.815861130020422
474,0.006249786551005772,0.815861130020422
475,0.006249786551005772,0.8168822328114363
476,0.006266862470544038,0.8168822328114363
477,0.006266862470544038,0.8172226004084411
478,0.006283938390082306,0.8172226004084411
479,0.006283938390082306,0.8179033356024507
480,0.006301014309620573,0.8179033356024507
481,0.006301014309620573,0.8182437031994554
482,0.006369317987773642,0.8182437031994554
483,0.006369317987773642,0.8185840707964602
484,0.0063863939073119085,0.8185840707964602
485,0.0063863939073119085,0.818924438393465
486,0.00643762166592671,0.818924438393465
487,0.00643762166592671,0.8192648059904697
488,0.006471773505003244,0.8192648059904697
489,0.006471773505003244,0.8196051735874744
490,0.006505925344079779,0.8196051735874744
491,0.006505925344079779,0.8199455411844793
492,0.006540077183156313,0.8199455411844793
493,0.006540077183156313,0.821647379169503
494,0.00655715310269458,0.821647379169503
495,0.00655715310269458,0.8219877467665079
496,0.0065742290222328475,0.8219877467665079
497,0.0065742290222328475,0.8226684819605173
498,0.006608380861309381,0.8226684819605173
499,0.006608380861309381,0.8240299523485364
500,0.0066425327003859155,0.8240299523485364
501,0.0066425327003859155,0.824710687542546
502,0.006710836378538984,0.824710687542546
503,0.006710836378538984,0.8250510551395507
504,0.006744988217615519,0.8250510551395507
505,0.006744988217615519,0.8253914227365555
506,0.006813291895768587,0.8253914227365555
507,0.006813291895768587,0.8267528931245746
508,0.006847443734845121,0.8267528931245746
509,0.006847443734845121,0.827433628318584
510,0.006932823332536457,0.827433628318584
511,0.006932823332536457,0.8281143635125936
512,0.006984051091151258,0.8281143635125936
513,0.006984051091151258,0.8287950987066032
514,0.007069430688842594,0.8287950987066032
515,0.007069430688842594,0.8294758339006126
516,0.0070865066083808615,0.8294758339006126
517,0.0070865066083808615,0.8298162014976175
518,0.007120658447457396,0.8298162014976175
519,0.007120658447457396,0.8301565690946222
520,0.007137734366995663,0.8301565690946222
521,0.007137734366995663,0.8304969366916269
522,0.0071548102865339296,0.8304969366916269
523,0.0071548102865339296,0.8311776718856365
524,0.0072231139646869984,0.8311776718856365
525,0.0072231139646869984,0.8315180394826412
526,0.007308493562378334,0.8315180394826412
527,0.007308493562378334,0.8325391422736556
528,0.0073426454014548686,0.8325391422736556
529,0.0073426454014548686,0.8332198774676651
530,0.00739387316006967,0.8332198774676651
531,0.00739387316006967,0.8335602450646699
532,0.007410949079607937,0.8335602450646699
533,0.007410949079607937,0.8339006126616746
534,0.007462176838222739,0.8339006126616746
535,0.007462176838222739,0.8345813478556842
536,0.007496328677299272,0.8345813478556842
537,0.007496328677299272,0.8349217154526889
538,0.007564632355452341,0.8349217154526889
539,0.007564632355452341,0.8352620830496936
540,0.007667087872681944,0.8352620830496936
541,0.007667087872681944,0.8356024506466985
542,0.007684163792220211,0.8356024506466985
543,0.007684163792220211,0.8359428182437032
544,0.007837847068064615,0.8359428182437032
545,0.007837847068064615,0.8362831858407079
546,0.00787199890714115,0.8362831858407079
547,0.00787199890714115,0.8366235534377128
548,0.008008606263447286,0.8366235534377128
549,0.008008606263447286,0.8373042886317222
550,0.008025682182985553,0.8373042886317222
551,0.008025682182985553,0.8376446562287271
552,0.008042758102523822,0.8376446562287271
553,0.008042758102523822,0.8379850238257318
554,0.008059834022062088,0.8379850238257318
555,0.008059834022062088,0.8383253914227365
556,0.008076909941600355,0.8383253914227365
557,0.008076909941600355,0.8390061266167461
558,0.008093985861138622,0.8390061266167461
559,0.008093985861138622,0.8396868618107556
560,0.008145213619753424,0.8396868618107556
561,0.008145213619753424,0.8400272294077604
562,0.008247669136983026,0.8400272294077604
563,0.008247669136983026,0.8403675970047652
564,0.00828182097605956,0.8403675970047652
565,0.00828182097605956,0.8407079646017699
566,0.008333048734674362,0.8407079646017699
567,0.008333048734674362,0.8413886997957795
568,0.008384276493289164,0.8413886997957795
569,0.008384276493289164,0.8417290673927842
570,0.008418428332365698,0.8417290673927842
571,0.008418428332365698,0.8424098025867938
572,0.008435504251903965,0.8424098025867938
573,0.008435504251903965,0.8427501701837985
574,0.0085208838495953,0.8427501701837985
575,0.0085208838495953,0.8430905377808032
576,0.008537959769133567,0.8430905377808032
577,0.008537959769133567,0.8434309053778081
578,0.008640415286363171,0.8434309053778081
579,0.008640415286363171,0.8437712729748128
580,0.00882825040128411,0.8437712729748128
581,0.00882825040128411,0.8444520081688224
582,0.00887947815989891,0.8444520081688224
583,0.00887947815989891,0.8447923757658271
584,0.008930705918513712,0.8447923757658271
585,0.008930705918513712,0.8451327433628318
586,0.008981933677128514,0.8451327433628318
587,0.008981933677128514,0.8454731109598366
588,0.009016085516205048,0.8454731109598366
589,0.009016085516205048,0.8458134785568414
590,0.009050237355281581,0.8458134785568414
591,0.009050237355281581,0.8461538461538461
592,0.00906731327481985,0.8461538461538461
593,0.00906731327481985,0.8471749489448605
594,0.009084389194358116,0.8471749489448605
595,0.009084389194358116,0.8475153165418652
596,0.009101465113896383,0.8475153165418652
597,0.009101465113896383,0.8495575221238938
598,0.009135616952972917,0.8495575221238938
599,0.009135616952972917,0.8509189925119128
600,0.009152692872511185,0.8509189925119128
601,0.009152692872511185,0.8512593601089177
602,0.009272224309279055,0.8512593601089177
603,0.009272224309279055,0.8515997277059224
604,0.009289300228817321,0.8515997277059224
605,0.009289300228817321,0.8519400953029271
606,0.009340527987432123,0.8519400953029271
607,0.009340527987432123,0.8529611980939414
608,0.009374679826508657,0.8529611980939414
609,0.009374679826508657,0.8533015656909462
610,0.009425907585123459,0.8533015656909462
611,0.009425907585123459,0.853641933287951
612,0.00947713534373826,0.853641933287951
613,0.00947713534373826,0.8539823008849557
614,0.009494211263276528,0.8539823008849557
615,0.009494211263276528,0.8543226684819605
616,0.009511287182814795,0.8543226684819605
617,0.009511287182814795,0.8546630360789653
618,0.009562514941429595,0.8546630360789653
619,0.009562514941429595,0.85500340367597
620,0.009699122297735733,0.85500340367597
621,0.009699122297735733,0.8556841388699796
622,0.009716198217274,0.8556841388699796
623,0.009716198217274,0.8560245064669844
624,0.009784501895427069,0.8560245064669844
625,0.009784501895427069,0.8567052416609938
626,0.00983572965404187,0.8567052416609938
627,0.00983572965404187,0.8577263444520081
628,0.009869881493118404,0.8577263444520081
629,0.009869881493118404,0.858066712049013
630,0.009886957412656671,0.858066712049013
631,0.009886957412656671,0.8584070796460177
632,0.00990403333219494,0.8584070796460177
633,0.00990403333219494,0.8587474472430224
634,0.009938185171271473,0.8587474472430224
635,0.009938185171271473,0.859428182437032
636,0.00995526109080974,0.859428182437032
637,0.00995526109080974,0.8604492852280463
638,0.009972337010348007,0.8604492852280463
639,0.009972337010348007,0.8611300204220558
640,0.010023564768962809,0.8611300204220558
641,0.010023564768962809,0.8614703880190606
642,0.010057716608039342,0.8614703880190606
643,0.010057716608039342,0.8618107556160653
644,0.010091868447115878,0.8618107556160653
645,0.010091868447115878,0.8621511232130701
646,0.010126020286192411,0.8621511232130701
647,0.010126020286192411,0.8624914908100749
648,0.010143096205730678,0.8624914908100749
649,0.010143096205730678,0.8628318584070797
650,0.010228475803422014,0.8628318584070797
651,0.010228475803422014,0.8631722260040844
652,0.010330931320651618,0.8631722260040844
653,0.010330931320651618,0.8635125936010892
654,0.010348007240189885,0.8635125936010892
655,0.010348007240189885,0.863852961198094
656,0.010450462757419487,0.863852961198094
657,0.010450462757419487,0.8641933287950987
658,0.010467538676957754,0.8641933287950987
659,0.010467538676957754,0.8645336963921034
660,0.01050169051603429,0.8645336963921034
661,0.01050169051603429,0.865214431586113
662,0.010518766435572556,0.865214431586113
663,0.010518766435572556,0.8655547991831177
664,0.010604146033263892,0.8655547991831177
665,0.010604146033263892,0.8658951667801226
666,0.010655373791878692,0.8658951667801226
667,0.010655373791878692,0.8672566371681416
668,0.01067244971141696,0.8672566371681416
669,0.01067244971141696,0.8675970047651463
670,0.010706601550493494,0.8675970047651463
671,0.010706601550493494,0.8679373723621511
672,0.010774905228646563,0.8679373723621511
673,0.010774905228646563,0.8682777399591559
674,0.010860284826337899,0.8682777399591559
675,0.010860284826337899,0.8686181075561606
676,0.010911512584952699,0.8686181075561606
677,0.010911512584952699,0.8689584751531654
678,0.010928588504490968,0.8689584751531654
679,0.010928588504490968,0.8692988427501702
680,0.010945664424029234,0.8692988427501702
681,0.010945664424029234,0.8699795779441797
682,0.011048119941258837,0.8699795779441797
683,0.011048119941258837,0.8703199455411845
684,0.01108227178033537,0.8703199455411845
685,0.01108227178033537,0.8706603131381893
686,0.011133499538950173,0.8706603131381893
687,0.011133499538950173,0.8727025187202179
688,0.01115057545848844,0.8727025187202179
689,0.01115057545848844,0.8730428863172226
690,0.01127010689525631,0.8730428863172226
691,0.01127010689525631,0.8733832539142273
692,0.01138963833202418,0.8733832539142273
693,0.01138963833202418,0.8737236215112322
694,0.011457942010177248,0.8737236215112322
695,0.011457942010177248,0.8740639891082369
696,0.011509169768792049,0.8740639891082369
697,0.011509169768792049,0.8744043567052416
698,0.01156039752740685,0.8744043567052416
699,0.01156039752740685,0.8747447243022465
700,0.01162870120555992,0.8747447243022465
701,0.01162870120555992,0.8757658270932607
702,0.01167992896417472,0.8757658270932607
703,0.01167992896417472,0.8761061946902655
704,0.011731156722789522,0.8761061946902655
705,0.011731156722789522,0.8764465622872702
706,0.011748232642327789,0.8764465622872702
707,0.011748232642327789,0.8778080326752893
708,0.011884839998633927,0.8778080326752893
709,0.011884839998633927,0.8781484002722941
710,0.011901915918172194,0.8781484002722941
711,0.011901915918172194,0.8791695030633083
712,0.012021447354940063,0.8791695030633083
713,0.012021447354940063,0.8795098706603132
714,0.012038523274478331,0.8795098706603132
715,0.012038523274478331,0.8801906058543226
716,0.012055599194016598,0.8801906058543226
717,0.012055599194016598,0.8808713410483322
718,0.01227758614801407,0.8808713410483322
719,0.01227758614801407,0.8812117086453369
720,0.012311737987090605,0.8812117086453369
721,0.012311737987090605,0.8818924438393465
722,0.012345889826167139,0.8818924438393465
723,0.012345889826167139,0.8822328114363512
724,0.012414193504320208,0.8822328114363512
725,0.012414193504320208,0.882573179033356
726,0.012482497182473276,0.882573179033356
727,0.012482497182473276,0.8829135466303608
728,0.01275571189508555,0.8829135466303608
729,0.01275571189508555,0.8832539142273655
730,0.012789863734162084,0.8832539142273655
731,0.012789863734162084,0.8835942818243703
732,0.012909395170929955,0.8835942818243703
733,0.012909395170929955,0.8839346494213751
734,0.012943547010006488,0.8839346494213751
735,0.012943547010006488,0.8842750170183798
736,0.01306307844677436,0.8842750170183798
737,0.01306307844677436,0.8849557522123894
738,0.013182609883542229,0.8849557522123894
739,0.013182609883542229,0.8852961198093942
740,0.013250913561695297,0.8852961198093942
741,0.013250913561695297,0.8856364874063989
742,0.013319217239848366,0.8856364874063989
743,0.013319217239848366,0.8859768550034037
744,0.013336293159386633,0.8859768550034037
745,0.013336293159386633,0.8863172226004085
746,0.013370444998463167,0.8863172226004085
747,0.013370444998463167,0.8866575901974132
748,0.01359243195246064,0.8866575901974132
749,0.01359243195246064,0.8869979577944179
750,0.013609507871998907,0.8869979577944179
751,0.013609507871998907,0.8873383253914228
752,0.013660735630613709,0.8873383253914228
753,0.013660735630613709,0.8876786929884275
754,0.013746115228305045,0.8876786929884275
755,0.013746115228305045,0.8880190605854322
756,0.01383149482599638,0.8880190605854322
757,0.01383149482599638,0.8883594281824371
758,0.013848570745534647,0.8883594281824371
759,0.013848570745534647,0.8886997957794418
760,0.013968102182302516,0.8886997957794418
761,0.013968102182302516,0.8890401633764465
762,0.014138861377685188,0.8890401633764465
763,0.014138861377685188,0.8893805309734514
764,0.014275468733991326,0.8893805309734514
765,0.014275468733991326,0.8897208985704561
766,0.014292544653529592,0.8897208985704561
767,0.014292544653529592,0.8904016337644656
768,0.014326696492606128,0.8904016337644656
769,0.014326696492606128,0.8907420013614704
770,0.014412076090297463,0.8907420013614704
771,0.014412076090297463,0.8917631041524847
772,0.014463303848912264,0.8917631041524847
773,0.014463303848912264,0.8921034717494895
774,0.014514531607527066,0.8921034717494895
775,0.014514531607527066,0.8924438393464942
776,0.014582835285680135,0.8924438393464942
777,0.014582835285680135,0.892784206943499
778,0.014890201837368942,0.892784206943499
779,0.014890201837368942,0.8934649421375085
780,0.014907277756907209,0.8934649421375085
781,0.014907277756907209,0.8938053097345132
782,0.014992657354598544,0.8938053097345132
783,0.014992657354598544,0.8941456773315181
784,0.015043885113213347,0.8941456773315181
785,0.015043885113213347,0.8944860449285228
786,0.015060961032751613,0.8944860449285228
787,0.015060961032751613,0.8948264125255275
788,0.015112188791366415,0.8948264125255275
789,0.015112188791366415,0.8951667801225324
790,0.015163416549981216,0.8951667801225324
791,0.015163416549981216,0.8955071477195371
792,0.015180492469519484,0.8955071477195371
793,0.015180492469519484,0.8958475153165418
794,0.015197568389057751,0.8958475153165418
795,0.015197568389057751,0.8965282505105514
796,0.015214644308596018,0.8965282505105514
797,0.015214644308596018,0.8968686181075561
798,0.015248796147672551,0.8968686181075561
799,0.015248796147672551,0.897208985704561
800,0.015282947986749087,0.897208985704561
801,0.015282947986749087,0.8982300884955752
802,0.015402479423516956,0.8982300884955752
803,0.015402479423516956,0.89857045609258
804,0.015436631262593491,0.89857045609258
805,0.015436631262593491,0.8989108236895847
806,0.015573238618899627,0.8989108236895847
807,0.015573238618899627,0.8992511912865895
808,0.015778149653358834,0.8992511912865895
809,0.015778149653358834,0.8995915588835943
810,0.015863529251050168,0.8995915588835943
811,0.015863529251050168,0.899931926480599
812,0.01598306068781804,0.899931926480599
813,0.01598306068781804,0.9002722940776038
814,0.016017212526894573,0.9002722940776038
815,0.016017212526894573,0.9009530292716134
816,0.016068440285509376,0.9009530292716134
817,0.016068440285509376,0.9012933968686181
818,0.01610259212458591,0.9012933968686181
819,0.01610259212458591,0.9016337644656228
820,0.016119668044124177,0.9016337644656228
821,0.016119668044124177,0.9019741320626277
822,0.016136743963662444,0.9019741320626277
823,0.016136743963662444,0.9023144996596324
824,0.016239199480892048,0.9023144996596324
825,0.016239199480892048,0.9033356024506467
826,0.016307503159045115,0.9033356024506467
827,0.016307503159045115,0.9036759700476514
828,0.01634165499812165,0.9036759700476514
829,0.01634165499812165,0.9040163376446563
830,0.016427034595812986,0.9040163376446563
831,0.016427034595812986,0.9046970728386657
832,0.016597793791195657,0.9046970728386657
833,0.016597793791195657,0.9050374404356705
834,0.016785628906116595,0.9050374404356705
835,0.016785628906116595,0.9053778080326753
836,0.0169905399405758,0.9053778080326753
837,0.0169905399405758,0.90571817562968
838,0.017024691779652334,0.90571817562968
839,0.017024691779652334,0.9060585432266848
840,0.017092995457805404,0.9060585432266848
841,0.017092995457805404,0.9063989108236896
842,0.01717837505549674,0.9063989108236896
843,0.01717837505549674,0.9067392784206944
844,0.017263754653188076,0.9067392784206944
845,0.017263754653188076,0.9070796460176991
846,0.017554045285338615,0.9070796460176991
847,0.017554045285338615,0.9074200136147039
848,0.01757112120487688,0.9074200136147039
849,0.01757112120487688,0.9077603812117087
850,0.017622348963491685,0.9077603812117087
851,0.017622348963491685,0.9081007488087134
852,0.01770772856118302,0.9081007488087134
853,0.01770772856118302,0.908781484002723
854,0.01775895631979782,0.908781484002723
855,0.01775895631979782,0.9091218515997277
856,0.01799801919333356,0.9091218515997277
857,0.01799801919333356,0.9098025867937373
858,0.01801509511287183,0.9098025867937373
859,0.01801509511287183,0.910142954390742
860,0.018202930227792766,0.910142954390742
861,0.018202930227792766,0.9104833219877467
862,0.018271233905945834,0.9104833219877467
863,0.018271233905945834,0.9108236895847516
864,0.018288309825484104,0.9108236895847516
865,0.018288309825484104,0.9111640571817563
866,0.018424917181790238,0.9111640571817563
867,0.018424917181790238,0.9121851599727706
868,0.018527372699019842,0.9121851599727706
869,0.018527372699019842,0.9125255275697753
870,0.018578600457634643,0.9125255275697753
871,0.018578600457634643,0.9128658951667801
872,0.01866398005532598,0.9128658951667801
873,0.01866398005532598,0.9132062627637849
874,0.01871520781394078,0.9132062627637849
875,0.01871520781394078,0.9135466303607896
876,0.01895427068747652,0.9135466303607896
877,0.01895427068747652,0.9138869979577944
878,0.019090878043782657,0.9138869979577944
879,0.019090878043782657,0.9142273655547992
880,0.019107953963320923,0.9142273655547992
881,0.019107953963320923,0.914567733151804
882,0.019398244595471466,0.914567733151804
883,0.019398244595471466,0.9149081007488087
884,0.019466548273624536,0.9149081007488087
885,0.019466548273624536,0.9152484683458135
886,0.01967145930808374,0.9152484683458135
887,0.01967145930808374,0.9155888359428183
888,0.019705611147160275,0.9155888359428183
889,0.019705611147160275,0.915929203539823
890,0.01980806666438988,0.915929203539823
891,0.01980806666438988,0.9162695711368277
892,0.01991052218161948,0.9162695711368277
893,0.01991052218161948,0.9166099387338326
894,0.020012977698849084,0.9166099387338326
895,0.020012977698849084,0.9169503063308373
896,0.02003005361838735,0.9169503063308373
897,0.02003005361838735,0.917290673927842
898,0.0206277108022267,0.917290673927842
899,0.0206277108022267,0.9176310415248469
900,0.02074724223899457,0.9176310415248469
901,0.02074724223899457,0.9179714091218516
902,0.02100338103206858,0.9179714091218516
903,0.02100338103206858,0.9183117767188563
904,0.02132782350329565,0.9183117767188563
905,0.02132782350329565,0.9186521443158612
906,0.021481506779140055,0.9186521443158612
907,0.021481506779140055,0.9189925119128659
908,0.021515658618216593,0.9189925119128659
909,0.021515658618216593,0.9193328795098706
910,0.02153273453775486,0.9193328795098706
911,0.02153273453775486,0.9196732471068755
912,0.02158396229636966,0.9196732471068755
913,0.02158396229636966,0.9203539823008849
914,0.021908404767596736,0.9203539823008849
915,0.021908404767596736,0.9210347174948945
916,0.02194255660667327,0.9210347174948945
917,0.02194255660667327,0.9213750850918992
918,0.021959632526211536,0.9213750850918992
919,0.021959632526211536,0.921715452688904
920,0.022147467641132474,0.921715452688904
921,0.022147467641132474,0.9223961878829136
922,0.022215771319285545,0.9223961878829136
923,0.022215771319285545,0.9227365554799183
924,0.022249923158362078,0.9227365554799183
925,0.022249923158362078,0.9230769230769231
926,0.02254021379051262,0.9230769230769231
927,0.02254021379051262,0.9234172906739279
928,0.022574365629589154,0.9234172906739279
929,0.022574365629589154,0.9240980258679373
930,0.022676821146818755,0.9240980258679373
931,0.022676821146818755,0.9244383934649422
932,0.022796352583586626,0.9244383934649422
933,0.022796352583586626,0.9247787610619469
934,0.023035415457122364,0.9247787610619469
935,0.023035415457122364,0.9251191286589516
936,0.02325740241111984,0.9251191286589516
937,0.02325740241111984,0.9254594962559565
938,0.02330863016973464,0.9254594962559565
939,0.02330863016973464,0.9257998638529612
940,0.02353061712373211,0.9257998638529612
941,0.02353061712373211,0.9264805990469708
942,0.023650148560499983,0.9264805990469708
943,0.023650148560499983,0.9268209666439755
944,0.02390628735357399,0.9268209666439755
945,0.02390628735357399,0.9271613342409802
946,0.024589324135104677,0.9271613342409802
947,0.024589324135104677,0.9278420694349898
948,0.024845462928178682,0.9278420694349898
949,0.024845462928178682,0.9281824370319945
950,0.02493084252587002,0.9281824370319945
951,0.02493084252587002,0.9285228046289993
952,0.02515282947986749,0.9285228046289993
953,0.02515282947986749,0.9292035398230089
954,0.0255114237901711,0.9292035398230089
955,0.0255114237901711,0.9295439074200136
956,0.02563095522693897,0.9295439074200136
957,0.02563095522693897,0.9298842750170184
958,0.025665107066015505,0.9298842750170184
959,0.025665107066015505,0.9302246426140232
960,0.025716334824630305,0.9302246426140232
961,0.025716334824630305,0.9305650102110279
962,0.02592124585908951,0.9305650102110279
963,0.02592124585908951,0.9309053778080327
964,0.025955397698166047,0.9309053778080327
965,0.025955397698166047,0.9312457454050375
966,0.026074929134933915,0.9312457454050375
967,0.026074929134933915,0.9315861130020422
968,0.02609200505447218,0.9315861130020422
969,0.02609200505447218,0.9319264805990469
970,0.02617738465216352,0.9319264805990469
971,0.02617738465216352,0.9326072157930565
972,0.026689662238311533,0.9326072157930565
973,0.026689662238311533,0.9332879509870661
974,0.026740889996926333,0.9332879509870661
975,0.026740889996926333,0.9339686861810755
976,0.027048256548615143,0.9339686861810755
977,0.027048256548615143,0.9343090537780804
978,0.027082408387691676,0.9343090537780804
979,0.027082408387691676,0.9346494213750851
980,0.02713363614630648,0.9346494213750851
981,0.02713363614630648,0.9349897889720898
982,0.027201939824459547,0.9349897889720898
983,0.027201939824459547,0.9356705241660994
984,0.027253167583074348,0.9356705241660994
985,0.027253167583074348,0.9360108917631041
986,0.027270243502612614,0.9360108917631041
987,0.027270243502612614,0.9363512593601089
988,0.027406850858918752,0.9363512593601089
989,0.027406850858918752,0.9366916269571137
990,0.027475154537071823,0.9366916269571137
991,0.027475154537071823,0.9370319945541185
992,0.027577610054301423,0.9370319945541185
993,0.027577610054301423,0.9373723621511232
994,0.02802158396229637,0.9373723621511232
995,0.02802158396229637,0.937712729748128
996,0.02807281172091117,0.937712729748128
997,0.02807281172091117,0.9380530973451328
998,0.028516785628906118,0.9380530973451328
999,0.028516785628906118,0.9383934649421375
1000,0.02873877258290359,0.9383934649421375
1001,0.02873877258290359,0.9387338325391422
1002,0.028807076261056656,0.9387338325391422
1003,0.028807076261056656,0.9390742001361471
1004,0.028875379939209727,0.9390742001361471
1005,0.028875379939209727,0.9394145677331518
1006,0.02896075953690106,0.9394145677331518
1007,0.02896075953690106,0.9397549353301565
1008,0.029233974249513336,0.9397549353301565
1009,0.029233974249513336,0.9400953029271614
1010,0.029507188962125612,0.9400953029271614
1011,0.029507188962125612,0.9404356705241661
1012,0.029660872237970013,0.9404356705241661
1013,0.029660872237970013,0.9414567733151804
1014,0.029848707352890955,0.9414567733151804
1015,0.029848707352890955,0.9417971409121851
1016,0.03099279396195485,0.9417971409121851
1017,0.03099279396195485,0.9424778761061947
1018,0.03179536218025341,0.9424778761061947
1019,0.03179536218025341,0.9428182437031994
1020,0.031829514019329944,0.9428182437031994
1021,0.031829514019329944,0.9431586113002042
1022,0.032153956490557016,0.9431586113002042
1023,0.032153956490557016,0.943498978897209
1024,0.03232471568593969,0.943498978897209
1025,0.03232471568593969,0.9438393464942137
1026,0.03263208223762849,0.9438393464942137
1027,0.03263208223762849,0.9441797140912185
1028,0.03281991735254944,0.9441797140912185
1029,0.03281991735254944,0.9445200816882233
1030,0.03316143574331478,0.9445200816882233
1031,0.03316143574331478,0.944860449285228
1032,0.03350295413408012,0.944860449285228
1033,0.03350295413408012,0.9452008168822328
1034,0.03352003005361839,0.9452008168822328
1035,0.03352003005361839,0.9455411844792376
1036,0.033588333731771454,0.9455411844792376
1037,0.033588333731771454,0.9458815520762424
1038,0.033878624363922,0.9458815520762424
1039,0.033878624363922,0.9462219196732471
1040,0.03440797786960828,0.9462219196732471
1041,0.03440797786960828,0.9465622872702518
1042,0.034442129708684814,0.9465622872702518
1043,0.034442129708684814,0.9469026548672567
1044,0.03452750930637615,0.9469026548672567
1045,0.03452750930637615,0.9472430224642614
1046,0.03457873706499095,0.9472430224642614
1047,0.03457873706499095,0.9475833900612661
1048,0.034647040743144016,0.9475833900612661
1049,0.034647040743144016,0.947923757658271
1050,0.03500563505344763,0.947923757658271
1051,0.03500563505344763,0.9482641252552757
1052,0.03531300160513644,0.9482641252552757
1053,0.03531300160513644,0.9486044928522804
1054,0.036218025340664595,0.9486044928522804
1055,0.036218025340664595,0.9489448604492853
1056,0.03630340493835593,0.9489448604492853
1057,0.03630340493835593,0.94928522804629
1058,0.03654246781189167,0.94928522804629
1059,0.03654246781189167,0.9496255956432947
1060,0.036627847409583005,0.9496255956432947
1061,0.036627847409583005,0.9499659632402995
1062,0.03681568252450394,0.9499659632402995
1063,0.03681568252450394,0.9503063308373043
1064,0.03702059355896315,0.9503063308373043
1065,0.03702059355896315,0.9509870660313138
1066,0.03722550459342235,0.9509870660313138
1067,0.03722550459342235,0.9513274336283186
1068,0.03724258051296062,0.9513274336283186
1069,0.03724258051296062,0.9516678012253234
1070,0.03732796011065196,0.9516678012253234
1071,0.03732796011065196,0.9520081688223281
1072,0.038625729995560264,0.9520081688223281
1073,0.038625729995560264,0.9523485364193329
1074,0.03917215942078481,0.9523485364193329
1075,0.03917215942078481,0.9526889040163377
1076,0.039240463098937875,0.9526889040163377
1077,0.039240463098937875,0.9530292716133424
1078,0.03929169085755268,0.9530292716133424
1079,0.03929169085755268,0.9533696392103471
1080,0.03932584269662921,0.9533696392103471
1081,0.03932584269662921,0.953710006807352
1082,0.039462450052935354,0.953710006807352
1083,0.039462450052935354,0.9540503744043567
1084,0.03953075373108842,0.9540503744043567
1085,0.03953075373108842,0.9543907420013614
1086,0.0412554216044534,0.9543907420013614
1087,0.0412554216044534,0.9547311095983663
1088,0.04137495304122127,0.9547311095983663
1089,0.04137495304122127,0.955071477195371
1090,0.04152863631706567,0.955071477195371
1091,0.04152863631706567,0.9554118447923757
1092,0.041750623271063145,0.9554118447923757
1093,0.041750623271063145,0.9557522123893806
1094,0.042160445339981555,0.9557522123893806
1095,0.042160445339981555,0.9560925799863853
1096,0.0425531914893617,0.9560925799863853
1097,0.042587343328438235,0.9560925799863853
1098,0.04263857108705304,0.9560925799863853
1099,0.04263857108705304,0.95643294758339
1100,0.04267272292612957,0.95643294758339
1101,0.04267272292612957,0.9567733151803949
1102,0.04292886171920358,0.9567733151803949
1103,0.04292886171920358,0.9571136827773996
1104,0.04294593763874185,0.9571136827773996
1105,0.04294593763874185,0.9574540503744043
1106,0.04412417608688228,0.9574540503744043
1107,0.04412417608688228,0.9577944179714091
1108,0.04451692223626242,0.9577944179714091
1109,0.04451692223626242,0.9581347855684139
1110,0.044670605512106824,0.9581347855684139
1111,0.044670605512106824,0.9584751531654186
1112,0.04508042758102524,0.9584751531654186
1113,0.04508042758102524,0.9588155207624234
1114,0.045319490454560976,0.9588155207624234
1115,0.045319490454560976,0.9591558883594282
1116,0.04554147740855845,0.9591558883594282
1117,0.04554147740855845,0.959496255956433
1118,0.045643932925788055,0.959496255956433
1119,0.045643932925788055,0.9598366235534377
1120,0.04579761620163246,0.9598366235534377
1121,0.04579761620163246,0.9601769911504425
1122,0.0462415901096274,0.9601769911504425
1123,0.0462415901096274,0.9605173587474473
1124,0.04632696970731874,0.9605173587474473
1125,0.04632696970731874,0.960857726344452
1126,0.04654895666131621,0.960857726344452
1127,0.04654895666131621,0.9611980939414567
1128,0.04685632321300502,0.9611980939414567
1129,0.04685632321300502,0.9615384615384616
1130,0.04706123424746422,0.9615384615384616
1131,0.04706123424746422,0.9618788291354663
1132,0.0473856767186913,0.9618788291354663
1133,0.0473856767186913,0.962219196732471
1134,0.04781257470714798,0.962219196732471
1135,0.04781257470714798,0.9625595643294759
1136,0.04810286533929852,0.9625595643294759
1137,0.04810286533929852,0.9628999319264806
1138,0.04870052252313787,0.9628999319264806
1139,0.04870052252313787,0.9632402995234853
1140,0.04888835763805881,0.9632402995234853
1141,0.04888835763805881,0.9635806671204902
1142,0.05085208838495953,0.9635806671204902
1143,0.05085208838495953,0.9639210347174949
1144,0.051074075338957005,0.9639210347174949
1145,0.051074075338957005,0.9642614023144996
1146,0.05122775861480141,0.9642614023144996
1147,0.05122775861480141,0.9646017699115044
1148,0.05155220108602848,0.9646017699115044
1149,0.05155220108602848,0.9649421375085092
1150,0.051996174994023425,0.9649421375085092
1151,0.051996174994023425,0.9652825051055139
1152,0.05209863051125303,0.9652825051055139
1153,0.05209863051125303,0.9656228727025187
1154,0.0522693897066357,0.9656228727025187
1155,0.0522693897066357,0.9659632402995235
1156,0.05233769338478877,0.9659632402995235
1157,0.05233769338478877,0.9663036078965282
1158,0.05237184522386531,0.9663036078965282
1159,0.05237184522386531,0.966643975493533
1160,0.05288412281001332,0.966643975493533
1161,0.05288412281001332,0.9669843430905378
1162,0.05298657832724292,0.9669843430905378
1163,0.05298657832724292,0.9673247106875426
1164,0.053037806085857724,0.9673247106875426
1165,0.053037806085857724,0.9676650782845473
1166,0.053669615108773605,0.9676650782845473
1167,0.053669615108773605,0.9680054458815521
1168,0.05401113349953895,0.9680054458815521
1169,0.05401113349953895,0.9683458134785569
1170,0.054216044533998156,0.9683458134785569
1171,0.054216044533998156,0.9686861810755616
1172,0.05467709436153137,0.9686861810755616
1173,0.05467709436153137,0.9690265486725663
1174,0.05717017861411837,0.9690265486725663
1175,0.05717017861411837,0.9693669162695712
1176,0.05752877292442198,0.9693669162695712
1177,0.05752877292442198,0.9697072838665759
1178,0.05763122844165158,0.9697072838665759
1179,0.05763122844165158,0.9700476514635806
1180,0.057989822751955196,0.9700476514635806
1181,0.057989822751955196,0.9703880190605855
1182,0.0581435060277996,0.9703880190605855
1183,0.0581435060277996,0.9707283866575902
1184,0.05860455585533281,0.9707283866575902
1185,0.05860455585533281,0.9710687542545949
1186,0.05887777056794508,0.9710687542545949
1187,0.05887777056794508,0.9714091218515998
1188,0.05935589631501657,0.9714091218515998
1189,0.05935589631501657,0.9717494894486045
1190,0.059953553498855915,0.9717494894486045
1191,0.059953553498855915,0.9720898570456092
1192,0.0606365902803866,0.9720898570456092
1193,0.0606365902803866,0.972430224642614
1194,0.06075612171715447,0.972430224642614
1195,0.06075612171715447,0.9727705922396188
1196,0.06111471602745808,0.9727705922396188
1197,0.06111471602745808,0.9731109598366235
1198,0.062275878556060246,0.9731109598366235
1199,0.062275878556060246,0.9734513274336283
1200,0.06314675045251186,0.9734513274336283
1201,0.06314675045251186,0.9737916950306331
1202,0.06333458556743281,0.9737916950306331
1203,0.06333458556743281,0.9741320626276379
1204,0.06362487619958335,0.9741320626276379
1205,0.06362487619958335,0.9744724302246426
1206,0.06410300194665483,0.9744724302246426
1207,0.06410300194665483,0.9748127978216474
1208,0.06435914073972883,0.9748127978216474
1209,0.06435914073972883,0.9751531654186522
1210,0.0653666199924866,0.9751531654186522
1211,0.0653666199924866,0.9754935330156569
1212,0.06611796045217035,0.9754935330156569
1213,0.06611796045217035,0.9758339006126616
1214,0.06707421194631331,0.9758339006126616
1215,0.06707421194631331,0.9761742682096665
1216,0.06719374338308118,0.9761742682096665
1217,0.06719374338308118,0.9765146358066712
1218,0.0681158430381476,0.9765146358066712
1219,0.0681158430381476,0.9768550034036759
1220,0.06849151326798948,0.9768550034036759
1221,0.06849151326798948,0.9771953710006808
1222,0.07042109217581367,0.9771953710006808
1223,0.07042109217581367,0.9775357385976855
1224,0.07083091424473208,0.9775357385976855
1225,0.07083091424473208,0.9778761061946902
1226,0.07170178614118371,0.9778761061946902
1227,0.07170178614118371,0.9782164737916951
1228,0.07192377309518118,0.9782164737916951
1229,0.07192377309518118,0.9785568413886998
1230,0.0719579249342577,0.9785568413886998
1231,0.0719579249342577,0.9788972089857045
1232,0.07209453229056385,0.9788972089857045
1233,0.07209453229056385,0.9792375765827094
1234,0.07270926539394146,0.9792375765827094
1235,0.07270926539394146,0.9795779441797141
1236,0.07282879683070934,0.9795779441797141
1237,0.07282879683070934,0.9799183117767188
1238,0.07475837573853351,0.9799183117767188
1239,0.07475837573853351,0.9802586793737236
1240,0.07656842320958984,0.9802586793737236
1241,0.07656842320958984,0.9805990469707284
1242,0.07679041016358731,0.9805990469707284
1243,0.07679041016358731,0.9809394145677331
1244,0.07849800211741402,0.9809394145677331
1245,0.07849800211741402,0.9812797821647379
1246,0.07909565930125337,0.9812797821647379
1247,0.07909565930125337,0.9816201497617427
1248,0.07926641849663604,0.9816201497617427
1249,0.07926641849663604,0.9819605173587475
1250,0.07938594993340391,0.9819605173587475
1251,0.07938594993340391,0.9823008849557522
1252,0.07945425361155699,0.9823008849557522
1253,0.07945425361155699,0.982641252552757
1254,0.07964208872647792,0.982641252552757
1255,0.07964208872647792,0.9829816201497618
1256,0.08090570677230968,0.9829816201497618
1257,0.08090570677230968,0.9833219877467665
1258,0.08310850039274614,0.9833219877467665
1259,0.08310850039274614,0.9836623553437712
1260,0.08333048734674363,0.9836623553437712
1261,0.08333048734674363,0.9840027229407761
1262,0.0837061575765855,0.9840027229407761
1263,0.0837061575765855,0.9843430905377808
1264,0.08507223113964688,0.9843430905377808
1265,0.08507223113964688,0.9846834581347855
1266,0.0852600662545678,0.9846834581347855
1267,0.0852600662545678,0.9850238257317904
1268,0.08549912912810355,0.9850238257317904
1269,0.08549912912810355,0.9853641933287951
1270,0.08710426556470066,0.9853641933287951
1271,0.08710426556470066,0.9857045609257998
1272,0.08730917659915986,0.9857045609257998
1273,0.08730917659915986,0.9860449285228047
1274,0.08746285987500427,0.9860449285228047
1275,0.08746285987500427,0.9863852961198094
1276,0.08761654315084867,0.9863852961198094
1277,0.08761654315084867,0.9867256637168141
1278,0.08802636521976709,0.9867256637168141
1279,0.08802636521976709,0.9870660313138189
1280,0.09080974010450463,0.9870660313138189
1281,0.09080974010450463,0.9874063989108237
1282,0.09261978757556094,0.9874063989108237
1283,0.09261978757556094,0.9877467665078284
1284,0.09265393941463748,0.9877467665078284
1285,0.09268809125371401,0.9877467665078284
1286,0.09289300228817322,0.9877467665078284
1287,0.09289300228817322,0.9880871341048332
1288,0.09822068918411256,0.9880871341048332
1289,0.09822068918411256,0.988427501701838
1290,0.09926232027594686,0.988427501701838
1291,0.09926232027594686,0.9887678692988427
1292,0.09987705337932448,0.9887678692988427
1293,0.09987705337932448,0.9891082368958475
1294,0.10291656705713603,0.9891082368958475
1295,0.10291656705713603,0.9894486044928523
1296,0.10363375567774324,0.9894486044928523
1297,0.10363375567774324,0.989788972089857
1298,0.10546087906833783,0.989788972089857
1299,0.10546087906833783,0.9901293396868618
1300,0.10902974625183566,0.9901293396868618
1301,0.10902974625183566,0.9904697072838666
1302,0.11118131211365732,0.9904697072838666
1303,0.11118131211365732,0.9908100748808714
1304,0.11263276527441003,0.9908100748808714
1305,0.11266691711348656,0.9908100748808714
1306,0.1127010689525631,0.9908100748808714
1307,0.1127010689525631,0.9911504424778761
1308,0.1152966087223797,0.9911504424778761
1309,0.1152966087223797,0.9914908100748808
1310,0.11953143676786995,0.9914908100748808
1311,0.11953143676786995,0.9918311776718857
1312,0.12067552337693385,0.9918311776718857
1313,0.12067552337693385,0.9921715452688904
1314,0.12484204774427103,0.9921715452688904
1315,0.12487619958334756,0.9921715452688904
1316,0.12549093268672518,0.9921715452688904
1317,0.12549093268672518,0.9925119128658951
1318,0.12653256377855948,0.9925119128658951
1319,0.12653256377855948,0.9928522804629
1320,0.12699361360609268,0.9928522804629
1321,0.12699361360609268,0.9931926480599047
1322,0.128035244697927,0.9931926480599047
1323,0.128035244697927,0.9935330156569094
1324,0.12806939653700353,0.9935330156569094
1325,0.12810354837608004,0.9935330156569094
1326,0.1312455175711212,0.9935330156569094
1327,0.1312455175711212,0.9938733832539143
1328,0.13425087940985622,0.9938733832539143
1329,0.13425087940985622,0.994213750850919
1330,0.13537789009938186,0.994213750850919
1331,0.13537789009938186,0.9945541184479237
1332,0.1358218640073768,0.9945541184479237
1333,0.1358218640073768,0.9948944860449285
1334,0.14753594481062804,0.9948944860449285
1335,0.14753594481062804,0.9952348536419333
1336,0.14775793176462554,0.9952348536419333
1337,0.14775793176462554,0.995575221238938
1338,0.14796284279908473,0.995575221238938
1339,0.14796284279908473,0.9959155888359428
1340,0.14801407055769952,0.9959155888359428
1341,0.14804822239677606,0.9959155888359428
1342,0.14992657354598546,0.9959155888359428
1343,0.149960725385062,0.9959155888359428
1344,0.15100235647689628,0.9959155888359428
1345,0.15100235647689628,0.9962559564329476
1346,0.15646665072914176,0.9962559564329476
1347,0.1565008025682183,0.9962559564329476
1348,0.1565520303268331,0.9962559564329476
1349,0.15658618216590964,0.9962559564329476
1350,0.16058194733786416,0.9962559564329476
1351,0.16058194733786416,0.9965963240299524
1352,0.1614869710733923,0.9965963240299524
1353,0.1614869710733923,0.9969366916269571
1354,0.1706225880263652,0.9969366916269571
1355,0.1706225880263652,0.9972770592239619
1356,0.17098118233666884,0.9972770592239619
1357,0.17098118233666884,0.9976174268209667
1358,0.1782725999795089,0.9976174268209667
1359,0.17830675181858543,0.9976174268209667
1360,0.18990130118506882,0.9976174268209667
1361,0.18993545302414536,0.9976174268209667
1362,0.19922475325296268,0.9976174268209667
1363,0.1992589050920392,0.9976174268209667
1364,0.21056316382637205,0.9976174268209667
1365,0.2105973156654486,0.9976174268209667
1366,0.2157883952050818,0.9976174268209667
1367,0.2157883952050818,0.9979577944179714
1368,0.21592500256138794,0.9979577944179714
1369,0.21592500256138794,0.9982981620149761
1370,0.21674464669922475,0.9982981620149761
1371,0.21674464669922475,0.998638529611981
1372,0.23211297428366517,0.998638529611981
1373,0.23211297428366517,0.9989788972089857
1374,0.2479935794542536,0.9989788972089857
1375,0.2479935794542536,0.9993192648059904
1376,0.25670229841876985,0.9993192648059904
1377,0.25673645025784636,0.9993192648059904
1378,0.2580171442232164,0.9993192648059904
1379,0.25805129606229293,0.9993192648059904
1380,0.25881971244151497,0.9993192648059904
1381,0.2588538642805915,0.9993192648059904
1382,0.25919538267135683,0.9993192648059904
1383,0.2592295345104334,0.9993192648059904
1384,0.2628667053720843,0.9993192648059904
1385,0.2629008572111608,0.9993192648059904
1386,0.2649499675557529,0.9993192648059904
1387,0.2649841193948294,0.9993192648059904
1388,0.2679894812335644,0.9993192648059904
1389,0.268023633072641,0.9993192648059904
1390,0.269560465831085,0.9993192648059904
1391,0.2695946176701615,0.9993192648059904
1392,0.2763225299682388,0.9993192648059904
1393,0.2763566818073153,0.9993192648059904
1394,0.28159898910556336,0.9993192648059904
1395,0.28163314094463987,0.9993192648059904
1396,0.28752433318534204,0.9993192648059904
1397,0.28755848502441855,0.9993192648059904
1398,0.2999043748505857,0.9993192648059904
1399,0.2999043748505857,0.9996596324029953
1400,0.3032000273214713,0.9996596324029953
1401,0.3032341791605478,0.9996596324029953
1402,0.3195075304805164,0.9996596324029953
1403,0.3195416823195929,0.9996596324029953
1404,0.3285236159967214,0.9996596324029953
1405,0.32855776783579793,0.9996596324029953
1406,0.342047744271029,0.9996596324029953
1407,0.34208189611010553,0.9996596324029953
1408,0.3431064512824016,0.9996596324029953
1409,0.3431406031214781,0.9996596324029953
1410,0.3582357159933062,0.9996596324029953
1411,0.3582698678323828,0.9996596324029953
1412,0.36310235306171235,0.9996596324029953
1413,0.3631365049007889,0.9996596324029953
1414,0.3653392985212254,0.9996596324029953
1415,0.3653392985212254,1.0
1416,0.38192001639288276,1.0
1417,0.38195416823195927,1.0
1418,0.38349100099040334,1.0
1419,0.38352515282947985,1.0
1420,0.3878282845531232,1.0
1421,0.3878624363921997,1.0
1422,0.3898773948977152,1.0
1423,0.3899115467367918,1.0
1424,0.4208360370205936,1.0
1425,0.4208701888596701,1.0
1426,0.4272736586865203,1.0
1427,0.4273078105255968,1.0
1428,0.43062053891602065,1.0
1429,0.43065469075509716,1.0
1430,0.442215088282504,1.0
1431,0.44224924012158057,1.0
1432,0.46480652983163145,1.0
1433,0.46484068167070797,1.0
1434,0.47160274580786177,1.0
1435,0.4716368976469383,1.0
1436,0.4764693828762679,1.0
1437,0.4765035347153444,1.0
1438,0.4844779891397152,1.0
1439,0.4845121409787917,1.0
1440,0.48750042689798845,1.0
1441,0.487534578737065,1.0
1442,0.4962432977015812,1.0
1443,0.4962774495406578,1.0
1444,0.5345787370649909,1.0
1445,0.5346128889040674,1.0
1446,0.5647860387281856,1.0
1447,0.5648201905672621,1.0
1448,0.59115125849527,1.0
1449,0.5911854103343465,1.0
1450,0.6093371128035244,1.0
1451,0.609371264642601,1.0
1452,0.6144769645845429,1.0
1453,0.6145111164236194,1.0
1454,0.6206755233769339,1.0
1455,0.6207096752160104,1.0
1456,0.621836685905536,1.0
1457,0.6218708377446125,1.0
1458,0.6222977357330692,1.0
1459,0.6223318875721457,1.0
1460,0.6247225163075032,1.0
1461,0.6247566681465797,1.0
1462,0.6252177179741129,1.0
1463,0.6252518698131895,1.0
1464,0.6330043372835628,1.0
1465,0.6330384891226393,1.0
1466,0.6341142720535501,1.0
1467,0.6341484238926266,1.0
1468,0.6470919709026332,1.0
1469,0.6471261227417097,1.0
1470,0.6506779140056692,1.0
1471,0.6507120658447457,1.0
1472,0.6538198832007104,1.0
1473,0.6538540350397869,1.0
1474,0.6559202213039173,1.0
1475,0.6559543731429938,1.0
1476,0.6561763600969912,1.0
1477,0.6562105119360677,1.0
1478,0.6578668761312797,1.0
1479,0.6579010279703562,1.0
1480,0.6598476827977187,1.0
1481,0.6598818346367952,1.0
1482,0.6599330623954099,1.0
1483,0.6599672142344866,1.0
1484,0.6647826235442779,1.0
1485,0.6648167753833544,1.0
1486,0.6650046104982753,1.0
1487,0.6650387623373518,1.0
1488,0.6824903521054608,1.0
1489,0.6825245039445375,1.0
1490,0.6830026296916089,1.0
1491,0.6830367815306855,1.0
1492,0.6847785253235886,1.0
1493,0.6848126771626653,1.0
1494,0.6853591065878898,1.0
1495,0.6853932584269663,1.0
1496,0.6867934838291042,1.0
1497,0.6868276356681807,1.0
1498,0.6957071138280796,1.0
1499,0.6957583415866945,1.0
1500,0.6985246405518937,1.0
1501,0.6985587923909703,1.0
1502,0.7018544448618558,1.0
1503,0.7018885967009324,1.0
1504,0.7028106963559988,1.0
1505,0.7028448481950753,1.0
1506,0.7070796762405656,1.0
1507,0.7071138280796421,1.0
1508,0.7096922919299204,1.0
1509,0.709726443768997,1.0
1510,0.7101191899183771,1.0
1511,0.7101533417574536,1.0
1512,0.7178887333082886,1.0
1513,0.7179228851473651,1.0
1514,0.7226187630203886,1.0
1515,0.7226870666985418,1.0
1516,0.7238482292271439,1.0
1517,0.7238823810662204,1.0
1518,0.7249410880775929,1.0
1519,0.7249752399166696,1.0
1520,0.7265291485946518,1.0
1521,0.7265633004337284,1.0
1522,0.7303712304907619,1.0
1523,0.7304053823298384,1.0
1524,0.7346572862948669,1.0
1525,0.7346914381339436,1.0
1526,0.7393019364092757,1.0
1527,0.7393360882483522,1.0
1528,0.741111983880332,1.0
1529,0.7411461357194085,1.0
1530,0.7583245107749053,1.0
1531,0.7583586626139818,1.0
1532,0.7770909463474608,1.0
1533,0.7771250981865373,1.0
1534,0.7777569072094532,1.0
1535,0.7777910590485297,1.0
1536,0.7861924114613572,1.0
1537,0.7862265633004337,1.0
1538,0.7864143984153547,1.0
1539,0.7864485502544312,1.0
1540,0.789249001058707,1.0
1541,0.7892831528977835,1.0
1542,0.7894709880127044,1.0
1543,0.7895051398517811,1.0
1544,0.7917079334722175,1.0
1545,0.791742085311294,1.0
1546,0.8058638707694409,1.0
1547,0.8058980226085175,1.0
1548,0.8114476964584543,1.0
1549,0.8114818482975308,1.0
1550,0.8157337522625593,1.0
1551,0.8157679041016359,1.0
1552,0.8161264984119395,1.0
1553,0.816160650251016,1.0
1554,0.826132987261364,1.0
1555,0.8261671391004406,1.0
1556,0.8480072401898843,1.0
1557,0.8480413920289608,1.0
1558,0.8561695297291759,1.0
1559,0.8562036815682524,1.0
1560,0.8970322051842492,1.0
1561,0.8970663570233257,1.0
1562,0.9198968614459888,1.0
1563,0.9199310132850654,1.0
1564,0.9279908473071274,1.0
1565,0.9280249991462041,1.0
1566,1.0,1.0
