,fpr,tpr
0,0.0,0.0
1,0.0,0.0003403675970047651
2,0.0,0.0010211027910142954
3,1.7075919538267136e-05,0.0010211027910142954
4,1.7075919538267136e-05,0.0030633083730428863
5,3.415183907653427e-05,0.0030633083730428863
6,3.415183907653427e-05,0.033356024506466984
7,5.1227758614801405e-05,0.033356024506466984
8,5.1227758614801405e-05,0.2059223961878829
9,5.1227758614801405e-05,0.20660313138189246
10,5.1227758614801405e-05,0.23008849557522124
11,6.830367815306854e-05,0.23008849557522124
12,6.830367815306854e-05,0.2903335602450647
13,8.537959769133568e-05,0.2903335602450647
14,8.537959769133568e-05,0.31756296800544587
15,0.00010245551722960281,0.31756296800544587
16,0.00010245551722960281,0.3454731109598366
17,0.00011953143676786995,0.3454731109598366
18,0.00011953143676786995,0.5037440435670524
19,0.0001366073563061371,0.5037440435670524
20,0.0001366073563061371,0.5054458815520763
21,0.00015368327584440423,0.5054458815520763
22,0.00015368327584440423,0.511572498298162
23,0.00017075919538267137,0.511572498298162
24,0.00017075919538267137,0.5146358066712049
25,0.00018783511492093848,0.5146358066712049
26,0.00018783511492093848,0.5194009530292716
27,0.00020491103445920562,0.5194009530292716
28,0.00020491103445920562,0.5241660993873384
29,0.00022198695399747276,0.5241660993873384
30,0.00022198695399747276,0.5302927161334241
31,0.0002390628735357399,0.5302927161334241
32,0.0002390628735357399,0.5350578624914908
33,0.000256138793074007,0.5350578624914908
34,0.000256138793074007,0.546289993192648
35,0.0002732147126122742,0.546289993192648
36,0.0002732147126122742,0.5469707283866576
37,0.0002902906321505413,0.5469707283866576
38,0.0002902906321505413,0.5473110959836623
39,0.00030736655168880846,0.5473110959836623
40,0.00030736655168880846,0.5476514635806671
41,0.00032444247122707557,0.5476514635806671
42,0.00032444247122707557,0.5568413886997958
43,0.00034151839076534274,0.5568413886997958
44,0.00034151839076534274,0.5602450646698435
45,0.00035859431030360985,0.5602450646698435
46,0.00035859431030360985,0.5697753573859768
47,0.00037567022984187696,0.5697753573859768
48,0.00037567022984187696,0.5738597685500341
49,0.00039274614938014413,0.5738597685500341
50,0.00039274614938014413,0.5789652825051055
51,0.00040982206891841124,0.5789652825051055
52,0.00040982206891841124,0.5833900612661674
53,0.0004268979884566784,0.5833900612661674
54,0.0004268979884566784,0.588495575221239
55,0.0004439739079949455,0.588495575221239
56,0.0004439739079949455,0.591218515997277
57,0.0004610498275332127,0.591218515997277
58,0.0004610498275332127,0.5925799863852961
59,0.0004781257470714798,0.5925799863852961
60,0.0004781257470714798,0.5929203539823009
61,0.000512277586148014,0.5929203539823009
62,0.000512277586148014,0.5966643975493533
63,0.0005293535056862812,0.5966643975493533
64,0.0005293535056862812,0.5987066031313819
65,0.0005464294252245484,0.5987066031313819
66,0.0005464294252245484,0.600068073519401
67,0.0005635053447628155,0.600068073519401
68,0.0005635053447628155,0.6010891763104153
69,0.0005805812643010826,0.6010891763104153
70,0.0005805812643010826,0.6092579986385296
71,0.0005976571838393497,0.6092579986385296
72,0.0005976571838393497,0.6095983662355344
73,0.0006147331033776169,0.6095983662355344
74,0.0006147331033776169,0.6099387338325392
75,0.000631809022915884,0.6099387338325392
76,0.000631809022915884,0.6170864533696392
77,0.0006488849424541511,0.6170864533696392
78,0.0006488849424541511,0.6221919673247107
79,0.0006659608619924183,0.6221919673247107
80,0.0006659608619924183,0.6238938053097345
81,0.0006830367815306855,0.6238938053097345
82,0.0006830367815306855,0.6286589516678013
83,0.0007001127010689526,0.6286589516678013
84,0.0007001127010689526,0.6300204220558203
85,0.0007171886206072197,0.6300204220558203
86,0.0007171886206072197,0.6320626276378489
87,0.0007342645401454868,0.6320626276378489
88,0.0007342645401454868,0.633424098025868
89,0.0007513404596837539,0.633424098025868
90,0.0007513404596837539,0.634785568413887
91,0.0007684163792220211,0.634785568413887
92,0.0007684163792220211,0.6371681415929203
93,0.0007854922987602883,0.6371681415929203
94,0.0007854922987602883,0.6429543907420013
95,0.0008196441378368225,0.6429543907420013
96,0.0008196441378368225,0.6436351259360109
97,0.0008367200573750896,0.6436351259360109
98,0.0008367200573750896,0.6460176991150443
99,0.0008537959769133568,0.6460176991150443
100,0.0008537959769133568,0.6501021102791015
101,0.0008708718964516239,0.6501021102791015
102,0.0008708718964516239,0.6531654186521443
103,0.000887947815989891,0.6531654186521443
104,0.000887947815989891,0.6538461538461539
105,0.0009050237355281582,0.6538461538461539
106,0.0009050237355281582,0.6552076242341729
107,0.0009220996550664254,0.6552076242341729
108,0.0009220996550664254,0.6562287270251872
109,0.0009391755746046925,0.6562287270251872
110,0.0009391755746046925,0.6569094622191968
111,0.0009562514941429596,0.6569094622191968
112,0.0009562514941429596,0.6599727705922396
113,0.0009733274136812267,0.6599727705922396
114,0.0009733274136812267,0.6606535057862492
115,0.001024555172296028,0.6606535057862492
116,0.001024555172296028,0.6640571817562968
117,0.0010416310918342953,0.6640571817562968
118,0.0010416310918342953,0.6643975493533015
119,0.0010587070113725625,0.6643975493533015
120,0.0010587070113725625,0.6667801225323349
121,0.0010757829309108295,0.6667801225323349
122,0.0010757829309108295,0.6671204901293397
123,0.0011099347699873637,0.6671204901293397
124,0.0011099347699873637,0.6674608577263444
125,0.001127010689525631,0.6674608577263444
126,0.001127010689525631,0.6688223281143635
127,0.0011440866090638982,0.6688223281143635
128,0.0011440866090638982,0.6701837985023825
129,0.0011611625286021652,0.6701837985023825
130,0.0011611625286021652,0.6705241660993874
131,0.0011953143676786994,0.6705241660993874
132,0.0011953143676786994,0.6746085772634445
133,0.0012123902872169666,0.6746085772634445
134,0.0012123902872169666,0.6763104152484684
135,0.0012294662067552338,0.6763104152484684
136,0.0012294662067552338,0.6773315180394827
137,0.001263618045831768,0.6773315180394827
138,0.001263618045831768,0.6790333560245064
139,0.0012806939653700353,0.6790333560245064
140,0.0012806939653700353,0.6807351940095303
141,0.0012977698849083023,0.6807351940095303
142,0.0012977698849083023,0.681075561606535
143,0.0013319217239848365,0.681075561606535
144,0.0013319217239848365,0.6827773995915589
145,0.0014002254021379052,0.6827773995915589
146,0.0014002254021379052,0.6848196051735874
147,0.0014173013216761722,0.6848196051735874
148,0.0014173013216761722,0.6851599727705923
149,0.0014514531607527066,0.6851599727705923
150,0.0014514531607527066,0.6861810755616066
151,0.0014685290802909736,0.6861810755616066
152,0.0014685290802909736,0.6865214431586113
153,0.0014856049998292408,0.6865214431586113
154,0.0014856049998292408,0.6882232811436352
155,0.0015539086779823093,0.6882232811436352
156,0.0015539086779823093,0.6892443839346494
157,0.0016051364365971107,0.6892443839346494
158,0.0016051364365971107,0.689925119128659
159,0.001622212356135378,0.689925119128659
160,0.001622212356135378,0.6916269571136828
161,0.001639288275673645,0.6916269571136828
162,0.001639288275673645,0.6919673247106876
163,0.0016563641952119122,0.6919673247106876
164,0.0016563641952119122,0.6923076923076923
165,0.0016734401147501792,0.6923076923076923
166,0.0016734401147501792,0.6936691626957113
167,0.0016905160342884464,0.6936691626957113
168,0.0016905160342884464,0.6943498978897209
169,0.0017246678733649806,0.6943498978897209
170,0.0017246678733649806,0.6950306330837305
171,0.001758819712441515,0.6950306330837305
172,0.001758819712441515,0.6953710006807352
173,0.001775895631979782,0.6953710006807352
174,0.001775895631979782,0.6977535738597685
175,0.0017929715515180493,0.6977535738597685
176,0.0017929715515180493,0.6987746766507829
177,0.0018100474710563163,0.6987746766507829
178,0.0018100474710563163,0.7004765146358066
179,0.0018271233905945835,0.7004765146358066
180,0.0018271233905945835,0.7042205582028591
181,0.0018441993101328507,0.7042205582028591
182,0.0018441993101328507,0.7045609257998638
183,0.0018612752296711178,0.7045609257998638
184,0.0018612752296711178,0.7049012933968686
185,0.001878351149209385,0.7049012933968686
186,0.001878351149209385,0.7083049693669162
187,0.001895427068747652,0.7083049693669162
188,0.001895427068747652,0.7113682777399591
189,0.0019125029882859192,0.7113682777399591
190,0.0019125029882859192,0.7134104833219878
191,0.0019466548273624534,0.7134104833219878
192,0.0019466548273624534,0.7140912185159973
193,0.0019637307469007204,0.7140912185159973
194,0.0019637307469007204,0.7144315861130021
195,0.001997882585977255,0.7144315861130021
196,0.001997882585977255,0.7161334240980258
197,0.002014958505515522,0.7161334240980258
198,0.002014958505515522,0.7164737916950307
199,0.0020832621836685905,0.7164737916950307
200,0.0020832621836685905,0.7181756296800544
201,0.002117414022745125,0.7181756296800544
202,0.002117414022745125,0.7198774676650783
203,0.0021344899422833918,0.7198774676650783
204,0.0021344899422833918,0.7205582028590878
205,0.002168641781359926,0.7205582028590878
206,0.002168641781359926,0.7226004084411164
207,0.0022027936204364607,0.7226004084411164
208,0.0022027936204364607,0.7239618788291354
209,0.0022198695399747274,0.7239618788291354
210,0.0022198695399747274,0.7249829816201497
211,0.002254021379051262,0.7249829816201497
212,0.002254021379051262,0.7256637168141593
213,0.0022881732181277963,0.7256637168141593
214,0.0022881732181277963,0.726004084411164
215,0.002305249137666063,0.726004084411164
216,0.002305249137666063,0.7287270251872022
217,0.0023223250572043303,0.7287270251872022
218,0.0023223250572043303,0.730428863172226
219,0.0023394009767425976,0.730428863172226
220,0.0023394009767425976,0.7331518039482642
221,0.0023564768962808648,0.7331518039482642
222,0.0023564768962808648,0.7338325391422736
223,0.002373552815819132,0.7338325391422736
224,0.002373552815819132,0.7355343771272975
225,0.0023906287353573988,0.7355343771272975
226,0.0023906287353573988,0.7382573179033356
227,0.002407704654895666,0.7382573179033356
228,0.002407704654895666,0.7392784206943499
229,0.0024247805744339332,0.7392784206943499
230,0.0024247805744339332,0.7406398910823689
231,0.0024418564939722004,0.7406398910823689
232,0.0024418564939722004,0.7409802586793737
233,0.002476008333048735,0.7409802586793737
234,0.002476008333048735,0.7413206262763785
235,0.002510160172125269,0.7413206262763785
236,0.002510160172125269,0.742001361470388
237,0.0025443120112018033,0.742001361470388
238,0.0025443120112018033,0.7433628318584071
239,0.0025613879307400706,0.7433628318584071
240,0.0025613879307400706,0.7437031994554119
241,0.0025784638502783373,0.7437031994554119
242,0.0025784638502783373,0.7450646698434309
243,0.002612615689354872,0.7450646698434309
244,0.002612615689354872,0.7454050374404356
245,0.002629691608893139,0.7454050374404356
246,0.002629691608893139,0.7460857726344452
247,0.0026467675284314062,0.7460857726344452
248,0.0026467675284314062,0.7464261402314499
249,0.0026809193675079402,0.7464261402314499
250,0.0026809193675079402,0.7477876106194691
251,0.0026979952870462075,0.7477876106194691
252,0.0026979952870462075,0.7488087134104833
253,0.0027150712065844747,0.7488087134104833
254,0.0027150712065844747,0.7494894486044928
255,0.002732147126122742,0.7494894486044928
256,0.002732147126122742,0.7498298162014976
257,0.0027492230456610087,0.7498298162014976
258,0.0027492230456610087,0.7508509189925119
259,0.002766298965199276,0.7508509189925119
260,0.002766298965199276,0.7522123893805309
261,0.002783374884737543,0.7522123893805309
262,0.002783374884737543,0.7525527569775358
263,0.0028175267238140776,0.7525527569775358
264,0.0028175267238140776,0.7528931245745405
265,0.0028346026433523444,0.7528931245745405
266,0.0028346026433523444,0.7532334921715452
267,0.0028516785628906116,0.7532334921715452
268,0.0028516785628906116,0.7542545949625595
269,0.002868754482428879,0.7542545949625595
270,0.002868754482428879,0.7566371681415929
271,0.002885830401967146,0.7566371681415929
272,0.002885830401967146,0.7573179033356024
273,0.00291998224104368,0.7573179033356024
274,0.00291998224104368,0.7586793737236215
275,0.0029541340801202145,0.7586793737236215
276,0.0029541340801202145,0.7590197413206263
277,0.0029712099996584817,0.7590197413206263
278,0.0029712099996584817,0.7593601089176311
279,0.002988285919196749,0.7593601089176311
280,0.002988285919196749,0.7603812117086454
281,0.0030053618387350157,0.7603812117086454
282,0.0030053618387350157,0.7631041524846834
283,0.003022437758273283,0.7631041524846834
284,0.003022437758273283,0.7634445200816882
285,0.00303951367781155,0.7634445200816882
286,0.00303951367781155,0.7641252552756977
287,0.0030736655168880846,0.7641252552756977
288,0.0030736655168880846,0.765146358066712
289,0.0030907414364263514,0.765146358066712
290,0.0030907414364263514,0.7658270932607216
291,0.0031078173559646186,0.7658270932607216
292,0.0031078173559646186,0.7665078284547311
293,0.003176121034117687,0.7665078284547311
294,0.003176121034117687,0.7675289312457454
295,0.0031931969536559543,0.7675289312457454
296,0.0031931969536559543,0.768209666439755
297,0.0032102728731942215,0.768209666439755
298,0.0032102728731942215,0.7692307692307693
299,0.0032273487927324887,0.7692307692307693
300,0.0032273487927324887,0.769571136827774
301,0.003244424712270756,0.769571136827774
302,0.003244424712270756,0.7699115044247787
303,0.00327857655134729,0.7699115044247787
304,0.00327857655134729,0.7702518720217836
305,0.003295652470885557,0.7702518720217836
306,0.003295652470885557,0.7705922396187883
307,0.0033127283904238244,0.7705922396187883
308,0.0033127283904238244,0.770932607215793
309,0.0033298043099620916,0.770932607215793
310,0.0033298043099620916,0.7716133424098026
311,0.0033468802295003584,0.7716133424098026
312,0.0033468802295003584,0.7722940776038121
313,0.0033639561490386256,0.7722940776038121
314,0.0033639561490386256,0.7726344452008169
315,0.0034151839076534273,0.7726344452008169
316,0.0034151839076534273,0.7746766507828454
317,0.0034322598271916945,0.7746766507828454
318,0.0034322598271916945,0.7750170183798503
319,0.0034493357467299613,0.7750170183798503
320,0.0034493357467299613,0.775357385976855
321,0.0034834875858064957,0.775357385976855
322,0.0034834875858064957,0.7780803267528931
323,0.00351763942488303,0.7780803267528931
324,0.00351763942488303,0.7784206943498979
325,0.003551791263959564,0.7784206943498979
326,0.003551791263959564,0.7787610619469026
327,0.0036371708616509,0.7787610619469026
328,0.0036371708616509,0.779782164737917
329,0.0036713227007274343,0.779782164737917
330,0.0036713227007274343,0.781143635125936
331,0.0036883986202657015,0.781143635125936
332,0.0036883986202657015,0.7818243703199456
333,0.0037225504593422355,0.7818243703199456
334,0.0037225504593422355,0.7821647379169503
335,0.0037396263788805027,0.7821647379169503
336,0.0037396263788805027,0.782505105513955
337,0.003773778217957037,0.782505105513955
338,0.003773778217957037,0.7828454731109599
339,0.0038250059765718384,0.7828454731109599
340,0.0038250059765718384,0.7831858407079646
341,0.0038420818961101056,0.7831858407079646
342,0.0038420818961101056,0.7835262083049693
343,0.0038762337351866396,0.7835262083049693
344,0.0038762337351866396,0.7838665759019742
345,0.003893309654724907,0.7838665759019742
346,0.003893309654724907,0.7859087814840027
347,0.003910385574263174,0.7859087814840027
348,0.003910385574263174,0.786929884275017
349,0.003927461493801441,0.786929884275017
350,0.003927461493801441,0.7872702518720218
351,0.003961613332877975,0.7872702518720218
352,0.003961613332877975,0.7893124574540503
353,0.003978689252416243,0.7893124574540503
354,0.003978689252416243,0.7899931926480599
355,0.00399576517195451,0.7899931926480599
356,0.00399576517195451,0.7903335602450646
357,0.0040128410914927765,0.7903335602450646
358,0.0040128410914927765,0.7910142954390742
359,0.004064068850107579,0.7910142954390742
360,0.004064068850107579,0.7923757658270932
361,0.004098220689184112,0.7923757658270932
362,0.004098220689184112,0.7937372362151123
363,0.004132372528260647,0.7937372362151123
364,0.004132372528260647,0.7940776038121171
365,0.004217752125951982,0.7940776038121171
366,0.004217752125951982,0.7947583390061266
367,0.00423482804549025,0.7947583390061266
368,0.00423482804549025,0.7950987066031314
369,0.0042689798845667835,0.7950987066031314
370,0.0042689798845667835,0.7954390742001362
371,0.004286055804105051,0.7954390742001362
372,0.004286055804105051,0.7957794417971409
373,0.004337283562719852,0.7957794417971409
374,0.004337283562719852,0.7964601769911505
375,0.004388511321334654,0.7964601769911505
376,0.004388511321334654,0.7968005445881552
377,0.004490966838564257,0.7968005445881552
378,0.004490966838564257,0.7974812797821648
379,0.004661726033946928,0.7974812797821648
380,0.004661726033946928,0.7978216473791695
381,0.004678801953485195,0.7978216473791695
382,0.004678801953485195,0.7981620149761742
383,0.004695877873023462,0.7981620149761742
384,0.004695877873023462,0.7985023825731791
385,0.004764181551176531,0.7985023825731791
386,0.004764181551176531,0.7991831177671885
387,0.0047812574707147976,0.7991831177671885
388,0.0047812574707147976,0.7998638529611981
389,0.004815409309791332,0.7998638529611981
390,0.004815409309791332,0.8005445881552076
391,0.0048324852293296,0.8005445881552076
392,0.0048324852293296,0.8008849557522124
393,0.0048495611488678664,0.8008849557522124
394,0.0048495611488678664,0.8012253233492171
395,0.004866637068406134,0.8012253233492171
396,0.004866637068406134,0.8015656909462219
397,0.00495201666609747,0.8015656909462219
398,0.00495201666609747,0.8019060585432267
399,0.005003244424712271,0.8019060585432267
400,0.005003244424712271,0.8022464261402315
401,0.005054472183327072,0.8022464261402315
402,0.005054472183327072,0.8025867937372362
403,0.005088624022403607,0.8025867937372362
404,0.005088624022403607,0.8032675289312458
405,0.005191079539633209,0.8032675289312458
406,0.005191079539633209,0.8039482641252553
407,0.005327686895939346,0.8039482641252553
408,0.005327686895939346,0.8042886317222601
409,0.0053618387350158805,0.8042886317222601
410,0.0053618387350158805,0.8046289993192648
411,0.005378914654554148,0.8046289993192648
412,0.005378914654554148,0.8049693669162695
413,0.005395990574092415,0.8049693669162695
414,0.005395990574092415,0.8059904697072838
415,0.005430142413168949,0.8059904697072838
416,0.005430142413168949,0.8070115724982981
417,0.005481370171783751,0.8070115724982981
418,0.005481370171783751,0.807351940095303
419,0.005532597930398552,0.807351940095303
420,0.005532597930398552,0.808713410483322
421,0.0055496738499368195,0.808713410483322
422,0.0055496738499368195,0.8097345132743363
423,0.005566749769475086,0.8097345132743363
424,0.005566749769475086,0.810074880871341
425,0.005583825689013353,0.810074880871341
426,0.005583825689013353,0.8107556160653506
427,0.005635053447628155,0.8107556160653506
428,0.005635053447628155,0.8110959836623554
429,0.005652129367166422,0.8110959836623554
430,0.005652129367166422,0.8114363512593601
431,0.005703357125781223,0.8114363512593601
432,0.005703357125781223,0.8117767188563648
433,0.005788736723472559,0.8117767188563648
434,0.005788736723472559,0.8121170864533697
435,0.0058058126430108265,0.8121170864533697
436,0.0058058126430108265,0.8124574540503744
437,0.0058741163211638945,0.8124574540503744
438,0.0058741163211638945,0.813138189244384
439,0.005891192240702162,0.813138189244384
440,0.005891192240702162,0.8134785568413887
441,0.005908268160240429,0.8134785568413887
442,0.005908268160240429,0.814499659632403
443,0.005925344079778696,0.814499659632403
444,0.005925344079778696,0.8148400272294077
445,0.005976571838393498,0.8148400272294077
446,0.005976571838393498,0.8151803948264126
447,0.006113179194699635,0.8151803948264126
448,0.006113179194699635,0.8155207624234173
449,0.006147331033776169,0.8155207624234173
450,0.006147331033776169,0.815861130020422
451,0.006232710631467505,0.815861130020422
452,0.006232710631467505,0.8165418652144316
453,0.006283938390082306,0.8165418652144316
454,0.006283938390082306,0.8168822328114363
455,0.006301014309620573,0.8168822328114363
456,0.006301014309620573,0.8179033356024507
457,0.0063180902291588405,0.8179033356024507
458,0.0063180902291588405,0.8192648059904697
459,0.006369317987773642,0.8192648059904697
460,0.006369317987773642,0.8199455411844793
461,0.006420545746388443,0.8199455411844793
462,0.006420545746388443,0.8209666439754936
463,0.006454697585464977,0.8209666439754936
464,0.006454697585464977,0.821647379169503
465,0.006471773505003244,0.821647379169503
466,0.006471773505003244,0.8219877467665079
467,0.006488849424541512,0.8219877467665079
468,0.006488849424541512,0.8223281143635126
469,0.006505925344079779,0.8223281143635126
470,0.006505925344079779,0.8226684819605173
471,0.006523001263618045,0.8226684819605173
472,0.006523001263618045,0.8233492171545269
473,0.006540077183156313,0.8233492171545269
474,0.006540077183156313,0.8243703199455412
475,0.0065742290222328475,0.8243703199455412
476,0.0065742290222328475,0.8250510551395507
477,0.006591304941771114,0.8250510551395507
478,0.006591304941771114,0.8257317903335603
479,0.006693760459000717,0.8257317903335603
480,0.006693760459000717,0.8264125255275698
481,0.006727912298077251,0.8264125255275698
482,0.006727912298077251,0.8270932607215793
483,0.006762064137153786,0.8270932607215793
484,0.006762064137153786,0.8281143635125936
485,0.0067791400566920524,0.8281143635125936
486,0.0067791400566920524,0.8301565690946222
487,0.006847443734845121,0.8301565690946222
488,0.006847443734845121,0.8315180394826412
489,0.006864519654383389,0.8315180394826412
490,0.006864519654383389,0.8321987746766508
491,0.006949899252074725,0.8321987746766508
492,0.006949899252074725,0.8325391422736556
493,0.006984051091151258,0.8325391422736556
494,0.006984051091151258,0.8328795098706603
495,0.00703527884976606,0.8328795098706603
496,0.00703527884976606,0.8332198774676651
497,0.007069430688842594,0.8332198774676651
498,0.007069430688842594,0.8339006126616746
499,0.007103582527919128,0.8339006126616746
500,0.007103582527919128,0.8342409802586793
501,0.0071548102865339296,0.8342409802586793
502,0.0071548102865339296,0.8345813478556842
503,0.007188962125610464,0.8345813478556842
504,0.007188962125610464,0.8349217154526889
505,0.007206038045148732,0.8349217154526889
506,0.007206038045148732,0.8352620830496936
507,0.007240189884225265,0.8352620830496936
508,0.007240189884225265,0.8356024506466985
509,0.007291417642840067,0.8356024506466985
510,0.007291417642840067,0.8359428182437032
511,0.007325569481916601,0.8359428182437032
512,0.007325569481916601,0.8362831858407079
513,0.007376797240531403,0.8362831858407079
514,0.007376797240531403,0.8369639210347175
515,0.00739387316006967,0.8369639210347175
516,0.00739387316006967,0.8373042886317222
517,0.007410949079607937,0.8373042886317222
518,0.007410949079607937,0.8376446562287271
519,0.0074792527577610055,0.8376446562287271
520,0.0074792527577610055,0.8379850238257318
521,0.00751340459683754,0.8379850238257318
522,0.00751340459683754,0.8383253914227365
523,0.007547556435914074,0.8383253914227365
524,0.007547556435914074,0.8386657590197413
525,0.007564632355452341,0.8386657590197413
526,0.007564632355452341,0.8390061266167461
527,0.00763293603360541,0.8390061266167461
528,0.00763293603360541,0.8393464942137508
529,0.007667087872681944,0.8393464942137508
530,0.007667087872681944,0.8396868618107556
531,0.007684163792220211,0.8396868618107556
532,0.007684163792220211,0.8400272294077604
533,0.007701239711758478,0.8400272294077604
534,0.007701239711758478,0.8403675970047652
535,0.0077353915508350125,0.8403675970047652
536,0.0077353915508350125,0.8410483321987747
537,0.007769543389911547,0.8410483321987747
538,0.007769543389911547,0.8417290673927842
539,0.007820771148526348,0.8417290673927842
540,0.007820771148526348,0.8420694349897889
541,0.00787199890714115,0.8420694349897889
542,0.00787199890714115,0.8424098025867938
543,0.007957378504832486,0.8424098025867938
544,0.007957378504832486,0.8427501701837985
545,0.00799153034390902,0.8427501701837985
546,0.00799153034390902,0.8430905377808032
547,0.008008606263447286,0.8430905377808032
548,0.008008606263447286,0.8434309053778081
549,0.008025682182985553,0.8434309053778081
550,0.008025682182985553,0.8437712729748128
551,0.008042758102523822,0.8437712729748128
552,0.008042758102523822,0.8451327433628318
553,0.008076909941600355,0.8451327433628318
554,0.008076909941600355,0.8458134785568414
555,0.008145213619753424,0.8458134785568414
556,0.008145213619753424,0.8461538461538461
557,0.00816228953929169,0.8461538461538461
558,0.00816228953929169,0.8468345813478557
559,0.008196441378368224,0.8468345813478557
560,0.008196441378368224,0.8471749489448605
561,0.00823059321744476,0.8471749489448605
562,0.00823059321744476,0.8475153165418652
563,0.008298896895597829,0.8475153165418652
564,0.008298896895597829,0.8481960517358748
565,0.008333048734674362,0.8481960517358748
566,0.008333048734674362,0.8485364193328795
567,0.0084696560909805,0.8485364193328795
568,0.0084696560909805,0.8488767869298843
569,0.008503807930057034,0.8488767869298843
570,0.008503807930057034,0.8492171545268891
571,0.0085208838495953,0.8492171545268891
572,0.0085208838495953,0.8515997277059224
573,0.008623339366824903,0.8515997277059224
574,0.008623339366824903,0.8519400953029271
575,0.008640415286363171,0.8519400953029271
576,0.008640415286363171,0.8526208304969367
577,0.008691643044977972,0.8526208304969367
578,0.008691643044977972,0.8533015656909462
579,0.008708718964516238,0.8533015656909462
580,0.008708718964516238,0.853641933287951
581,0.008725794884054507,0.853641933287951
582,0.008725794884054507,0.8539823008849557
583,0.008742870803592774,0.8539823008849557
584,0.008742870803592774,0.8543226684819605
585,0.008811174481745843,0.8543226684819605
586,0.008811174481745843,0.8560245064669844
587,0.008845326320822376,0.8560245064669844
588,0.008845326320822376,0.8563648740639891
589,0.00887947815989891,0.8563648740639891
590,0.00887947815989891,0.8567052416609938
591,0.008913629998975445,0.8567052416609938
592,0.008913629998975445,0.8570456092579987
593,0.008981933677128514,0.8570456092579987
594,0.008981933677128514,0.8573859768550034
595,0.009016085516205048,0.8573859768550034
596,0.009016085516205048,0.858066712049013
597,0.009033161435743314,0.858066712049013
598,0.009033161435743314,0.8584070796460177
599,0.00911854103343465,0.8584070796460177
600,0.00911854103343465,0.8590878148400273
601,0.009135616952972917,0.8590878148400273
602,0.009135616952972917,0.859428182437032
603,0.009186844711587719,0.859428182437032
604,0.009186844711587719,0.8597685500340367
605,0.009272224309279055,0.8597685500340367
606,0.009272224309279055,0.8604492852280463
607,0.009391755746046924,0.8604492852280463
608,0.009391755746046924,0.860789652825051
609,0.009408831665585192,0.860789652825051
610,0.009408831665585192,0.8618107556160653
611,0.009442983504661726,0.8618107556160653
612,0.009442983504661726,0.8621511232130701
613,0.00959666678050613,0.8621511232130701
614,0.00959666678050613,0.8628318584070797
615,0.009630818619582664,0.8628318584070797
616,0.009630818619582664,0.8631722260040844
617,0.00964789453912093,0.8631722260040844
618,0.00964789453912093,0.8635125936010892
619,0.0096649704586592,0.8635125936010892
620,0.0096649704586592,0.8641933287950987
621,0.009682046378197466,0.8641933287950987
622,0.009682046378197466,0.8655547991831177
623,0.009699122297735733,0.8655547991831177
624,0.009699122297735733,0.8658951667801226
625,0.009733274136812268,0.8658951667801226
626,0.009733274136812268,0.8662355343771273
627,0.009750350056350535,0.8662355343771273
628,0.009750350056350535,0.8672566371681416
629,0.009767425975888802,0.8672566371681416
630,0.009767425975888802,0.8675970047651463
631,0.009784501895427069,0.8675970047651463
632,0.009784501895427069,0.8679373723621511
633,0.009852805573580137,0.8679373723621511
634,0.009852805573580137,0.8686181075561606
635,0.009886957412656671,0.8686181075561606
636,0.009886957412656671,0.8689584751531654
637,0.009921109251733206,0.8689584751531654
638,0.009921109251733206,0.8703199455411845
639,0.00995526109080974,0.8703199455411845
640,0.00995526109080974,0.8706603131381893
641,0.010074792527577611,0.8706603131381893
642,0.010074792527577611,0.8713410483321987
643,0.010126020286192411,0.8713410483321987
644,0.010126020286192411,0.8716814159292036
645,0.010211399883883747,0.8716814159292036
646,0.010211399883883747,0.872362151123213
647,0.010245551722960282,0.872362151123213
648,0.010245551722960282,0.8727025187202179
649,0.010262627642498549,0.8727025187202179
650,0.010262627642498549,0.8733832539142273
651,0.010279703562036816,0.8733832539142273
652,0.010279703562036816,0.8737236215112322
653,0.01031385540111335,0.8737236215112322
654,0.01031385540111335,0.8740639891082369
655,0.010348007240189885,0.8740639891082369
656,0.010348007240189885,0.8744043567052416
657,0.010365083159728151,0.8744043567052416
658,0.010365083159728151,0.8747447243022465
659,0.010416310918342954,0.8747447243022465
660,0.010416310918342954,0.8750850918992512
661,0.01043338683788122,0.8750850918992512
662,0.01043338683788122,0.8754254594962559
663,0.01048461459649602,0.8754254594962559
664,0.01048461459649602,0.8757658270932607
665,0.010518766435572556,0.8757658270932607
666,0.010518766435572556,0.8761061946902655
667,0.010535842355110823,0.8761061946902655
668,0.010535842355110823,0.8764465622872702
669,0.01067244971141696,0.8764465622872702
670,0.01067244971141696,0.876786929884275
671,0.010689525630955227,0.876786929884275
672,0.010689525630955227,0.8771272974812798
673,0.010723677470031761,0.8771272974812798
674,0.010723677470031761,0.8778080326752893
675,0.01079198114818483,0.8778080326752893
676,0.01079198114818483,0.8781484002722941
677,0.010809057067723097,0.8781484002722941
678,0.010809057067723097,0.8784887678692989
679,0.010826132987261363,0.8784887678692989
680,0.010826132987261363,0.8795098706603132
681,0.010843208906799632,0.8795098706603132
682,0.010843208906799632,0.8798502382573179
683,0.010894436665414432,0.8798502382573179
684,0.010894436665414432,0.8801906058543226
685,0.010911512584952699,0.8801906058543226
686,0.010911512584952699,0.8808713410483322
687,0.010945664424029234,0.8808713410483322
688,0.010945664424029234,0.8812117086453369
689,0.010962740343567501,0.8812117086453369
690,0.010962740343567501,0.8818924438393465
691,0.01103104402172057,0.8818924438393465
692,0.01103104402172057,0.8822328114363512
693,0.011048119941258837,0.8822328114363512
694,0.011048119941258837,0.882573179033356
695,0.01108227178033537,0.882573179033356
696,0.01108227178033537,0.8832539142273655
697,0.011167651378026706,0.8832539142273655
698,0.011167651378026706,0.8839346494213751
699,0.011253030975718042,0.8839346494213751
700,0.011253030975718042,0.8842750170183798
701,0.011355486492947646,0.8842750170183798
702,0.011355486492947646,0.8846153846153846
703,0.011423790171100713,0.8846153846153846
704,0.011423790171100713,0.8849557522123894
705,0.011509169768792049,0.8849557522123894
706,0.011509169768792049,0.8852961198093942
707,0.011526245688330317,0.8852961198093942
708,0.011526245688330317,0.8869979577944179
709,0.011731156722789522,0.8869979577944179
710,0.011731156722789522,0.8873383253914228
711,0.011748232642327789,0.8873383253914228
712,0.011748232642327789,0.8880190605854322
713,0.011936067757248727,0.8880190605854322
714,0.011936067757248727,0.8883594281824371
715,0.011953143676786996,0.8883594281824371
716,0.011953143676786996,0.8886997957794418
717,0.011970219596325262,0.8886997957794418
718,0.011970219596325262,0.8890401633764465
719,0.012072675113554865,0.8890401633764465
720,0.012072675113554865,0.8897208985704561
721,0.012089751033093132,0.8897208985704561
722,0.012089751033093132,0.8900612661674608
723,0.012123902872169667,0.8900612661674608
724,0.012123902872169667,0.8907420013614704
725,0.012140978791707934,0.8907420013614704
726,0.012140978791707934,0.8910823689584751
727,0.012209282469861003,0.8910823689584751
728,0.012209282469861003,0.8914227365554799
729,0.012260510228475803,0.8914227365554799
730,0.012260510228475803,0.8917631041524847
731,0.012311737987090605,0.8917631041524847
732,0.012311737987090605,0.8921034717494895
733,0.012533724941088077,0.8921034717494895
734,0.012533724941088077,0.8924438393464942
735,0.012567876780164612,0.8924438393464942
736,0.012567876780164612,0.892784206943499
737,0.012584952699702879,0.892784206943499
738,0.012584952699702879,0.8931245745405038
739,0.012687408216932481,0.8931245745405038
740,0.012687408216932481,0.8934649421375085
741,0.012772787814623817,0.8934649421375085
742,0.012772787814623817,0.8938053097345132
743,0.012789863734162084,0.8938053097345132
744,0.012789863734162084,0.8941456773315181
745,0.012926471090468222,0.8941456773315181
746,0.012926471090468222,0.8944860449285228
747,0.013182609883542229,0.8944860449285228
748,0.013182609883542229,0.8948264125255275
749,0.013199685803080495,0.8948264125255275
750,0.013199685803080495,0.8951667801225324
751,0.01323383764215703,0.8951667801225324
752,0.01323383764215703,0.8961878829135467
753,0.013285065400771831,0.8961878829135467
754,0.013285065400771831,0.8965282505105514
755,0.013319217239848366,0.8965282505105514
756,0.013319217239848366,0.897208985704561
757,0.0133533690789249,0.897208985704561
758,0.0133533690789249,0.8975493533015657
759,0.013387520918001434,0.8975493533015657
760,0.013387520918001434,0.8978897208985704
761,0.013404596837539702,0.8978897208985704
762,0.013404596837539702,0.8982300884955752
763,0.013438748676616236,0.8982300884955752
764,0.013438748676616236,0.8989108236895847
765,0.01347290051569277,0.8989108236895847
766,0.01347290051569277,0.8992511912865895
767,0.013489976435231038,0.8992511912865895
768,0.013489976435231038,0.8995915588835943
769,0.013507052354769305,0.8995915588835943
770,0.013507052354769305,0.899931926480599
771,0.013541204193845838,0.899931926480599
772,0.013541204193845838,0.9002722940776038
773,0.013626583791537174,0.9002722940776038
774,0.013626583791537174,0.9006126616746086
775,0.01389979850414945,0.9006126616746086
776,0.01389979850414945,0.9009530292716134
777,0.014207165055838257,0.9009530292716134
778,0.014207165055838257,0.9012933968686181
779,0.014241316894914792,0.9012933968686181
780,0.014241316894914792,0.9019741320626277
781,0.014292544653529592,0.9019741320626277
782,0.014292544653529592,0.9023144996596324
783,0.014309620573067859,0.9023144996596324
784,0.014309620573067859,0.902995234853642
785,0.01471944264198627,0.902995234853642
786,0.01471944264198627,0.9036759700476514
787,0.014804822239677606,0.9036759700476514
788,0.014804822239677606,0.904356705241661
789,0.014975581435060278,0.904356705241661
790,0.014975581435060278,0.9046970728386657
791,0.015009733274136813,0.9046970728386657
792,0.015009733274136813,0.9050374404356705
793,0.015214644308596018,0.9050374404356705
794,0.015214644308596018,0.9053778080326753
795,0.015334175745363887,0.9053778080326753
796,0.015334175745363887,0.90571817562968
797,0.015351251664902156,0.90571817562968
798,0.015351251664902156,0.9063989108236896
799,0.015368327584440422,0.9063989108236896
800,0.015368327584440422,0.9067392784206944
801,0.015436631262593491,0.9067392784206944
802,0.015436631262593491,0.9070796460176991
803,0.015522010860284827,0.9070796460176991
804,0.015522010860284827,0.9074200136147039
805,0.015641542297052696,0.9074200136147039
806,0.015641542297052696,0.9077603812117087
807,0.015726921894744034,0.9077603812117087
808,0.015726921894744034,0.9081007488087134
809,0.015829377411973634,0.9081007488087134
810,0.015829377411973634,0.908781484002723
811,0.015965984768279772,0.908781484002723
812,0.015965984768279772,0.9091218515997277
813,0.016051364365971106,0.9091218515997277
814,0.016051364365971106,0.9094622191967324
815,0.01615381988320071,0.9094622191967324
816,0.01615381988320071,0.910142954390742
817,0.016222123561353777,0.910142954390742
818,0.016222123561353777,0.9104833219877467
819,0.016358730917659915,0.9104833219877467
820,0.016358730917659915,0.9108236895847516
821,0.01640995867627472,0.9108236895847516
822,0.01640995867627472,0.911504424778761
823,0.016427034595812986,0.911504424778761
824,0.016427034595812986,0.9118447923757659
825,0.016546566032580853,0.9118447923757659
826,0.016546566032580853,0.9121851599727706
827,0.016888084423346196,0.9121851599727706
828,0.016888084423346196,0.9128658951667801
829,0.016905160342884463,0.9128658951667801
830,0.016905160342884463,0.9132062627637849
831,0.016956388101499267,0.9132062627637849
832,0.016956388101499267,0.9135466303607896
833,0.0169905399405758,0.9135466303607896
834,0.0169905399405758,0.9138869979577944
835,0.017007615860114067,0.9138869979577944
836,0.017007615860114067,0.9142273655547992
837,0.017075919538267134,0.9142273655547992
838,0.017075919538267134,0.914567733151804
839,0.01711007137734367,0.914567733151804
840,0.01711007137734367,0.9149081007488087
841,0.017212526894573272,0.9149081007488087
842,0.017212526894573272,0.9155888359428183
843,0.01722960281411154,0.9155888359428183
844,0.01722960281411154,0.915929203539823
845,0.017485741607185547,0.915929203539823
846,0.017485741607185547,0.9162695711368277
847,0.017502817526723814,0.9162695711368277
848,0.017502817526723814,0.9166099387338326
849,0.01775895631979782,0.9166099387338326
850,0.01775895631979782,0.9169503063308373
851,0.017895563676103957,0.9169503063308373
852,0.017895563676103957,0.917290673927842
853,0.017912639595642224,0.917290673927842
854,0.017912639595642224,0.9176310415248469
855,0.01792971551518049,0.9176310415248469
856,0.01792971551518049,0.9179714091218516
857,0.017980943273795295,0.9179714091218516
858,0.017980943273795295,0.9183117767188563
859,0.0181346265496397,0.9183117767188563
860,0.0181346265496397,0.9186521443158612
861,0.018288309825484104,0.9186521443158612
862,0.018288309825484104,0.9189925119128659
863,0.018424917181790238,0.9189925119128659
864,0.018424917181790238,0.9193328795098706
865,0.018920118848399985,0.9193328795098706
866,0.018920118848399985,0.9196732471068755
867,0.018937194767938252,0.9196732471068755
868,0.018937194767938252,0.9200136147038802
869,0.01895427068747652,0.9200136147038802
870,0.01895427068747652,0.9203539823008849
871,0.018988422526553056,0.9203539823008849
872,0.018988422526553056,0.9206943498978897
873,0.019005498446091323,0.9206943498978897
874,0.019005498446091323,0.9210347174948945
875,0.019039650285167856,0.9210347174948945
876,0.019039650285167856,0.9213750850918992
877,0.019090878043782657,0.9213750850918992
878,0.019090878043782657,0.921715452688904
879,0.01912502988285919,0.921715452688904
880,0.01912502988285919,0.9220558202859088
881,0.019227485400088794,0.9220558202859088
882,0.019227485400088794,0.9230769230769231
883,0.01924456131962706,0.9230769230769231
884,0.01924456131962706,0.9234172906739279
885,0.019432396434548,0.9234172906739279
886,0.019432396434548,0.9237576582709326
887,0.020149585055155222,0.9237576582709326
888,0.020149585055155222,0.9240980258679373
889,0.02021788873330829,0.9240980258679373
890,0.02021788873330829,0.9244383934649422
891,0.020405723848229227,0.9244383934649422
892,0.020405723848229227,0.9247787610619469
893,0.02043987568730576,0.9247787610619469
894,0.02043987568730576,0.9251191286589516
895,0.02050817936545883,0.9251191286589516
896,0.02050817936545883,0.9254594962559565
897,0.020542331204535365,0.9254594962559565
898,0.020542331204535365,0.9261402314499659
899,0.020730166319456303,0.9261402314499659
900,0.020730166319456303,0.9268209666439755
901,0.020935077353915508,0.9268209666439755
902,0.020935077353915508,0.9271613342409802
903,0.02096922919299204,0.9271613342409802
904,0.02096922919299204,0.927501701837985
905,0.02115706430791298,0.927501701837985
906,0.02115706430791298,0.9281824370319945
907,0.021293671664219117,0.9281824370319945
908,0.021293671664219117,0.9285228046289993
909,0.02139612718144872,0.9285228046289993
910,0.02139612718144872,0.9288631722260041
911,0.021447354940063522,0.9288631722260041
912,0.021447354940063522,0.9292035398230089
913,0.02146443085960179,0.9292035398230089
914,0.02146443085960179,0.9295439074200136
915,0.021515658618216593,0.9295439074200136
916,0.021515658618216593,0.9298842750170184
917,0.02153273453775486,0.9298842750170184
918,0.02153273453775486,0.9302246426140232
919,0.021549810457293126,0.9302246426140232
920,0.021549810457293126,0.9305650102110279
921,0.021618114135446193,0.9305650102110279
922,0.021618114135446193,0.9312457454050375
923,0.021771797411290598,0.9312457454050375
924,0.021771797411290598,0.9315861130020422
925,0.022318226836515145,0.9315861130020422
926,0.022318226836515145,0.9322668481960518
927,0.02254021379051262,0.9322668481960518
928,0.02254021379051262,0.9326072157930565
929,0.022932959939892764,0.9326072157930565
930,0.022932959939892764,0.9329475833900612
931,0.023052491376660635,0.9329475833900612
932,0.023052491376660635,0.9332879509870661
933,0.02318909873296677,0.9332879509870661
934,0.02318909873296677,0.9336283185840708
935,0.02335985792834944,0.9336283185840708
936,0.02335985792834944,0.9343090537780804
937,0.024350261261568935,0.9343090537780804
938,0.024350261261568935,0.9346494213750851
939,0.024708855571872544,0.9346494213750851
940,0.024708855571872544,0.9349897889720898
941,0.02474300741094908,0.9349897889720898
942,0.02474300741094908,0.9353301565690946
943,0.025050373962637887,0.9353301565690946
944,0.025050373962637887,0.9356705241660994
945,0.025084525801714424,0.9356705241660994
946,0.025084525801714424,0.9360108917631041
947,0.0255114237901711,0.9360108917631041
948,0.0255114237901711,0.9363512593601089
949,0.0255626515487859,0.9363512593601089
950,0.0255626515487859,0.9366916269571137
951,0.025852942180936443,0.9366916269571137
952,0.025852942180936443,0.9370319945541185
953,0.026143232813086986,0.9370319945541185
954,0.026143232813086986,0.9373723621511232
955,0.026279840169393123,0.9373723621511232
956,0.026279840169393123,0.9380530973451328
957,0.026979952870462075,0.9380530973451328
958,0.026979952870462075,0.9383934649421375
959,0.02701410470953861,0.9383934649421375
960,0.02701410470953861,0.9387338325391422
961,0.02713363614630648,0.9387338325391422
962,0.02713363614630648,0.9390742001361471
963,0.02723609166353608,0.9390742001361471
964,0.02723609166353608,0.9394145677331518
965,0.027287319422150885,0.9394145677331518
966,0.027287319422150885,0.9397549353301565
967,0.027611761893377957,0.9397549353301565
968,0.027611761893377957,0.9400953029271614
969,0.027680065571531028,0.9400953029271614
970,0.027680065571531028,0.9404356705241661
971,0.027816672927837165,0.9404356705241661
972,0.027816672927837165,0.9407760381211708
973,0.02820941907721731,0.9407760381211708
974,0.02820941907721731,0.9411164057181757
975,0.028294798674908642,0.9411164057181757
976,0.028294798674908642,0.9414567733151804
977,0.02832895051398518,0.9414567733151804
978,0.02832895051398518,0.9417971409121851
979,0.028346026433523446,0.9417971409121851
980,0.028346026433523446,0.9428182437031994
981,0.028755848502441856,0.9428182437031994
982,0.028755848502441856,0.9431586113002042
983,0.028772924421980123,0.9431586113002042
984,0.028772924421980123,0.9438393464942137
985,0.029011987295515865,0.9438393464942137
986,0.029011987295515865,0.9441797140912185
987,0.02916567057136027,0.9441797140912185
988,0.02916567057136027,0.9445200816882233
989,0.029660872237970013,0.9445200816882233
990,0.029660872237970013,0.944860449285228
991,0.029677948157508283,0.944860449285228
992,0.029677948157508283,0.9452008168822328
993,0.029831631433352684,0.9452008168822328
994,0.029831631433352684,0.9455411844792376
995,0.02986578327242922,0.9455411844792376
996,0.02986578327242922,0.9458815520762424
997,0.029899935111505755,0.9458815520762424
998,0.029899935111505755,0.9462219196732471
999,0.030002390628735356,0.9462219196732471
1000,0.030002390628735356,0.9465622872702518
1001,0.030070694306888426,0.9465622872702518
1002,0.030070694306888426,0.9469026548672567
1003,0.030292681260885898,0.9469026548672567
1004,0.030292681260885898,0.9472430224642614
1005,0.030787882927495645,0.9472430224642614
1006,0.030787882927495645,0.9475833900612661
1007,0.031129401318260988,0.9475833900612661
1008,0.031129401318260988,0.947923757658271
1009,0.03136846419179673,0.947923757658271
1010,0.03136846419179673,0.9482641252552757
1011,0.03200027321471261,0.9482641252552757
1012,0.03200027321471261,0.9486044928522804
1013,0.03206857689286568,0.9486044928522804
1014,0.03206857689286568,0.9489448604492853
1015,0.0328369932720877,0.9489448604492853
1016,0.0328369932720877,0.94928522804629
1017,0.032990676547932106,0.94928522804629
1018,0.032990676547932106,0.9496255956432947
1019,0.03311020798469998,0.9496255956432947
1020,0.03311020798469998,0.9499659632402995
1021,0.03350295413408012,0.9499659632402995
1022,0.03350295413408012,0.9503063308373043
1023,0.034015231720228134,0.9503063308373043
1024,0.034015231720228134,0.950646698434309
1025,0.034134763156996005,0.950646698434309
1026,0.034134763156996005,0.9509870660313138
1027,0.03427137051330214,0.9509870660313138
1028,0.03427137051330214,0.9513274336283186
1029,0.034339674191455206,0.9513274336283186
1030,0.034339674191455206,0.9516678012253234
1031,0.034869027697141494,0.9516678012253234
1032,0.034869027697141494,0.9520081688223281
1033,0.03492025545575629,0.9520081688223281
1034,0.03492025545575629,0.9523485364193329
1035,0.035500836720057376,0.9523485364193329
1036,0.035500836720057376,0.9526889040163377
1037,0.036115569823434994,0.9526889040163377
1038,0.036115569823434994,0.9530292716133424
1039,0.03614972166251153,0.9530292716133424
1040,0.03614972166251153,0.9533696392103471
1041,0.03618387350158806,0.9533696392103471
1042,0.03618387350158806,0.953710006807352
1043,0.03659369557050647,0.953710006807352
1044,0.03659369557050647,0.9540503744043567
1045,0.036627847409583005,0.9540503744043567
1046,0.036627847409583005,0.9543907420013614
1047,0.03678153068542741,0.9543907420013614
1048,0.03678153068542741,0.9547311095983663
1049,0.03700351763942488,0.9547311095983663
1050,0.03700351763942488,0.9554118447923757
1051,0.037054745398039685,0.9554118447923757
1052,0.037054745398039685,0.9557522123893806
1053,0.037157200915269285,0.9557522123893806
1054,0.037157200915269285,0.95643294758339
1055,0.03722550459342235,0.95643294758339
1056,0.03722550459342235,0.9567733151803949
1057,0.03729380827157543,0.9567733151803949
1058,0.03729380827157543,0.9571136827773996
1059,0.0375157952255729,0.9571136827773996
1060,0.0375157952255729,0.9574540503744043
1061,0.037789009938185174,0.9574540503744043
1062,0.037789009938185174,0.9577944179714091
1063,0.037874389535876504,0.9577944179714091
1064,0.037874389535876504,0.9584751531654186
1065,0.038540350397868926,0.9584751531654186
1066,0.038540350397868926,0.9588155207624234
1067,0.039769816604624156,0.9588155207624234
1068,0.039769816604624156,0.9591558883594282
1069,0.04036747378846351,0.9591558883594282
1070,0.04036747378846351,0.959496255956433
1071,0.04077729585738192,0.959496255956433
1072,0.04077729585738192,0.9598366235534377
1073,0.04132372528260647,0.9598366235534377
1074,0.04132372528260647,0.9601769911504425
1075,0.041357877121683005,0.9601769911504425
1076,0.041357877121683005,0.9605173587474473
1077,0.041631091834295274,0.9605173587474473
1078,0.041631091834295274,0.960857726344452
1079,0.04185307878829275,0.960857726344452
1080,0.04185307878829275,0.9611980939414567
1081,0.042297052696287696,0.9611980939414567
1082,0.042297052696287696,0.9618788291354663
1083,0.04279225436289744,0.9618788291354663
1084,0.04279225436289744,0.962219196732471
1085,0.042809330282435706,0.962219196732471
1086,0.042809330282435706,0.9625595643294759
1087,0.043321607868583724,0.9625595643294759
1088,0.043321607868583724,0.9628999319264806
1089,0.043594822581196,0.9628999319264806
1090,0.043594822581196,0.9635806671204902
1091,0.044158327925958814,0.9635806671204902
1092,0.044158327925958814,0.9639210347174949
1093,0.04419247976503535,0.9639210347174949
1094,0.04419247976503535,0.9642614023144996
1095,0.04429493528226495,0.9642614023144996
1096,0.04429493528226495,0.9646017699115044
1097,0.04487551654656603,0.9646017699115044
1098,0.04487551654656603,0.9649421375085092
1099,0.046036679075168195,0.9649421375085092
1100,0.046036679075168195,0.9652825051055139
1101,0.046344045626857004,0.9652825051055139
1102,0.046344045626857004,0.9656228727025187
1103,0.046873399132543285,0.9656228727025187
1104,0.046873399132543285,0.9659632402995235
1105,0.04704415832792596,0.9659632402995235
1106,0.04704415832792596,0.9663036078965282
1107,0.04765889143130358,0.9663036078965282
1108,0.04765889143130358,0.966643975493533
1109,0.048461459649602134,0.966643975493533
1110,0.048461459649602134,0.9669843430905378
1111,0.048854205798982274,0.9669843430905378
1112,0.048854205798982274,0.9673247106875426
1113,0.04974215361497217,0.9673247106875426
1114,0.04974215361497217,0.9676650782845473
1115,0.05008367200573751,0.9676650782845473
1116,0.05008367200573751,0.9680054458815521
1117,0.05028858304019671,0.9680054458815521
1118,0.05028858304019671,0.9683458134785569
1119,0.050322734879273245,0.9683458134785569
1120,0.050322734879273245,0.9686861810755616
1121,0.05100577166080394,0.9686861810755616
1122,0.05100577166080394,0.9690265486725663
1123,0.05175711212048769,0.9690265486725663
1124,0.05175711212048769,0.9693669162695712
1125,0.05218401010894436,0.9693669162695712
1126,0.05218401010894436,0.9697072838665759
1127,0.052440148902018376,0.9697072838665759
1128,0.052440148902018376,0.9700476514635806
1129,0.054096513097230285,0.9700476514635806
1130,0.054096513097230285,0.9707283866575902
1131,0.0547112462006079,0.9707283866575902
1132,0.0547112462006079,0.9710687542545949
1133,0.05667497694750862,0.9710687542545949
1134,0.05667497694750862,0.9714091218515998
1135,0.05752877292442198,0.9714091218515998
1136,0.05752877292442198,0.9717494894486045
1137,0.05764830436118985,0.9717494894486045
1138,0.05764830436118985,0.9720898570456092
1139,0.058297189303644,0.9720898570456092
1140,0.058297189303644,0.972430224642614
1141,0.05920221303917216,0.972430224642614
1142,0.05920221303917216,0.9727705922396188
1143,0.06000478125747071,0.9727705922396188
1144,0.06000478125747071,0.9731109598366235
1145,0.06009016085516205,0.9731109598366235
1146,0.06009016085516205,0.9734513274336283
1147,0.060346299648236054,0.9734513274336283
1148,0.060346299648236054,0.9737916950306331
1149,0.06080734947576927,0.9737916950306331
1150,0.06080734947576927,0.9741320626276379
1151,0.06137085482053208,0.9741320626276379
1152,0.06137085482053208,0.9744724302246426
1153,0.06212219528021584,0.9744724302246426
1154,0.06212219528021584,0.9748127978216474
1155,0.0643762166592671,0.9748127978216474
1156,0.0643762166592671,0.9751531654186522
1157,0.06476896280864725,0.9751531654186522
1158,0.06476896280864725,0.9754935330156569
1159,0.06555445510740754,0.9754935330156569
1160,0.06555445510740754,0.9758339006126616
1161,0.06628871964755302,0.9758339006126616
1162,0.06628871964755302,0.9761742682096665
1163,0.06663023803831836,0.9761742682096665
1164,0.06663023803831836,0.9765146358066712
1165,0.06669854171647144,0.9765146358066712
1166,0.06669854171647144,0.9768550034036759
1167,0.06688637683139237,0.9768550034036759
1168,0.06688637683139237,0.9771953710006808
1169,0.06715959154400465,0.9771953710006808
1170,0.06715959154400465,0.9775357385976855
1171,0.0678084764864588,0.9775357385976855
1172,0.0678084764864588,0.9778761061946902
1173,0.06818414671630067,0.9778761061946902
1174,0.06818414671630067,0.9782164737916951
1175,0.06842320958983641,0.9782164737916951
1176,0.06842320958983641,0.9788972089857045
1177,0.06855981694614255,0.9788972089857045
1178,0.06855981694614255,0.9792375765827094
1179,0.06886718349783136,0.9792375765827094
1180,0.06886718349783136,0.9795779441797141
1181,0.0693623851644411,0.9795779441797141
1182,0.0693623851644411,0.9799183117767188
1183,0.07021618114135446,0.9799183117767188
1184,0.07021618114135446,0.9802586793737236
1185,0.07031863665858407,0.9802586793737236
1186,0.07031863665858407,0.9805990469707284
1187,0.07134319183088009,0.9805990469707284
1188,0.07134319183088009,0.9809394145677331
1189,0.07317031522147467,0.9809394145677331
1190,0.07317031522147467,0.9812797821647379
1191,0.07325569481916601,0.9812797821647379
1192,0.07325569481916601,0.9816201497617427
1193,0.07395580752023496,0.9816201497617427
1194,0.07395580752023496,0.9819605173587475
1195,0.07438270550869164,0.9819605173587475
1196,0.07438270550869164,0.9823008849557522
1197,0.07469007206038045,0.9823008849557522
1198,0.07469007206038045,0.982641252552757
1199,0.07474129981899526,0.982641252552757
1200,0.07474129981899526,0.9829816201497618
1201,0.07509989412929886,0.9829816201497618
1202,0.07509989412929886,0.9833219877467665
1203,0.07689286568081691,0.9833219877467665
1204,0.07689286568081691,0.9836623553437712
1205,0.07948840545063351,0.9836623553437712
1206,0.07948840545063351,0.9840027229407761
1207,0.079966531197705,0.9840027229407761
1208,0.079966531197705,0.9843430905377808
1209,0.08271575424336601,0.9843430905377808
1210,0.08274990608244254,0.9843430905377808
1211,0.08425258700181004,0.9843430905377808
1212,0.08425258700181004,0.9846834581347855
1213,0.08541374953041221,0.9846834581347855
1214,0.08541374953041221,0.9850238257317904
1215,0.0863016973464021,0.9850238257317904
1216,0.0863016973464021,0.9853641933287951
1217,0.08667736757624397,0.9853641933287951
1218,0.08667736757624397,0.9860449285228047
1219,0.08689935453024146,0.9860449285228047
1220,0.08689935453024146,0.9863852961198094
1221,0.09026331067928008,0.9863852961198094
1222,0.09026331067928008,0.9867256637168141
1223,0.09111710665619344,0.9867256637168141
1224,0.09111710665619344,0.9870660313138189
1225,0.09548854205798982,0.9870660313138189
1226,0.09548854205798982,0.9874063989108237
1227,0.09565930125337249,0.9874063989108237
1228,0.09565930125337249,0.9877467665078284
1229,0.09719613401181654,0.9877467665078284
1230,0.09719613401181654,0.9880871341048332
1231,0.09873296677026058,0.9880871341048332
1232,0.09873296677026058,0.988427501701838
1233,0.10247259314914108,0.988427501701838
1234,0.10247259314914108,0.9887678692988427
1235,0.10359960383866672,0.9887678692988427
1236,0.10359960383866672,0.9891082368958475
1237,0.10390697039035553,0.9891082368958475
1238,0.10390697039035553,0.9894486044928523
1239,0.10602438441310065,0.9894486044928523
1240,0.10602438441310065,0.989788972089857
1241,0.10756121717154468,0.989788972089857
1242,0.10756121717154468,0.9901293396868618
1243,0.1081759502749223,0.9901293396868618
1244,0.1081759502749223,0.9904697072838666
1245,0.10848331682661111,0.9904697072838666
1246,0.10848331682661111,0.9908100748808714
1247,0.10945664424029233,0.9908100748808714
1248,0.10945664424029233,0.9911504424778761
1249,0.11010552918274649,0.9911504424778761
1250,0.11010552918274649,0.9914908100748808
1251,0.11220586728595335,0.9914908100748808
1252,0.11220586728595335,0.9918311776718857
1253,0.11657730268774974,0.9918311776718857
1254,0.11657730268774974,0.9921715452688904
1255,0.11671391004405587,0.9921715452688904
1256,0.11671391004405587,0.9925119128658951
1257,0.11823366688296165,0.9925119128658951
1258,0.11823366688296165,0.9928522804629
1259,0.11835319831972951,0.9928522804629
1260,0.11835319831972951,0.9931926480599047
1261,0.12103411768723746,0.9931926480599047
1262,0.12103411768723746,0.9935330156569094
1263,0.12164885079061508,0.9935330156569094
1264,0.12164885079061508,0.9938733832539143
1265,0.12624227314640893,0.9938733832539143
1266,0.12624227314640893,0.994213750850919
1267,0.13356784262832552,0.994213750850919
1268,0.13356784262832552,0.9945541184479237
1269,0.13419965165124143,0.9945541184479237
1270,0.13419965165124143,0.9948944860449285
1271,0.13464362555923637,0.9948944860449285
1272,0.13464362555923637,0.9952348536419333
1273,0.1348314606741573,0.9952348536419333
1274,0.13486561251323384,0.9952348536419333
1275,0.13515590314538437,0.9952348536419333
1276,0.13515590314538437,0.995575221238938
1277,0.1405518937194768,0.995575221238938
1278,0.1405518937194768,0.9959155888359428
1279,0.14249854854683924,0.9959155888359428
1280,0.14249854854683924,0.9962559564329476
1281,0.14540145486834466,0.9962559564329476
1282,0.14540145486834466,0.9965963240299524
1283,0.14656261739694681,0.9965963240299524
1284,0.14659676923602336,0.9965963240299524
1285,0.15059253440797787,0.9965963240299524
1286,0.15062668624705441,0.9965963240299524
1287,0.15595437314299376,0.9965963240299524
1288,0.15595437314299376,0.9969366916269571
1289,0.15901096274034357,0.9969366916269571
1290,0.15901096274034357,0.9972770592239619
1291,0.1641337386018237,0.9972770592239619
1292,0.1641337386018237,0.9976174268209667
1293,0.16843687032546703,0.9976174268209667
1294,0.16847102216454357,0.9976174268209667
1295,0.18412964038113452,0.9976174268209667
1296,0.18416379222021106,0.9976174268209667
1297,0.1854444861855811,0.9976174268209667
1298,0.1854444861855811,0.9979577944179714
1299,0.18696424302448686,0.9979577944179714
1300,0.1869983948635634,0.9979577944179714
1301,0.1906355657252143,0.9979577944179714
1302,0.1906355657252143,0.9982981620149761
1303,0.2116730985963594,0.9982981620149761
1304,0.21170725043543595,0.9982981620149761
1305,0.2143369420443291,0.9982981620149761
1306,0.2143710938834056,0.9982981620149761
1307,0.21507120658447457,0.9982981620149761
1308,0.2151053584235511,0.9982981620149761
1309,0.23255694819166012,0.9982981620149761
1310,0.23259110003073666,0.9982981620149761
1311,0.23955807520234965,0.9982981620149761
1312,0.23955807520234965,0.998638529611981
1313,0.24966701956900378,0.998638529611981
1314,0.24966701956900378,0.9989788972089857
1315,0.268348075543868,0.9989788972089857
1316,0.2683822273829446,0.9989788972089857
1317,0.2773983128991496,0.9989788972089857
1318,0.27743246473822614,0.9989788972089857
1319,0.2793449677265121,0.9989788972089857
1320,0.2793449677265121,0.9993192648059904
1321,0.28684129640381134,0.9993192648059904
1322,0.28687544824288785,0.9993192648059904
1323,0.29589153375909294,0.9993192648059904
1324,0.29592568559816945,0.9993192648059904
1325,0.30419043065469076,0.9993192648059904
1326,0.30422458249376727,0.9993192648059904
1327,0.3074519312864998,0.9993192648059904
1328,0.3074860831255763,0.9993192648059904
1329,0.3106792800792323,0.9993192648059904
1330,0.3107134319183088,0.9993192648059904
1331,0.31226734059629113,0.9993192648059904
1332,0.31230149243536764,0.9993192648059904
1333,0.31455551381441893,0.9993192648059904
1334,0.31455551381441893,0.9996596324029953
1335,0.31537515795225574,0.9996596324029953
1336,0.31540930979133225,0.9996596324029953
1337,0.32273487927324884,0.9996596324029953
1338,0.3227690311123254,0.9996596324029953
1339,0.32478398961784094,0.9996596324029953
1340,0.32481814145691745,0.9996596324029953
1341,0.33349270858235713,0.9996596324029953
1342,0.3335268604214337,0.9996596324029953
1343,0.3555035688671835,0.9996596324029953
1344,0.35553772070626005,0.9996596324029953
1345,0.35898705645299,0.9996596324029953
1346,0.3590212082920665,0.9996596324029953
1347,0.38946757282879685,0.9996596324029953
1348,0.38950172466787336,0.9996596324029953
1349,0.39257539018476145,0.9996596324029953
1350,0.39257539018476145,1.0
1351,0.4068508589187528,1.0
1352,0.4068850107578293,1.0
1353,0.43133772753662786,1.0
1354,0.43137187937570437,1.0
1355,0.43729722345548305,1.0
1356,0.4373313752945596,1.0
1357,0.45211912161469897,1.0
1358,0.4521532734537755,1.0
1359,0.48350466172603396,1.0
1360,0.48353881356511047,1.0
1361,0.4861685051740036,1.0
1362,0.48620265701308013,1.0
1363,0.4973532324715686,1.0
1364,0.4973873843106451,1.0
1365,0.5027833748847376,1.0
1366,0.5028175267238141,1.0
1367,0.5189030429288617,1.0
1368,0.5189371947679382,1.0
1369,0.5224206823537447,1.0
1370,0.5224548341928212,1.0
1371,0.542314128615826,1.0
1372,0.5423482804549025,1.0
1373,0.5657935179809432,1.0
1374,0.5658276698200199,1.0
1375,0.5694306888425942,1.0
1376,0.5694648406816707,1.0
1377,0.5751340459683754,1.0
1378,0.575168197807452,1.0
1379,0.5775588265428093,1.0
1380,0.5775929783818858,1.0
1381,0.6264130323417916,1.0
1382,0.6264642601004065,1.0
1383,0.633277551996175,1.0
1384,0.6333117038352515,1.0
1385,0.6416106007308493,1.0
1386,0.6416447525699259,1.0
1387,0.6567227895222157,1.0
1388,0.6567569413612923,1.0
1389,0.6568764727980602,1.0
1390,0.6569106246371367,1.0
1391,0.6645094088316655,1.0
1392,0.6645435606707422,1.0
1393,0.66811242785424,1.0
1394,0.6681465796933165,1.0
1395,0.6800143437724121,1.0
1396,0.6800484956114887,1.0
1397,0.6807486083125577,1.0
1398,0.6807827601516342,1.0
1399,0.6862812062429562,1.0
1400,0.6863153580820327,1.0
1401,0.687869266760015,1.0
1402,0.6879034185990915,1.0
1403,0.7008128137700215,1.0
1404,0.7008469656090981,1.0
1405,0.7015641542297053,1.0
1406,0.7015983060687818,1.0
1407,0.7055428434821215,1.0
1408,0.705576995321198,1.0
1409,0.706789385608415,1.0
1410,0.7068235374474916,1.0
1411,0.7158737748027731,1.0
1412,0.7159079266418497,1.0
1413,0.7205696526757966,1.0
1414,0.7206038045148732,1.0
1415,0.7235579385949933,1.0
1416,0.7235920904340699,1.0
1417,0.7499743861206926,1.0
1418,0.7500085379597692,1.0
1419,0.7510501690516034,1.0
1420,0.75108432089068,1.0
1421,0.7533724941088078,1.0
1422,0.7534066459478843,1.0
1423,0.7717632594515215,1.0
1424,0.771797411290598,1.0
1425,0.7726512072675114,1.0
1426,0.7726853591065879,1.0
1427,0.7756907209453229,1.0
1428,0.7757248727843994,1.0
1429,0.7780130460025272,1.0
1430,0.7780471978416038,1.0
1431,0.7945425361155698,1.0
1432,0.7945766879546463,1.0
1433,0.8000239062873535,1.0
1434,0.8000580581264302,1.0
1435,0.8035244697926983,1.0
1436,0.8035586216317748,1.0
1437,0.8347904784672655,1.0
1438,0.834824630306342,1.0
1439,0.8387179399610669,1.0
1440,0.8387520918001434,1.0
1441,0.8488610361667975,1.0
1442,0.8488951880058742,1.0
1443,0.8520713090399918,1.0
1444,0.8521054608790684,1.0
1445,0.8629145179467914,1.0
1446,0.8629486697858679,1.0
1447,0.8696765820839453,1.0
1448,0.8697107339230218,1.0
1449,0.9002254021379051,1.0
1450,0.9002595539769817,1.0
1451,0.9050408114476964,1.0
1452,0.905074963286773,1.0
1453,0.905518937194768,1.0
1454,0.9055530890338445,1.0
1455,0.9230559065605682,1.0
1456,0.9230900583996449,1.0
1457,0.9348553669615108,1.0
1458,0.9348895188005875,1.0
1459,1.0,1.0
