,fpr,tpr
0,0.0,0.0
1,1.6518004625041296e-05,0.0
2,1.6518004625041296e-05,0.0006944444444444445
3,3.303600925008259e-05,0.0006944444444444445
4,3.303600925008259e-05,0.003472222222222222
5,4.955401387512388e-05,0.003472222222222222
6,4.955401387512388e-05,0.03125
7,6.607201850016519e-05,0.03125
8,6.607201850016519e-05,0.03819444444444445
9,8.259002312520647e-05,0.03819444444444445
10,8.259002312520647e-05,0.04027777777777778
11,9.910802775024777e-05,0.04027777777777778
12,9.910802775024777e-05,0.05763888888888889
13,0.00011562603237528906,0.05763888888888889
14,0.00011562603237528906,0.06805555555555555
15,0.00013214403700033037,0.06805555555555555
16,0.00013214403700033037,0.09375
17,0.00014866204162537167,0.09375
18,0.00014866204162537167,0.09861111111111111
19,0.00014866204162537167,0.1
20,0.00014866204162537167,0.10972222222222222
21,0.00016518004625041294,0.10972222222222222
22,0.00016518004625041294,0.11180555555555556
23,0.00016518004625041294,0.11319444444444444
24,0.00016518004625041294,0.11527777777777778
25,0.00018169805087545423,0.11527777777777778
26,0.00018169805087545423,0.13194444444444445
27,0.00021473406012553683,0.13194444444444445
28,0.00021473406012553683,0.1326388888888889
29,0.00021473406012553683,0.13402777777777777
30,0.00021473406012553683,0.13472222222222222
31,0.00023125206475057812,0.13472222222222222
32,0.00023125206475057812,0.14166666666666666
33,0.0002477700693756194,0.14166666666666666
34,0.0002477700693756194,0.15208333333333332
35,0.00026428807400066074,0.15208333333333332
36,0.00026428807400066074,0.15347222222222223
37,0.000280806078625702,0.15347222222222223
38,0.000280806078625702,0.15763888888888888
39,0.00029732408325074334,0.15763888888888888
40,0.00029732408325074334,0.16111111111111112
41,0.0003138420878757846,0.16111111111111112
42,0.0003138420878757846,0.1875
43,0.0003138420878757846,0.18888888888888888
44,0.0003138420878757846,0.1951388888888889
45,0.0003303600925008259,0.1951388888888889
46,0.0003303600925008259,0.2013888888888889
47,0.0003468780971258672,0.2013888888888889
48,0.0003468780971258672,0.2048611111111111
49,0.00036339610175090847,0.2048611111111111
50,0.00036339610175090847,0.20833333333333334
51,0.0003799141063759498,0.20833333333333334
52,0.0003799141063759498,0.21319444444444444
53,0.00039643211100099106,0.21319444444444444
54,0.00039643211100099106,0.21666666666666667
55,0.0004129501156260324,0.21666666666666667
56,0.0004129501156260324,0.21736111111111112
57,0.00042946812025107365,0.21736111111111112
58,0.00042946812025107365,0.2263888888888889
59,0.000445986124876115,0.2263888888888889
60,0.000445986124876115,0.23958333333333334
61,0.00046250412950115625,0.23958333333333334
62,0.00046250412950115625,0.2423611111111111
63,0.00047902213412619757,0.2423611111111111
64,0.00047902213412619757,0.24375
65,0.0004955401387512388,0.24375
66,0.0004955401387512388,0.24722222222222223
67,0.0005120581433762802,0.24722222222222223
68,0.0005120581433762802,0.25
69,0.0005285761480013215,0.25
70,0.0005285761480013215,0.25069444444444444
71,0.0005285761480013215,0.2520833333333333
72,0.0005285761480013215,0.2548611111111111
73,0.0005450941526263627,0.2548611111111111
74,0.0005450941526263627,0.26180555555555557
75,0.000561612157251404,0.26180555555555557
76,0.000561612157251404,0.26319444444444445
77,0.0005781301618764453,0.26319444444444445
78,0.0005781301618764453,0.2659722222222222
79,0.0005781301618764453,0.2673611111111111
80,0.0005781301618764453,0.28194444444444444
81,0.0005946481665014867,0.28194444444444444
82,0.0005946481665014867,0.2826388888888889
83,0.0006111661711265279,0.2826388888888889
84,0.0006111661711265279,0.2881944444444444
85,0.0006276841757515692,0.2881944444444444
86,0.0006276841757515692,0.29305555555555557
87,0.0006442021803766105,0.29305555555555557
88,0.0006442021803766105,0.29444444444444445
89,0.0006607201850016518,0.29444444444444445
90,0.0006607201850016518,0.2951388888888889
91,0.0006937561942517344,0.2951388888888889
92,0.0006937561942517344,0.30069444444444443
93,0.0007102741988767757,0.30069444444444443
94,0.0007102741988767757,0.31180555555555556
95,0.0007102741988767757,0.31319444444444444
96,0.0007102741988767757,0.31666666666666665
97,0.0007267922035018169,0.31666666666666665
98,0.0007267922035018169,0.3194444444444444
99,0.0007433102081268583,0.3194444444444444
100,0.0007433102081268583,0.3215277777777778
101,0.0007598282127518996,0.3215277777777778
102,0.0007598282127518996,0.32569444444444445
103,0.0007763462173769409,0.32569444444444445
104,0.0007763462173769409,0.3284722222222222
105,0.0007928642220019821,0.3284722222222222
106,0.0007928642220019821,0.32916666666666666
107,0.0008259002312520648,0.32916666666666666
108,0.0008259002312520648,0.33055555555555555
109,0.0008424182358771061,0.33055555555555555
110,0.0008424182358771061,0.3326388888888889
111,0.0008589362405021473,0.3326388888888889
112,0.0008589362405021473,0.33541666666666664
113,0.0008754542451271886,0.33541666666666664
114,0.0008754542451271886,0.3416666666666667
115,0.00089197224975223,0.3416666666666667
116,0.00089197224975223,0.34652777777777777
117,0.0009084902543772713,0.34652777777777777
118,0.0009084902543772713,0.3472222222222222
119,0.0009250082590023125,0.3472222222222222
120,0.0009250082590023125,0.3506944444444444
121,0.0009415262636273538,0.3506944444444444
122,0.0009415262636273538,0.35347222222222224
123,0.0009580442682523951,0.35347222222222224
124,0.0009745622728774364,0.3541666666666667
125,0.0009745622728774364,0.3625
126,0.0009910802775024777,0.3625
127,0.0009910802775024777,0.36319444444444443
128,0.001007598282127519,0.36319444444444443
129,0.001007598282127519,0.36527777777777776
130,0.0010241162867525603,0.36527777777777776
131,0.0010241162867525603,0.36666666666666664
132,0.0010241162867525603,0.3680555555555556
133,0.0010241162867525603,0.36944444444444446
134,0.0010406342913776017,0.36944444444444446
135,0.0010406342913776017,0.3715277777777778
136,0.001057152296002643,0.3715277777777778
137,0.001057152296002643,0.37222222222222223
138,0.001073670300627684,0.37222222222222223
139,0.0010901883052527254,0.3729166666666667
140,0.0010901883052527254,0.3784722222222222
141,0.0011067063098777667,0.3784722222222222
142,0.0011067063098777667,0.3861111111111111
143,0.001123224314502808,0.3861111111111111
144,0.001123224314502808,0.3909722222222222
145,0.001172778328377932,0.3909722222222222
146,0.001172778328377932,0.3923611111111111
147,0.0011892963330029733,0.3923611111111111
148,0.0011892963330029733,0.40208333333333335
149,0.0012058143376280145,0.40208333333333335
150,0.0012058143376280145,0.40347222222222223
151,0.001238850346878097,0.40347222222222223
152,0.001238850346878097,0.40555555555555556
153,0.0012553683515031384,0.40555555555555556
154,0.0012553683515031384,0.40694444444444444
155,0.0012718863561281797,0.40694444444444444
156,0.0012718863561281797,0.4083333333333333
157,0.001288404360753221,0.4083333333333333
158,0.001288404360753221,0.41388888888888886
159,0.0013214403700033035,0.41388888888888886
160,0.0013214403700033035,0.4152777777777778
161,0.0013379583746283448,0.4152777777777778
162,0.0013379583746283448,0.4236111111111111
163,0.0013544763792533861,0.4236111111111111
164,0.0013544763792533861,0.42777777777777776
165,0.0013709943838784275,0.42777777777777776
166,0.0013709943838784275,0.42916666666666664
167,0.0013875123885034688,0.42916666666666664
168,0.0013875123885034688,0.43472222222222223
169,0.0014040303931285101,0.43472222222222223
170,0.0014040303931285101,0.4375
171,0.0014205483977535514,0.4375
172,0.0014205483977535514,0.4395833333333333
173,0.0014370664023785928,0.4395833333333333
174,0.0014370664023785928,0.4409722222222222
175,0.0014535844070036339,0.4409722222222222
176,0.0014535844070036339,0.44166666666666665
177,0.0014866204162537165,0.44166666666666665
178,0.0014866204162537165,0.44583333333333336
179,0.0015196564255037992,0.44583333333333336
180,0.0015196564255037992,0.45
181,0.0015361744301288405,0.45
182,0.0015361744301288405,0.45694444444444443
183,0.001569210439378923,0.45694444444444443
184,0.001569210439378923,0.45902777777777776
185,0.0015857284440039642,0.45902777777777776
186,0.0015857284440039642,0.4625
187,0.0016022464486290056,0.4625
188,0.0016022464486290056,0.46597222222222223
189,0.001618764453254047,0.46597222222222223
190,0.001618764453254047,0.475
191,0.0016352824578790882,0.475
192,0.0016352824578790882,0.4756944444444444
193,0.0016518004625041295,0.4756944444444444
194,0.0016518004625041295,0.4798611111111111
195,0.0016848364717542122,0.4798611111111111
196,0.0016848364717542122,0.48194444444444445
197,0.0017509084902543773,0.48194444444444445
198,0.0017509084902543773,0.4826388888888889
199,0.0017674264948794186,0.4826388888888889
200,0.0017674264948794186,0.48541666666666666
201,0.00178394449950446,0.48541666666666666
202,0.00178394449950446,0.48819444444444443
203,0.001850016518004625,0.48819444444444443
204,0.001850016518004625,0.4888888888888889
205,0.0018665345226296663,0.4888888888888889
206,0.0018665345226296663,0.4895833333333333
207,0.0018830525272547076,0.4895833333333333
208,0.0018830525272547076,0.49027777777777776
209,0.001899570531879749,0.49027777777777776
210,0.001899570531879749,0.4909722222222222
211,0.0019160885365047903,0.4909722222222222
212,0.0019160885365047903,0.49236111111111114
213,0.0019326065411298316,0.49236111111111114
214,0.0019326065411298316,0.4930555555555556
215,0.0019491245457548727,0.4930555555555556
216,0.0019491245457548727,0.4951388888888889
217,0.001965642550379914,0.4951388888888889
218,0.001965642550379914,0.49722222222222223
219,0.0019986785596299967,0.49722222222222223
220,0.0019986785596299967,0.5006944444444444
221,0.0020317145688800793,0.5006944444444444
222,0.0020317145688800793,0.5020833333333333
223,0.0020482325735051207,0.5020833333333333
224,0.0020482325735051207,0.5041666666666667
225,0.002064750578130162,0.5041666666666667
226,0.002064750578130162,0.5055555555555555
227,0.0020812685827552033,0.5055555555555555
228,0.0020812685827552033,0.50625
229,0.0020977865873802446,0.50625
230,0.0020977865873802446,0.5083333333333333
231,0.0021308225966303273,0.5083333333333333
232,0.0021308225966303273,0.5090277777777777
233,0.002147340601255368,0.5090277777777777
234,0.002147340601255368,0.5138888888888888
235,0.0021638586058804095,0.5138888888888888
236,0.0021638586058804095,0.5159722222222223
237,0.002180376610505451,0.5159722222222223
238,0.002180376610505451,0.5180555555555556
239,0.002196894615130492,0.5180555555555556
240,0.002196894615130492,0.5215277777777778
241,0.0022134126197555335,0.5215277777777778
242,0.0022134126197555335,0.5236111111111111
243,0.0022299306243805748,0.5236111111111111
244,0.0022299306243805748,0.5243055555555556
245,0.002246448629005616,0.5243055555555556
246,0.002246448629005616,0.5270833333333333
247,0.0022629666336306574,0.5270833333333333
248,0.0022629666336306574,0.5277777777777778
249,0.0023290386521308227,0.5277777777777778
250,0.0023290386521308227,0.5305555555555556
251,0.0023620746613809054,0.5305555555555556
252,0.0023620746613809054,0.53125
253,0.0023785926660059467,0.53125
254,0.0023785926660059467,0.5333333333333333
255,0.0023951106706309876,0.5333333333333333
256,0.0023951106706309876,0.5340277777777778
257,0.002411628675256029,0.5340277777777778
258,0.002411628675256029,0.5361111111111111
259,0.0024281466798810702,0.5361111111111111
260,0.0024281466798810702,0.5381944444444444
261,0.0024446646845061116,0.5381944444444444
262,0.0024446646845061116,0.5395833333333333
263,0.002461182689131153,0.5395833333333333
264,0.002461182689131153,0.5409722222222222
265,0.002477700693756194,0.5409722222222222
266,0.002477700693756194,0.5423611111111111
267,0.0024942186983812355,0.5423611111111111
268,0.0024942186983812355,0.5444444444444444
269,0.002510736703006277,0.5444444444444444
270,0.002510736703006277,0.5465277777777777
271,0.002527254707631318,0.5465277777777777
272,0.002527254707631318,0.5486111111111112
273,0.0025437727122563595,0.5486111111111112
274,0.0025437727122563595,0.5506944444444445
275,0.002560290716881401,0.5506944444444445
276,0.002560290716881401,0.5548611111111111
277,0.002576808721506442,0.5548611111111111
278,0.002576808721506442,0.5555555555555556
279,0.0025933267261314835,0.5555555555555556
280,0.0025933267261314835,0.55625
281,0.002626362735381566,0.55625
282,0.002626362735381566,0.5576388888888889
283,0.002642880740006607,0.5576388888888889
284,0.002642880740006607,0.5597222222222222
285,0.0026593987446316483,0.5597222222222222
286,0.0026593987446316483,0.5618055555555556
287,0.002692434753881731,0.5618055555555556
288,0.002692434753881731,0.5625
289,0.0027089527585067723,0.5625
290,0.0027089527585067723,0.5645833333333333
291,0.0027254707631318136,0.5645833333333333
292,0.0027254707631318136,0.5659722222222222
293,0.002741988767756855,0.5659722222222222
294,0.002741988767756855,0.5673611111111111
295,0.002791542781631979,0.5673611111111111
296,0.002791542781631979,0.5694444444444444
297,0.0028080607862570202,0.5694444444444444
298,0.0028080607862570202,0.5701388888888889
299,0.002857614800132144,0.5701388888888889
300,0.002857614800132144,0.5708333333333333
301,0.0028741328047571855,0.5708333333333333
302,0.0028741328047571855,0.5729166666666666
303,0.0028906508093822264,0.5729166666666666
304,0.0028906508093822264,0.575
305,0.0029071688140072677,0.575
306,0.0029071688140072677,0.5763888888888888
307,0.002923686818632309,0.5763888888888888
308,0.002923686818632309,0.5784722222222223
309,0.0029402048232573504,0.5784722222222223
310,0.0029402048232573504,0.5840277777777778
311,0.0030062768417575157,0.5840277777777778
312,0.0030062768417575157,0.5854166666666667
313,0.0030393128510075983,0.5854166666666667
314,0.0030393128510075983,0.5861111111111111
315,0.0030558308556326397,0.5861111111111111
316,0.0030558308556326397,0.5868055555555556
317,0.003072348860257681,0.5868055555555556
318,0.003072348860257681,0.5875
319,0.003138420878757846,0.5875
320,0.003138420878757846,0.5902777777777778
321,0.003154938883382887,0.5902777777777778
322,0.003154938883382887,0.5916666666666667
323,0.0031714568880079285,0.5916666666666667
324,0.0031714568880079285,0.5930555555555556
325,0.0031714568880079285,0.5944444444444444
326,0.0031714568880079285,0.5958333333333333
327,0.00318797489263297,0.5958333333333333
328,0.00318797489263297,0.5965277777777778
329,0.003204492897258011,0.5965277777777778
330,0.003204492897258011,0.5972222222222222
331,0.003254046911133135,0.5972222222222222
332,0.003254046911133135,0.5986111111111111
333,0.0032705649157581764,0.5986111111111111
334,0.0032705649157581764,0.5993055555555555
335,0.003303600925008259,0.5993055555555555
336,0.003353154938883383,0.5993055555555555
337,0.003353154938883383,0.6034722222222222
338,0.0033861909481334653,0.6034722222222222
339,0.0033861909481334653,0.6055555555555555
340,0.003419226957383548,0.6055555555555555
341,0.003419226957383548,0.60625
342,0.0034522629666336306,0.60625
343,0.0034522629666336306,0.6076388888888888
344,0.003468780971258672,0.6076388888888888
345,0.003468780971258672,0.6083333333333333
346,0.0035018169805087545,0.6083333333333333
347,0.0035018169805087545,0.6090277777777777
348,0.003518334985133796,0.6090277777777777
349,0.003518334985133796,0.6104166666666667
350,0.003534852989758837,0.6104166666666667
351,0.003534852989758837,0.6125
352,0.0035513709943838785,0.6125
353,0.0035513709943838785,0.6138888888888889
354,0.0035513709943838785,0.6152777777777778
355,0.00356788899900892,0.6152777777777778
356,0.00356788899900892,0.6173611111111111
357,0.003584407003633961,0.6173611111111111
358,0.003584407003633961,0.61875
359,0.003650479022134126,0.61875
360,0.003650479022134126,0.6194444444444445
361,0.0036669970267591673,0.6194444444444445
362,0.0036669970267591673,0.6201388888888889
363,0.0036835150313842087,0.6201388888888889
364,0.0036835150313842087,0.6215277777777778
365,0.0037165510406342913,0.6215277777777778
366,0.0037165510406342913,0.6229166666666667
367,0.0037330690452593326,0.6229166666666667
368,0.0037330690452593326,0.6243055555555556
369,0.003749587049884374,0.6243055555555556
370,0.003749587049884374,0.625
371,0.0037661050545094153,0.625
372,0.0037661050545094153,0.6256944444444444
373,0.0038321770730095806,0.6256944444444444
374,0.0038321770730095806,0.6263888888888889
375,0.003848695077634622,0.6263888888888889
376,0.003848695077634622,0.6270833333333333
377,0.003865213082259663,0.6270833333333333
378,0.003865213082259663,0.6277777777777778
379,0.0038982490915097454,0.6277777777777778
380,0.0038982490915097454,0.6284722222222222
381,0.003914767096134787,0.6284722222222222
382,0.003914767096134787,0.6291666666666667
383,0.003931285100759828,0.6291666666666667
384,0.003931285100759828,0.6319444444444444
385,0.0039808391146349525,0.6319444444444444
386,0.0039808391146349525,0.6326388888888889
387,0.003997357119259993,0.6326388888888889
388,0.003997357119259993,0.6333333333333333
389,0.004013875123885034,0.6333333333333333
390,0.004013875123885034,0.6347222222222222
391,0.004096465147010241,0.6347222222222222
392,0.004096465147010241,0.6354166666666666
393,0.004162537165510407,0.6354166666666666
394,0.004162537165510407,0.6361111111111111
395,0.0041790551701354475,0.6361111111111111
396,0.0041790551701354475,0.6381944444444444
397,0.00421209117938553,0.6381944444444444
398,0.004245127188635613,0.6381944444444444
399,0.004245127188635613,0.6388888888888888
400,0.0042616451932606545,0.6388888888888888
401,0.0042616451932606545,0.6395833333333333
402,0.004294681202510736,0.6395833333333333
403,0.004294681202510736,0.6416666666666667
404,0.004327717211760819,0.6416666666666667
405,0.004327717211760819,0.6423611111111112
406,0.004344235216385861,0.6423611111111112
407,0.004344235216385861,0.64375
408,0.004360753221010902,0.64375
409,0.004360753221010902,0.6465277777777778
410,0.004443343244136109,0.6465277777777778
411,0.004443343244136109,0.6472222222222223
412,0.0044598612487611496,0.6472222222222223
413,0.0044598612487611496,0.6486111111111111
414,0.004476379253386191,0.6486111111111111
415,0.004476379253386191,0.65
416,0.004525933267261315,0.65
417,0.004525933267261315,0.6520833333333333
418,0.004542451271886356,0.6520833333333333
419,0.004542451271886356,0.6527777777777778
420,0.004641559299636604,0.6527777777777778
421,0.004641559299636604,0.6548611111111111
422,0.004674595308886686,0.6548611111111111
423,0.004674595308886686,0.6555555555555556
424,0.004707631318136769,0.6555555555555556
425,0.004707631318136769,0.65625
426,0.004740667327386852,0.65625
427,0.004740667327386852,0.6569444444444444
428,0.004757185332011893,0.6569444444444444
429,0.004757185332011893,0.6576388888888889
430,0.0048562933597621405,0.6576388888888889
431,0.0048562933597621405,0.6590277777777778
432,0.004872811364387182,0.6590277777777778
433,0.004872811364387182,0.6597222222222222
434,0.004889329369012223,0.6597222222222222
435,0.004889329369012223,0.6604166666666667
436,0.00497191939213743,0.6604166666666667
437,0.00497191939213743,0.6631944444444444
438,0.005004955401387513,0.6631944444444444
439,0.005004955401387513,0.6638888888888889
440,0.005021473406012554,0.6638888888888889
441,0.005021473406012554,0.6652777777777777
442,0.005071027419887677,0.6652777777777777
443,0.005071027419887677,0.6659722222222222
444,0.005087545424512719,0.6659722222222222
445,0.005087545424512719,0.6666666666666666
446,0.00510406342913776,0.6666666666666666
447,0.00510406342913776,0.6680555555555555
448,0.005120581433762802,0.6680555555555555
449,0.005120581433762802,0.66875
450,0.005153617443012884,0.66875
451,0.005153617443012884,0.6694444444444444
452,0.005203171456888008,0.6694444444444444
453,0.005203171456888008,0.6708333333333333
454,0.0052362074661380905,0.6708333333333333
455,0.0052362074661380905,0.6715277777777777
456,0.005318797489263297,0.6715277777777777
457,0.005318797489263297,0.6736111111111112
458,0.005318797489263297,0.675
459,0.005417905517013545,0.675
460,0.005417905517013545,0.6763888888888889
461,0.005434423521638586,0.6763888888888889
462,0.005434423521638586,0.6784722222222223
463,0.00548397753551371,0.6784722222222223
464,0.00548397753551371,0.6791666666666667
465,0.0055170135447637925,0.6791666666666667
466,0.0055170135447637925,0.6805555555555556
467,0.005632639577139081,0.6805555555555556
468,0.005632639577139081,0.6819444444444445
469,0.005665675586389164,0.6819444444444445
470,0.005665675586389164,0.6826388888888889
471,0.005748265609514371,0.6826388888888889
472,0.005748265609514371,0.6833333333333333
473,0.005764783614139412,0.6833333333333333
474,0.005764783614139412,0.6840277777777778
475,0.005781301618764453,0.6840277777777778
476,0.005781301618764453,0.6847222222222222
477,0.005847373637264618,0.6847222222222222
478,0.005847373637264618,0.6861111111111111
479,0.0058969276511397425,0.6861111111111111
480,0.0058969276511397425,0.6868055555555556
481,0.005946481665014866,0.6868055555555556
482,0.005946481665014866,0.6881944444444444
483,0.005962999669639908,0.6881944444444444
484,0.005962999669639908,0.6902777777777778
485,0.006012553683515031,0.6902777777777778
486,0.006012553683515031,0.6909722222222222
487,0.006029071688140072,0.6909722222222222
488,0.006029071688140072,0.6916666666666667
489,0.006078625702015197,0.6916666666666667
490,0.006078625702015197,0.6923611111111111
491,0.00612817971589032,0.6923611111111111
492,0.00612817971589032,0.6930555555555555
493,0.006177733729765445,0.6930555555555555
494,0.006177733729765445,0.6944444444444444
495,0.0061942517343904855,0.6944444444444444
496,0.0061942517343904855,0.6951388888888889
497,0.006210769739015527,0.6951388888888889
498,0.006210769739015527,0.6958333333333333
499,0.006359431780640899,0.6958333333333333
500,0.006359431780640899,0.6979166666666666
501,0.006442021803766105,0.6979166666666666
502,0.006442021803766105,0.6993055555555555
503,0.006458539808391147,0.6993055555555555
504,0.006458539808391147,0.7
505,0.006491575817641229,0.7
506,0.006491575817641229,0.7006944444444444
507,0.006524611826891311,0.7006944444444444
508,0.006524611826891311,0.7013888888888888
509,0.006541129831516353,0.7013888888888888
510,0.006541129831516353,0.7027777777777777
511,0.0065741658407664355,0.7027777777777777
512,0.0065741658407664355,0.7034722222222223
513,0.006656755863891642,0.7034722222222223
514,0.006656755863891642,0.7041666666666667
515,0.0066732738685166835,0.7041666666666667
516,0.0066732738685166835,0.7055555555555556
517,0.006722827882391807,0.7055555555555556
518,0.006722827882391807,0.70625
519,0.00675586389164189,0.70625
520,0.00675586389164189,0.7076388888888889
521,0.00675586389164189,0.7090277777777778
522,0.006854971919392138,0.7090277777777778
523,0.006854971919392138,0.7097222222222223
524,0.006904525933267261,0.7097222222222223
525,0.006904525933267261,0.7111111111111111
526,0.006921043937892303,0.7111111111111111
527,0.006921043937892303,0.7118055555555556
528,0.0069540799471423855,0.7118055555555556
529,0.0069540799471423855,0.7125
530,0.007003633961017509,0.7125
531,0.007003633961017509,0.7131944444444445
532,0.007020151965642551,0.7131944444444445
533,0.007020151965642551,0.7138888888888889
534,0.007086223984142715,0.7138888888888889
535,0.007086223984142715,0.7145833333333333
536,0.007102741988767757,0.7145833333333333
537,0.007102741988767757,0.7152777777777778
538,0.00726792203501817,0.7152777777777778
539,0.00726792203501817,0.7159722222222222
540,0.0075322101090188305,0.7159722222222222
541,0.007565246118268913,0.7159722222222222
542,0.007581764122893954,0.7159722222222222
543,0.007581764122893954,0.7166666666666667
544,0.007614800132144037,0.7166666666666667
545,0.007614800132144037,0.7173611111111111
546,0.007664354146019161,0.7173611111111111
547,0.007664354146019161,0.7180555555555556
548,0.007713908159894285,0.7180555555555556
549,0.007713908159894285,0.71875
550,0.00777998017839445,0.71875
551,0.00777998017839445,0.7201388888888889
552,0.007796498183019491,0.7201388888888889
553,0.007796498183019491,0.7208333333333333
554,0.007879088206144698,0.7208333333333333
555,0.007879088206144698,0.7215277777777778
556,0.007928642220019821,0.7215277777777778
557,0.007928642220019821,0.7229166666666667
558,0.00804426825239511,0.7229166666666667
559,0.00804426825239511,0.7236111111111111
560,0.008077304261645194,0.7236111111111111
561,0.008077304261645194,0.725
562,0.008192930294020483,0.725
563,0.008192930294020483,0.7256944444444444
564,0.008209448298645524,0.7256944444444444
565,0.008209448298645524,0.7263888888888889
566,0.008242484307895606,0.7263888888888889
567,0.008242484307895606,0.7277777777777777
568,0.00829203832177073,0.7277777777777777
569,0.00829203832177073,0.7284722222222222
570,0.008308556326395771,0.7284722222222222
571,0.008308556326395771,0.7340277777777777
572,0.008391146349520979,0.7340277777777777
573,0.00842418235877106,0.7340277777777777
574,0.008523290386521309,0.7340277777777777
575,0.008523290386521309,0.7347222222222223
576,0.008572844400396433,0.7347222222222223
577,0.008572844400396433,0.7361111111111112
578,0.008605880409646514,0.7361111111111112
579,0.008605880409646514,0.7368055555555556
580,0.008638916418896598,0.7368055555555556
581,0.008638916418896598,0.7375
582,0.00867195242814668,0.7375
583,0.00867195242814668,0.7381944444444445
584,0.008688470432771721,0.7381944444444445
585,0.008688470432771721,0.7388888888888889
586,0.008704988437396763,0.7388888888888889
587,0.008704988437396763,0.7395833333333334
588,0.008721506442021803,0.7395833333333334
589,0.008754542451271887,0.7395833333333334
590,0.008787578460521969,0.7395833333333334
591,0.008787578460521969,0.7402777777777778
592,0.008969276511397423,0.7402777777777778
593,0.008969276511397423,0.7409722222222223
594,0.009018830525272548,0.7409722222222223
595,0.009018830525272548,0.7416666666666667
596,0.009035348529897588,0.7416666666666667
597,0.009035348529897588,0.7423611111111111
598,0.009101420548397753,0.7423611111111111
599,0.009101420548397753,0.7430555555555556
600,0.009150974562272877,0.7430555555555556
601,0.009150974562272877,0.74375
602,0.009233564585398084,0.74375
603,0.009233564585398084,0.7444444444444445
604,0.009266600594648167,0.7444444444444445
605,0.009266600594648167,0.7465277777777778
606,0.009481334654773703,0.7465277777777778
607,0.009481334654773703,0.7472222222222222
608,0.00956392467789891,0.7472222222222222
609,0.00956392467789891,0.7486111111111111
610,0.00958044268252395,0.7486111111111111
611,0.00958044268252395,0.7493055555555556
612,0.0096795507102742,0.7493055555555556
613,0.0096795507102742,0.75
614,0.009712586719524281,0.75
615,0.009712586719524281,0.7506944444444444
616,0.009762140733399406,0.7506944444444444
617,0.009762140733399406,0.7513888888888889
618,0.00981169474727453,0.7513888888888889
619,0.00981169474727453,0.7527777777777778
620,0.009844730756524612,0.7527777777777778
621,0.009844730756524612,0.7534722222222222
622,0.01005946481665015,0.7534722222222222
623,0.01005946481665015,0.7541666666666667
624,0.010109018830525273,0.7541666666666667
625,0.010109018830525273,0.7548611111111111
626,0.010257680872150645,0.7548611111111111
627,0.010257680872150645,0.7555555555555555
628,0.010290716881400727,0.7555555555555555
629,0.010290716881400727,0.7569444444444444
630,0.010422860918401057,0.7569444444444444
631,0.010422860918401057,0.7576388888888889
632,0.010538486950776346,0.7576388888888889
633,0.010538486950776346,0.7583333333333333
634,0.010555004955401388,0.7583333333333333
635,0.010555004955401388,0.7590277777777777
636,0.01058804096465147,0.7590277777777777
637,0.01058804096465147,0.7604166666666666
638,0.010604558969276512,0.7604166666666666
639,0.010604558969276512,0.7618055555555555
640,0.010621076973901553,0.7618055555555555
641,0.010621076973901553,0.7625
642,0.010687148992401719,0.7625
643,0.010687148992401719,0.7631944444444444
644,0.010786257020151966,0.7631944444444444
645,0.010786257020151966,0.7638888888888888
646,0.010802775024777007,0.7638888888888888
647,0.010802775024777007,0.7645833333333333
648,0.01083581103402709,0.7645833333333333
649,0.010852329038652131,0.7652777777777777
650,0.010885365047902213,0.7652777777777777
651,0.011067063098777667,0.7652777777777777
652,0.011067063098777667,0.7659722222222223
653,0.011149653121902874,0.7659722222222223
654,0.011149653121902874,0.7666666666666667
655,0.011166171126527916,0.7666666666666667
656,0.011166171126527916,0.7673611111111112
657,0.011182689131152957,0.7673611111111112
658,0.011182689131152957,0.7680555555555556
659,0.01121572514040304,0.7680555555555556
660,0.01121572514040304,0.76875
661,0.011265279154278163,0.76875
662,0.011265279154278163,0.7701388888888889
663,0.011281797158903204,0.7701388888888889
664,0.011281797158903204,0.7708333333333334
665,0.011364387182028412,0.7708333333333334
666,0.011364387182028412,0.7722222222222223
667,0.011413941195903535,0.7722222222222223
668,0.011413941195903535,0.7736111111111111
669,0.011430459200528577,0.7736111111111111
670,0.011430459200528577,0.775
671,0.0114800132144037,0.775
672,0.0114800132144037,0.7756944444444445
673,0.011496531219028742,0.7756944444444445
674,0.011496531219028742,0.7763888888888889
675,0.011546085232903866,0.7763888888888889
676,0.011546085232903866,0.7770833333333333
677,0.011579121242153947,0.7770833333333333
678,0.011579121242153947,0.7777777777777778
679,0.011628675256029071,0.7777777777777778
680,0.011628675256029071,0.7784722222222222
681,0.011678229269904196,0.7784722222222222
682,0.011678229269904196,0.7791666666666667
683,0.011694747274529236,0.7791666666666667
684,0.011694747274529236,0.7798611111111111
685,0.012025107367030063,0.7798611111111111
686,0.012025107367030063,0.78125
687,0.012305913445655764,0.78125
688,0.012305913445655764,0.7826388888888889
689,0.012338949454905847,0.7826388888888889
690,0.012338949454905847,0.7833333333333333
691,0.012421539478031055,0.7833333333333333
692,0.012421539478031055,0.7840277777777778
693,0.012669309547406674,0.7840277777777778
694,0.012669309547406674,0.7847222222222222
695,0.012933597621407333,0.7847222222222222
696,0.012933597621407333,0.7854166666666667
697,0.012950115626032375,0.7854166666666667
698,0.012950115626032375,0.7861111111111111
699,0.01301618764453254,0.7861111111111111
700,0.013049223653782622,0.7861111111111111
701,0.013214403700033036,0.7861111111111111
702,0.013214403700033036,0.7875
703,0.013346547737033367,0.7875
704,0.013346547737033367,0.7881944444444444
705,0.013412619755533532,0.7881944444444444
706,0.013412619755533532,0.7888888888888889
707,0.013577799801783945,0.7888888888888889
708,0.013577799801783945,0.7895833333333333
709,0.013594317806408986,0.7895833333333333
710,0.013594317806408986,0.7902777777777777
711,0.013709943838784275,0.7902777777777777
712,0.013709943838784275,0.7916666666666666
713,0.013742979848034357,0.7916666666666666
714,0.013742979848034357,0.7923611111111111
715,0.013974231912784936,0.7923611111111111
716,0.013974231912784936,0.7930555555555555
717,0.014073339940535183,0.7930555555555555
718,0.014073339940535183,0.7944444444444444
719,0.01415592996366039,0.7944444444444444
720,0.01415592996366039,0.7958333333333333
721,0.014222001982160556,0.7958333333333333
722,0.014222001982160556,0.7965277777777777
723,0.014387182028410968,0.7965277777777777
724,0.014387182028410968,0.7972222222222223
725,0.014436736042286092,0.7972222222222223
726,0.014469772051536175,0.7972222222222223
727,0.014486290056161215,0.7972222222222223
728,0.014486290056161215,0.7979166666666667
729,0.014717542120911795,0.7979166666666667
730,0.014717542120911795,0.7986111111111112
731,0.015113974231912785,0.7986111111111112
732,0.015113974231912785,0.7993055555555556
733,0.015147010241162868,0.7993055555555556
734,0.015147010241162868,0.8
735,0.015196564255037992,0.8
736,0.015196564255037992,0.8013888888888889
737,0.015279154278163199,0.8013888888888889
738,0.015279154278163199,0.8020833333333334
739,0.015460852329038653,0.8020833333333334
740,0.015460852329038653,0.8027777777777778
741,0.015510406342913776,0.8027777777777778
742,0.015510406342913776,0.8034722222222223
743,0.015543442352163858,0.8034722222222223
744,0.015543442352163858,0.8041666666666667
745,0.0155599603567889,0.8041666666666667
746,0.0155599603567889,0.8055555555555556
747,0.015725140403039312,0.8055555555555556
748,0.015725140403039312,0.8069444444444445
749,0.015840766435414603,0.8069444444444445
750,0.015840766435414603,0.8076388888888889
751,0.015857284440039643,0.8076388888888889
752,0.015857284440039643,0.8083333333333333
753,0.015906838453914766,0.8083333333333333
754,0.015906838453914766,0.8090277777777778
755,0.016187644532540468,0.8090277777777778
756,0.016187644532540468,0.8097222222222222
757,0.016286752560290718,0.8097222222222222
758,0.016319788569540798,0.8097222222222222
759,0.016385860588040965,0.8097222222222222
760,0.016385860588040965,0.8104166666666667
761,0.016518004625041296,0.8104166666666667
762,0.016518004625041296,0.8111111111111111
763,0.016551040634291376,0.8111111111111111
764,0.016551040634291376,0.8118055555555556
765,0.016600594648166503,0.8118055555555556
766,0.016600594648166503,0.8131944444444444
767,0.01671622068054179,0.8131944444444444
768,0.01671622068054179,0.8138888888888889
769,0.016732738685166833,0.8138888888888889
770,0.016732738685166833,0.8145833333333333
771,0.016897918731417244,0.8145833333333333
772,0.016897918731417244,0.8152777777777778
773,0.017063098777667658,0.8152777777777778
774,0.017063098777667658,0.8159722222222222
775,0.01709613478691774,0.8159722222222222
776,0.01709613478691774,0.8166666666666667
777,0.017112652791542782,0.8166666666666667
778,0.017112652791542782,0.8173611111111111
779,0.017129170796167822,0.8173611111111111
780,0.017129170796167822,0.8180555555555555
781,0.017145688800792865,0.8180555555555555
782,0.017145688800792865,0.81875
783,0.017294350842418236,0.81875
784,0.017294350842418236,0.8194444444444444
785,0.017443012884043606,0.8194444444444444
786,0.017443012884043606,0.8201388888888889
787,0.01759167492566898,0.8201388888888889
788,0.01759167492566898,0.8208333333333333
789,0.01762471093491906,0.8208333333333333
790,0.017657746944169144,0.8208333333333333
791,0.01772381896266931,0.8208333333333333
792,0.01772381896266931,0.8215277777777777
793,0.017872481004294682,0.8215277777777777
794,0.017872481004294682,0.8222222222222222
795,0.017888999008919722,0.8222222222222222
796,0.017888999008919722,0.8229166666666666
797,0.018037661050545096,0.8229166666666666
798,0.018037661050545096,0.8236111111111111
799,0.018202841096795506,0.8236111111111111
800,0.018202841096795506,0.8243055555555555
801,0.01823587710604559,0.8243055555555555
802,0.01823587710604559,0.825
803,0.018417575156921044,0.825
804,0.018417575156921044,0.8256944444444444
805,0.018483647175421208,0.8256944444444444
806,0.018483647175421208,0.8263888888888888
807,0.01861579121242154,0.8263888888888888
808,0.01861579121242154,0.8270833333333333
809,0.018665345226296662,0.8270833333333333
810,0.018665345226296662,0.8277777777777777
811,0.018830525272547076,0.8277777777777777
812,0.018830525272547076,0.8284722222222223
813,0.01912784935579782,0.8284722222222223
814,0.01912784935579782,0.8291666666666667
815,0.019210439378923028,0.8291666666666667
816,0.019210439378923028,0.8298611111111112
817,0.019441691443673605,0.8298611111111112
818,0.019441691443673605,0.8305555555555556
819,0.019458209448298645,0.8305555555555556
820,0.019458209448298645,0.83125
821,0.019573835480673936,0.83125
822,0.019573835480673936,0.8319444444444445
823,0.0196399074991741,0.8319444444444445
824,0.0196399074991741,0.8326388888888889
825,0.01977205153617443,0.8326388888888889
826,0.01977205153617443,0.8333333333333334
827,0.01988767756854972,0.8333333333333334
828,0.01988767756854972,0.8347222222222223
829,0.019953749587049884,0.8347222222222223
830,0.019986785596299968,0.8347222222222223
831,0.02003633961017509,0.8347222222222223
832,0.02003633961017509,0.8354166666666667
833,0.02005285761480013,0.8354166666666667
834,0.02005285761480013,0.8361111111111111
835,0.020300627684175752,0.8361111111111111
836,0.020300627684175752,0.8368055555555556
837,0.02041625371655104,0.8368055555555556
838,0.02041625371655104,0.8375
839,0.0206805417905517,0.8375
840,0.0206805417905517,0.8381944444444445
841,0.0206805417905517,0.8395833333333333
842,0.021143045920052856,0.8395833333333333
843,0.021143045920052856,0.8402777777777778
844,0.021209117938553023,0.8402777777777778
845,0.021209117938553023,0.8409722222222222
846,0.021258671952428147,0.8409722222222222
847,0.02129170796167823,0.8409722222222222
848,0.021374297984803437,0.8409722222222222
849,0.021374297984803437,0.8416666666666667
850,0.021506442021803768,0.8416666666666667
851,0.021506442021803768,0.8423611111111111
852,0.021737694086554345,0.8423611111111111
853,0.021770730095804425,0.8423611111111111
854,0.02182028410967955,0.8423611111111111
855,0.02182028410967955,0.8430555555555556
856,0.021869838123554676,0.8430555555555556
857,0.021869838123554676,0.84375
858,0.0219193921374298,0.84375
859,0.0219193921374298,0.8451388888888889
860,0.022018500165180047,0.8451388888888889
861,0.022018500165180047,0.8465277777777778
862,0.022134126197555334,0.8465277777777778
863,0.022134126197555334,0.8472222222222222
864,0.02218368021143046,0.8472222222222222
865,0.02218368021143046,0.8486111111111111
866,0.02241493227618104,0.8486111111111111
867,0.02241493227618104,0.8493055555555555
868,0.022481004294681202,0.8493055555555555
869,0.022481004294681202,0.85
870,0.02271225635943178,0.85
871,0.02271225635943178,0.8506944444444444
872,0.022860918401057154,0.8506944444444444
873,0.022860918401057154,0.8513888888888889
874,0.022926990419557317,0.8513888888888889
875,0.022926990419557317,0.8520833333333333
876,0.022943508424182357,0.8520833333333333
877,0.022943508424182357,0.8527777777777777
878,0.02297654443343244,0.8527777777777777
879,0.023009580442682524,0.8527777777777777
880,0.023141724479682855,0.8527777777777777
881,0.023141724479682855,0.8541666666666666
882,0.023372976544433433,0.8541666666666666
883,0.023406012553683516,0.8541666666666666
884,0.02362074661380905,0.8541666666666666
885,0.02362074661380905,0.8548611111111111
886,0.02386851668318467,0.8548611111111111
887,0.02386851668318467,0.8555555555555555
888,0.02411628675256029,0.8555555555555555
889,0.02411628675256029,0.85625
890,0.024198876775685496,0.85625
891,0.02423191278493558,0.85625
892,0.02424843078956062,0.85625
893,0.02424843078956062,0.8569444444444444
894,0.02434753881731087,0.8569444444444444
895,0.02434753881731087,0.8576388888888888
896,0.024661380905186655,0.8576388888888888
897,0.024661380905186655,0.8583333333333333
898,0.024760488932936902,0.8583333333333333
899,0.024760488932936902,0.8590277777777777
900,0.02514040303931285,0.8590277777777777
901,0.02514040303931285,0.8597222222222223
902,0.025735051205814336,0.8597222222222223
903,0.025735051205814336,0.8604166666666667
904,0.025999339279814997,0.8604166666666667
905,0.025999339279814997,0.8611111111111112
906,0.026114965312190288,0.8611111111111112
907,0.026114965312190288,0.8618055555555556
908,0.026593987446316483,0.8618055555555556
909,0.026593987446316483,0.8625
910,0.026726131483316814,0.8625
911,0.026726131483316814,0.8631944444444445
912,0.027452923686818634,0.8631944444444445
913,0.027452923686818634,0.8638888888888889
914,0.0277998017839445,0.8638888888888889
915,0.0277998017839445,0.8645833333333334
916,0.02806408985794516,0.8645833333333334
917,0.02806408985794516,0.8659722222222223
918,0.028097125867195243,0.8659722222222223
919,0.028097125867195243,0.8666666666666667
920,0.028609184010571522,0.8666666666666667
921,0.028609184010571522,0.8673611111111111
922,0.028856954079947143,0.8673611111111111
923,0.028856954079947143,0.8680555555555556
924,0.029286422200198215,0.8680555555555556
925,0.0293194582094483,0.8680555555555556
926,0.029798480343574497,0.8680555555555556
927,0.029798480343574497,0.86875
928,0.0298810703666997,0.86875
929,0.0298810703666997,0.8694444444444445
930,0.029914106375949785,0.8694444444444445
931,0.03009580442682524,0.8694444444444445
932,0.03009580442682524,0.8701388888888889
933,0.030310538486950776,0.8701388888888889
934,0.030310538486950776,0.8708333333333333
935,0.030591344565576477,0.8708333333333333
936,0.030591344565576477,0.8715277777777778
937,0.03060786257020152,0.8715277777777778
938,0.03060786257020152,0.8729166666666667
939,0.03100429468120251,0.8729166666666667
940,0.03100429468120251,0.8736111111111111
941,0.031037330690452593,0.8736111111111111
942,0.031037330690452593,0.8743055555555556
943,0.03113643871820284,0.8743055555555556
944,0.03113643871820284,0.875
945,0.03229269904195573,0.875
946,0.03229269904195573,0.8756944444444444
947,0.0323587710604559,0.8756944444444444
948,0.0323587710604559,0.8763888888888889
949,0.03331681532870829,0.8763888888888889
950,0.03331681532870829,0.8770833333333333
951,0.033630657416584074,0.8770833333333333
952,0.033630657416584074,0.8777777777777778
953,0.033713247439709285,0.8777777777777778
954,0.033713247439709285,0.8784722222222222
955,0.03410967955071027,0.8784722222222222
956,0.03410967955071027,0.8791666666666667
957,0.03424182358771061,0.8791666666666667
958,0.03424182358771061,0.8798611111111111
959,0.034522629666336305,0.8798611111111111
960,0.034522629666336305,0.8805555555555555
961,0.03458870168483647,0.8805555555555555
962,0.03458870168483647,0.88125
963,0.034968615791212423,0.88125
964,0.034968615791212423,0.8819444444444444
965,0.03498513379583746,0.8819444444444444
966,0.03501816980508755,0.8819444444444444
967,0.035084241823587714,0.8819444444444444
968,0.035117277832837794,0.8819444444444444
969,0.035265939874463165,0.8819444444444444
970,0.035265939874463165,0.8826388888888889
971,0.03559629996696399,0.8826388888888889
972,0.03559629996696399,0.8833333333333333
973,0.03566237198546415,0.8833333333333333
974,0.03566237198546415,0.8840277777777777
975,0.03572844400396432,0.8840277777777777
976,0.03572844400396432,0.8854166666666666
977,0.03579451602246449,0.8854166666666666
978,0.03579451602246449,0.8861111111111111
979,0.0359596960687149,0.8861111111111111
980,0.0359596960687149,0.8868055555555555
981,0.03597621407333994,0.8868055555555555
982,0.03597621407333994,0.8875
983,0.03609184010571523,0.8875
984,0.03609184010571523,0.8881944444444444
985,0.03610835811034027,0.8881944444444444
986,0.03610835811034027,0.8888888888888888
987,0.036190948133465475,0.8888888888888888
988,0.036190948133465475,0.8895833333333333
989,0.0367195242814668,0.8895833333333333
990,0.0367195242814668,0.8902777777777777
991,0.03746283448959366,0.8902777777777777
992,0.03746283448959366,0.8909722222222223
993,0.037677568549719195,0.8909722222222223
994,0.037710604558969275,0.8909722222222223
995,0.038074000660720184,0.8909722222222223
996,0.038074000660720184,0.8916666666666667
997,0.03814007267922035,0.8916666666666667
998,0.03817310868847043,0.8916666666666667
999,0.03817310868847043,0.8923611111111112
1000,0.038569540799471426,0.8923611111111112
1001,0.038569540799471426,0.8930555555555556
1002,0.03861909481334655,0.8930555555555556
1003,0.03861909481334655,0.89375
1004,0.039263296993723155,0.89375
1005,0.039263296993723155,0.8944444444444445
1006,0.03949454905847374,0.8944444444444445
1007,0.03949454905847374,0.8951388888888889
1008,0.039626693095474064,0.8951388888888889
1009,0.039626693095474064,0.8958333333333334
1010,0.0397588371324744,0.8958333333333334
1011,0.0397588371324744,0.8965277777777778
1012,0.03977535513709944,0.8965277777777778
1013,0.03977535513709944,0.8972222222222223
1014,0.040452593326726134,0.8972222222222223
1015,0.040452593326726134,0.8979166666666667
1016,0.04119590353485299,0.8979166666666667
1017,0.04119590353485299,0.8986111111111111
1018,0.041344565576478365,0.8986111111111111
1019,0.041344565576478365,0.8993055555555556
1020,0.04182358771060456,0.8993055555555556
1021,0.041856623719854644,0.8993055555555556
1022,0.042005285761480014,0.8993055555555556
1023,0.042005285761480014,0.9
1024,0.042120911793855305,0.9
1025,0.042120911793855305,0.9006944444444445
1026,0.04217046580773043,0.9006944444444445
1027,0.04220350181698051,0.9006944444444445
1028,0.04284770399735712,0.9006944444444445
1029,0.04284770399735712,0.9013888888888889
1030,0.04380574826560951,0.9013888888888889
1031,0.04380574826560951,0.9020833333333333
1032,0.0438387842748596,0.9020833333333333
1033,0.0438387842748596,0.9027777777777778
1034,0.04387182028410968,0.9027777777777778
1035,0.04387182028410968,0.9034722222222222
1036,0.04410307234886026,0.9034722222222222
1037,0.04410307234886026,0.9041666666666667
1038,0.044482986455236205,0.9041666666666667
1039,0.044482986455236205,0.9048611111111111
1040,0.04473075652461183,0.9048611111111111
1041,0.04473075652461183,0.9055555555555556
1042,0.044747274529236866,0.9055555555555556
1043,0.044747274529236866,0.90625
1044,0.045308886686488276,0.90625
1045,0.045308886686488276,0.9069444444444444
1046,0.046266930954740666,0.9069444444444444
1047,0.04629996696399075,0.9069444444444444
1048,0.04629996696399075,0.9076388888888889
1049,0.04641559299636604,0.9076388888888889
1050,0.046448629005616124,0.9076388888888889
1051,0.046778989098116945,0.9076388888888889
1052,0.04681202510736703,0.9076388888888889
1053,0.04691113313511728,0.9076388888888889
1054,0.04691113313511728,0.9083333333333333
1055,0.04732408325074331,0.9083333333333333
1056,0.04732408325074331,0.9090277777777778
1057,0.04757185332011893,0.9090277777777778
1058,0.04757185332011893,0.9097222222222222
1059,0.04758837132474397,0.9097222222222222
1060,0.04762140733399405,0.9097222222222222
1061,0.04783614139411959,0.9097222222222222
1062,0.04783614139411959,0.9104166666666667
1063,0.048001321440370004,0.9104166666666667
1064,0.048001321440370004,0.9111111111111111
1065,0.04806739345887017,0.9111111111111111
1066,0.04810042946812025,0.9111111111111111
1067,0.04823257350512058,0.9111111111111111
1068,0.04823257350512058,0.9125
1069,0.05077634621737694,0.9125
1070,0.05077634621737694,0.9131944444444444
1071,0.052147340601255365,0.9131944444444444
1072,0.05218037661050545,0.9131944444444444
1073,0.05287413280475719,0.9131944444444444
1074,0.05290716881400727,0.9131944444444444
1075,0.053402708952758504,0.9131944444444444
1076,0.053402708952758504,0.9138888888888889
1077,0.05353485298975884,0.9138888888888889
1078,0.05353485298975884,0.9145833333333333
1079,0.053815659068384536,0.9145833333333333
1080,0.053815659068384536,0.9152777777777777
1081,0.05624380574826561,0.9152777777777777
1082,0.05624380574826561,0.9159722222222222
1083,0.056442021803766104,0.9159722222222222
1084,0.056442021803766104,0.9166666666666666
1085,0.0566402378592666,0.9166666666666666
1086,0.056673273868516685,0.9166666666666666
1087,0.05687148992401718,0.9166666666666666
1088,0.05687148992401718,0.9173611111111111
1089,0.057565246118268916,0.9173611111111111
1090,0.057565246118268916,0.9180555555555555
1091,0.0576808721506442,0.9180555555555555
1092,0.0576808721506442,0.91875
1093,0.0581598942847704,0.91875
1094,0.0581598942847704,0.9194444444444444
1095,0.05820944829864552,0.9194444444444444
1096,0.05820944829864552,0.9201388888888888
1097,0.05845721836802114,0.9201388888888888
1098,0.05845721836802114,0.9208333333333333
1099,0.05926660059464817,0.9208333333333333
1100,0.05926660059464817,0.9215277777777777
1101,0.0596795507102742,0.9215277777777777
1102,0.0596795507102742,0.9222222222222223
1103,0.059894284770399736,0.9222222222222223
1104,0.059927320779649816,0.9222222222222223
1105,0.060109018830525274,0.9222222222222223
1106,0.060109018830525274,0.9229166666666667
1107,0.060224644862900564,0.9229166666666667
1108,0.060224644862900564,0.9236111111111112
1109,0.06105054509415263,0.9236111111111112
1110,0.06105054509415263,0.9243055555555556
1111,0.06164519326065411,0.9243055555555556
1112,0.0616782292699042,0.9243055555555556
1113,0.06199207135777998,0.9243055555555556
1114,0.06202510736703006,0.9243055555555556
1115,0.0626362735381566,0.9243055555555556
1116,0.06266930954740667,0.9243055555555556
1117,0.06293359762140734,0.9243055555555556
1118,0.06296663363065742,0.9243055555555556
1119,0.0629996696399075,0.9243055555555556
1120,0.0629996696399075,0.925
1121,0.06303270564915758,0.925
1122,0.06306574165840767,0.925
1123,0.06357779980178395,0.925
1124,0.06357779980178395,0.9256944444444445
1125,0.0638420878757846,0.9256944444444445
1126,0.06387512388503469,0.9256944444444445
1127,0.06413941195903534,0.9256944444444445
1128,0.06417244796828543,0.9256944444444445
1129,0.0647175421209118,0.9256944444444445
1130,0.0647175421209118,0.9263888888888889
1131,0.06486620416253716,0.9263888888888889
1132,0.06489924017178725,0.9263888888888889
1133,0.06635282457879088,0.9263888888888889
1134,0.06635282457879088,0.9270833333333334
1135,0.06640237859266601,0.9270833333333334
1136,0.06640237859266601,0.9277777777777778
1137,0.06693095474066733,0.9277777777777778
1138,0.06693095474066733,0.9284722222222223
1139,0.06714568880079286,0.9284722222222223
1140,0.06714568880079286,0.9291666666666667
1141,0.06742649487941857,0.9291666666666667
1142,0.06745953088866864,0.9291666666666667
1143,0.06800462504129501,0.9291666666666667
1144,0.06800462504129501,0.9298611111111111
1145,0.06828543111992072,0.9298611111111111
1146,0.06828543111992072,0.9305555555555556
1147,0.07097786587380245,0.9305555555555556
1148,0.07097786587380245,0.93125
1149,0.07102741988767756,0.93125
1150,0.07102741988767756,0.9319444444444445
1151,0.07129170796167823,0.9319444444444445
1152,0.07129170796167823,0.9326388888888889
1153,0.07213412619755534,0.9326388888888889
1154,0.07216716220680541,0.9326388888888889
1155,0.07226627023455566,0.9326388888888889
1156,0.07229930624380575,0.9326388888888889
1157,0.07297654443343245,0.9326388888888889
1158,0.07297654443343245,0.9333333333333333
1159,0.07342253055830855,0.9333333333333333
1160,0.07342253055830855,0.9340277777777778
1161,0.07376940865543442,0.9340277777777778
1162,0.07376940865543442,0.9347222222222222
1163,0.07474397092831186,0.9347222222222222
1164,0.07474397092831186,0.9354166666666667
1165,0.07518995705318797,0.9354166666666667
1166,0.07518995705318797,0.9361111111111111
1167,0.07545424512718864,0.9361111111111111
1168,0.07545424512718864,0.9368055555555556
1169,0.0766435414601916,0.9368055555555556
1170,0.0766435414601916,0.9381944444444444
1171,0.07887347208457218,0.9381944444444444
1172,0.07890650809382227,0.9381944444444444
1173,0.07950115626032375,0.9381944444444444
1174,0.07950115626032375,0.9388888888888889
1175,0.07981499834819954,0.9388888888888889
1176,0.07984803435744962,0.9388888888888889
1177,0.0798810703666997,0.9388888888888889
1178,0.0798810703666997,0.9395833333333333
1179,0.07998017839444994,0.9395833333333333
1180,0.07998017839444994,0.9402777777777778
1181,0.0813181367690783,0.9402777777777778
1182,0.0813181367690783,0.9409722222222222
1183,0.08219359101420548,0.9409722222222222
1184,0.08219359101420548,0.9416666666666667
1185,0.08227618103733068,0.9416666666666667
1186,0.08227618103733068,0.9423611111111111
1187,0.08278823918070698,0.9423611111111111
1188,0.08278823918070698,0.9430555555555555
1189,0.08290386521308225,0.9430555555555555
1190,0.08293690122233234,0.9430555555555555
1191,0.08407664354146019,0.9430555555555555
1192,0.08407664354146019,0.94375
1193,0.08412619755533532,0.94375
1194,0.08415923356458539,0.94375
1195,0.08495209778658738,0.94375
1196,0.08495209778658738,0.9444444444444444
1197,0.08511727783283779,0.9444444444444444
1198,0.08515031384208788,0.9444444444444444
1199,0.0853980839114635,0.9444444444444444
1200,0.0853980839114635,0.9451388888888889
1201,0.08602576808721507,0.9451388888888889
1202,0.08605880409646514,0.9451388888888889
1203,0.08660389824909151,0.9451388888888889
1204,0.0866369342583416,0.9451388888888889
1205,0.08754542451271886,0.9451388888888889
1206,0.08754542451271886,0.9458333333333333
1207,0.08766105054509415,0.9458333333333333
1208,0.08766105054509415,0.9465277777777777
1209,0.08822266270234555,0.9465277777777777
1210,0.08825569871159564,0.9465277777777777
1211,0.08847043277172117,0.9465277777777777
1212,0.08847043277172117,0.9472222222222222
1213,0.08949454905847373,0.9472222222222222
1214,0.08952758506772382,0.9472222222222222
1215,0.08980839114634952,0.9472222222222222
1216,0.08980839114634952,0.9479166666666666
1217,0.09013875123885035,0.9479166666666666
1218,0.09015526924347539,0.9486111111111111
1219,0.09058473736372646,0.9486111111111111
1220,0.09061777337297655,0.9486111111111111
1221,0.0908820614469772,0.9486111111111111
1222,0.0908820614469772,0.9493055555555555
1223,0.09089857945160225,0.9493055555555555
1224,0.09091509745622729,0.95
1225,0.0910802775024777,0.95
1226,0.09111331351172779,0.95
1227,0.09132804757185332,0.95
1228,0.0913610835811034,0.95
1229,0.09197224975222994,0.95
1230,0.09197224975222994,0.9506944444444444
1231,0.09255037991410638,0.9506944444444444
1232,0.09255037991410638,0.9513888888888888
1233,0.09390485629335976,0.9513888888888888
1234,0.09390485629335976,0.9520833333333333
1235,0.09405351833498514,0.9520833333333333
1236,0.09405351833498514,0.9527777777777777
1237,0.09530888668648828,0.9527777777777777
1238,0.09532540469111331,0.9534722222222223
1239,0.09558969276511398,0.9534722222222223
1240,0.09562272877436406,0.9534722222222223
1241,0.09649818301949124,0.9534722222222223
1242,0.09653121902874133,0.9534722222222223
1243,0.0970763131813677,0.9534722222222223
1244,0.0970763131813677,0.9541666666666667
1245,0.09719193921374299,0.9541666666666667
1246,0.09719193921374299,0.9548611111111112
1247,0.09928972580112322,0.9548611111111112
1248,0.0993227618103733,0.9548611111111112
1249,0.10013214403700033,0.9548611111111112
1250,0.10016518004625041,0.9548611111111112
1251,0.10211430459200528,0.9548611111111112
1252,0.10214734060125537,0.9548611111111112
1253,0.10232903865213082,0.9548611111111112
1254,0.1023620746613809,0.9548611111111112
1255,0.10330360092500826,0.9548611111111112
1256,0.10333663693425835,0.9548611111111112
1257,0.10409646514701024,0.9548611111111112
1258,0.10409646514701024,0.9555555555555556
1259,0.10462504129501156,0.9555555555555556
1260,0.10465807730426165,0.9555555555555556
1261,0.10490584737363727,0.9555555555555556
1262,0.10490584737363727,0.95625
1263,0.10520317145688801,0.95625
1264,0.10523620746613808,0.95625
1265,0.10659068384539147,0.95625
1266,0.10662371985464156,0.95625
1267,0.1077634621737694,0.95625
1268,0.10779649818301949,0.95625
1269,0.10817641228939544,0.95625
1270,0.10820944829864552,0.95625
1271,0.10925008259002313,0.95625
1272,0.10928311859927321,0.95625
1273,0.10961347869177403,0.95625
1274,0.10961347869177403,0.9569444444444445
1275,0.11037330690452593,0.9569444444444445
1276,0.11037330690452593,0.9576388888888889
1277,0.11101750908490254,0.9576388888888889
1278,0.11101750908490254,0.9583333333333334
1279,0.1110835811034027,0.9583333333333334
1280,0.1110835811034027,0.9590277777777778
1281,0.11257020151965642,0.9590277777777778
1282,0.11257020151965642,0.9597222222222223
1283,0.11549388833828873,0.9597222222222223
1284,0.11549388833828873,0.9604166666666667
1285,0.11582424843078956,0.9604166666666667
1286,0.11585728444003965,0.9604166666666667
1287,0.11608853650479022,0.9604166666666667
1288,0.1161215725140403,0.9604166666666667
1289,0.11703006276841757,0.9604166666666667
1290,0.11706309877766766,0.9604166666666667
1291,0.11737694086554344,0.9604166666666667
1292,0.11737694086554344,0.9611111111111111
1293,0.1181202510736703,0.9611111111111111
1294,0.1181202510736703,0.9618055555555556
1295,0.11886356128179716,0.9618055555555556
1296,0.11889659729104723,0.9618055555555556
1297,0.11945820944829864,0.9618055555555556
1298,0.11949124545754873,0.9618055555555556
1299,0.12001982160555005,0.9618055555555556
1300,0.12005285761480013,0.9618055555555556
1301,0.12087875784605219,0.9618055555555556
1302,0.12087875784605219,0.9625
1303,0.1219193921374298,0.9625
1304,0.1219193921374298,0.9631944444444445
1305,0.12210109018830526,0.9631944444444445
1306,0.12213412619755533,0.9631944444444445
1307,0.12218368021143046,0.9631944444444445
1308,0.12221671622068055,0.9631944444444445
1309,0.12224975222993062,0.9631944444444445
1310,0.1222827882391807,0.9631944444444445
1311,0.12429798480343575,0.9631944444444445
1312,0.12433102081268582,0.9631944444444445
1313,0.12510736703006275,0.9631944444444445
1314,0.12510736703006275,0.9638888888888889
1315,0.12598282127518995,0.9638888888888889
1316,0.12598282127518995,0.9645833333333333
1317,0.12789890981169474,0.9645833333333333
1318,0.12789890981169474,0.9652777777777778
1319,0.12865873802444663,0.9652777777777778
1320,0.12869177403369672,0.9652777777777778
1321,0.13045920052857615,0.9652777777777778
1322,0.13049223653782624,0.9652777777777778
1323,0.13178064089857947,0.9652777777777778
1324,0.13181367690782952,0.9652777777777778
1325,0.13192930294020483,0.9652777777777778
1326,0.13196233894945492,0.9652777777777778
1327,0.13214403700033037,0.9652777777777778
1328,0.13214403700033037,0.9659722222222222
1329,0.13414271555996035,0.9659722222222222
1330,0.13420878757846053,0.9659722222222222
1331,0.1350016518004625,0.9659722222222222
1332,0.1350016518004625,0.9666666666666667
1333,0.13553022794846384,0.9666666666666667
1334,0.1355632639577139,0.9666666666666667
1335,0.13609184010571523,0.9666666666666667
1336,0.13612487611496532,0.9666666666666667
1337,0.1369177403369673,0.9666666666666667
1338,0.1369177403369673,0.9673611111111111
1339,0.13761149653121904,0.9673611111111111
1340,0.13761149653121904,0.9680555555555556
1341,0.13866864882722166,0.9680555555555556
1342,0.13866864882722166,0.96875
1343,0.1398414271555996,0.96875
1344,0.1398744631648497,0.96875
1345,0.14070036339610176,0.96875
1346,0.14073339940535184,0.96875
1347,0.14170796167822927,0.96875
1348,0.14170796167822927,0.9694444444444444
1349,0.14200528576148003,0.9694444444444444
1350,0.14203832177073009,0.9694444444444444
1351,0.1423191278493558,0.9694444444444444
1352,0.14235216385860588,0.9694444444444444
1353,0.14241823587710606,0.9694444444444444
1354,0.14245127188635612,0.9694444444444444
1355,0.14297984803435745,0.9694444444444444
1356,0.14301288404360754,0.9694444444444444
1357,0.14454905847373636,0.9694444444444444
1358,0.14458209448298645,0.9694444444444444
1359,0.14464816650148662,0.9694444444444444
1360,0.14464816650148662,0.9701388888888889
1361,0.1449124545754873,0.9701388888888889
1362,0.1449124545754873,0.9708333333333333
1363,0.14494549058473735,0.9708333333333333
1364,0.1461182689131153,0.9708333333333333
1365,0.1461182689131153,0.9715277777777778
1366,0.14666336306574165,0.9715277777777778
1367,0.14666336306574165,0.9722222222222222
1368,0.1501651800462504,0.9722222222222222
1369,0.1501982160555005,0.9722222222222222
1370,0.15057813016187643,0.9722222222222222
1371,0.15057813016187643,0.9729166666666667
1372,0.15071027419887678,0.9729166666666667
1373,0.15074331020812687,0.9729166666666667
1374,0.15366699702675918,0.9729166666666667
1375,0.15366699702675918,0.9736111111111111
1376,0.1558473736372646,0.9736111111111111
1377,0.1558804096465147,0.9736111111111111
1378,0.15682193591014207,0.9736111111111111
1379,0.15685497191939213,0.9736111111111111
1380,0.1569210439378923,0.9736111111111111
1381,0.1569540799471424,0.9736111111111111
1382,0.1570862239841427,0.9736111111111111
1383,0.1571192599933928,0.9736111111111111
1384,0.15857284440039643,0.9736111111111111
1385,0.15860588040964652,0.9736111111111111
1386,0.15969606871489925,0.9736111111111111
1387,0.15972910472414933,0.9736111111111111
1388,0.1619259993392798,0.9736111111111111
1389,0.1619590353485299,0.9736111111111111
1390,0.1621242153947803,0.9736111111111111
1391,0.1621572514040304,0.9736111111111111
1392,0.16422200198216055,0.9736111111111111
1393,0.16425503799141064,0.9736111111111111
1394,0.16450280806078627,0.9736111111111111
1395,0.16453584407003635,0.9736111111111111
1396,0.1649653121902874,0.9736111111111111
1397,0.1649983481995375,0.9736111111111111
1398,0.16673273868516683,0.9736111111111111
1399,0.16673273868516683,0.9743055555555555
1400,0.16790551701354475,0.9743055555555555
1401,0.16793855302279484,0.9743055555555555
1402,0.16864882722167163,0.9743055555555555
1403,0.1686818632309217,0.9743055555555555
1404,0.16968946151304923,0.9743055555555555
1405,0.16972249752229931,0.9743055555555555
1406,0.16990419557317477,0.9743055555555555
1407,0.16993723158242485,0.9743055555555555
1408,0.17201850016518005,0.9743055555555555
1409,0.17205153617443014,0.9743055555555555
1410,0.17444664684506112,0.9743055555555555
1411,0.1744796828543112,0.9743055555555555
1412,0.17477700693756193,0.9743055555555555
1413,0.17481004294681202,0.9743055555555555
1414,0.17632969937231582,0.9743055555555555
1415,0.17632969937231582,0.975
1416,0.17737033366369342,0.975
1417,0.1774033696729435,0.975
1418,0.1775189957053188,0.975
1419,0.1775189957053188,0.9756944444444444
1420,0.17793194582094482,0.9756944444444444
1421,0.17793194582094482,0.9763888888888889
1422,0.18006276841757515,0.9763888888888889
1423,0.18009580442682524,0.9763888888888889
1424,0.18037661050545095,0.9763888888888889
1425,0.180409646514701,0.9763888888888889
1426,0.18153287082920383,0.9763888888888889
1427,0.18156590683845392,0.9763888888888889
1428,0.18181367690782954,0.9763888888888889
1429,0.18184671291707963,0.9763888888888889
1430,0.18197885695407995,0.9763888888888889
1431,0.18201189296333004,0.9763888888888889
1432,0.1825239511067063,0.9763888888888889
1433,0.1825569871159564,0.9763888888888889
1434,0.18465477370333663,0.9763888888888889
1435,0.18468780971258672,0.9763888888888889
1436,0.18566237198546415,0.9763888888888889
1437,0.18569540799471423,0.9763888888888889
1438,0.18597621407333995,0.9763888888888889
1439,0.18600925008259003,0.9763888888888889
1440,0.18620746613809053,0.9763888888888889
1441,0.18624050214734061,0.9763888888888889
1442,0.18825569871159564,0.9763888888888889
1443,0.18827221671622069,0.9770833333333333
1444,0.1887512388503469,0.9770833333333333
1445,0.1887512388503469,0.9777777777777777
1446,0.1889659729104724,0.9777777777777777
1447,0.1889990089197225,0.9777777777777777
1448,0.19251734390485628,0.9777777777777777
1449,0.19251734390485628,0.9784722222222222
1450,0.19337628014535843,0.9784722222222222
1451,0.19340931615460852,0.9784722222222222
1452,0.19407003633961017,0.9784722222222222
1453,0.19407003633961017,0.9791666666666666
1454,0.194796828543112,0.9791666666666666
1455,0.194796828543112,0.9798611111111111
1456,0.195193260654113,0.9798611111111111
1457,0.19522629666336305,0.9798611111111111
1458,0.19755533531549388,0.9798611111111111
1459,0.19758837132474397,0.9798611111111111
1460,0.19765444334324414,0.9798611111111111
1461,0.19768747935249423,0.9798611111111111
1462,0.19788569540799472,0.9798611111111111
1463,0.1979187314172448,0.9798611111111111
1464,0.19841427155599603,0.9798611111111111
1465,0.19841427155599603,0.9805555555555555
1466,0.19881070366699702,0.9805555555555555
1467,0.19881070366699702,0.98125
1468,0.19985133795837462,0.98125
1469,0.1998843739676247,0.98125
1470,0.20051205814337628,0.98125
1471,0.20054509415262636,0.98125
1472,0.20125536835150315,0.98125
1473,0.2012884043607532,0.98125
1474,0.20130492236537825,0.98125
1475,0.20133795837462834,0.98125
1476,0.20199867855963,0.98125
1477,0.20203171456888008,0.98125
1478,0.20275850677238189,0.98125
1479,0.20275850677238189,0.9819444444444444
1480,0.20343574496200859,0.9819444444444444
1481,0.20346878097125867,0.9819444444444444
1482,0.2058308556326396,0.9819444444444444
1483,0.2058308556326396,0.9833333333333333
1484,0.20621076973901553,0.9833333333333333
1485,0.20624380574826562,0.9833333333333333
1486,0.20640898579451603,0.9833333333333333
1487,0.20642550379914107,0.9840277777777777
1488,0.20665675586389165,0.9840277777777777
1489,0.20668979187314174,0.9840277777777777
1490,0.2100429468120251,0.9840277777777777
1491,0.21007598282127518,0.9840277777777777
1492,0.21321440370003303,0.9840277777777777
1493,0.21321440370003303,0.9847222222222223
1494,0.21770730095804428,0.9847222222222223
1495,0.21774033696729436,0.9847222222222223
1496,0.22106045589692766,0.9847222222222223
1497,0.22109349190617775,0.9847222222222223
1498,0.22310868847043278,0.9847222222222223
1499,0.22314172447968286,0.9847222222222223
1500,0.223604228609184,0.9847222222222223
1501,0.223604228609184,0.9854166666666667
1502,0.22857614800132145,0.9854166666666667
1503,0.22860918401057154,0.9854166666666667
1504,0.22888999008919722,0.9854166666666667
1505,0.22888999008919722,0.9861111111111112
1506,0.22918731417244798,0.9861111111111112
1507,0.22925338619094812,0.9861111111111112
1508,0.23006276841757517,0.9861111111111112
1509,0.23009580442682523,0.9861111111111112
1510,0.23042616451932607,0.9861111111111112
1511,0.23045920052857616,0.9861111111111112
1512,0.23298645523620748,0.9861111111111112
1513,0.23298645523620748,0.9868055555555556
1514,0.2336802114304592,0.9868055555555556
1515,0.23371324743970928,0.9868055555555556
1516,0.2350346878097126,0.9868055555555556
1517,0.23506772381896268,0.9868055555555556
1518,0.2354806739345887,0.9868055555555556
1519,0.2354806739345887,0.9875
1520,0.23566237198546416,0.9875
1521,0.23569540799471425,0.9875
1522,0.23724810042946812,0.9875
1523,0.2372811364387182,0.9875
1524,0.24317806408985795,0.9875
1525,0.24321110009910804,0.9875
1526,0.24618434093161545,0.9875
1527,0.24621737694086554,0.9875
1528,0.24623389494549058,0.9875
1529,0.24626693095474067,0.9875
1530,0.2503633961017509,0.9875
1531,0.2503633961017509,0.9881944444444445
1532,0.25322101090188304,0.9881944444444445
1533,0.2532540469111331,0.9881944444444445
1534,0.25432771721176084,0.9881944444444445
1535,0.2543607532210109,0.9881944444444445
1536,0.2578460521968946,0.9881944444444445
1537,0.2578790882061447,0.9881944444444445
1538,0.2588371324743971,0.9881944444444445
1539,0.2588701684836472,0.9881944444444445
1540,0.25966303270564917,0.9881944444444445
1541,0.25966303270564917,0.9888888888888889
1542,0.2606871489924017,0.9888888888888889
1543,0.2607201850016518,0.9888888888888889
1544,0.2619755533531549,0.9888888888888889
1545,0.262008589362405,0.9888888888888889
1546,0.26286752560290716,0.9888888888888889
1547,0.26290056161215725,0.9888888888888889
1548,0.26366038982490914,0.9888888888888889
1549,0.2636934258341592,0.9888888888888889
1550,0.26531219028741326,0.9888888888888889
1551,0.26534522629666335,0.9888888888888889
1552,0.2671291707961678,0.9888888888888889
1553,0.2671622068054179,0.9888888888888889
1554,0.2673273868516683,0.9888888888888889
1555,0.2673604228609184,0.9888888888888889
1556,0.27104393789230263,0.9888888888888889
1557,0.27107697390155266,0.9888888888888889
1558,0.2752890650809382,0.9888888888888889
1559,0.2753221010901883,0.9888888888888889
1560,0.2757185332011893,0.9888888888888889
1561,0.27575156921043936,0.9888888888888889
1562,0.2764618434093162,0.9888888888888889
1563,0.27649487941856626,0.9888888888888889
1564,0.2827552031714569,0.9888888888888889
1565,0.2827552031714569,0.9895833333333334
1566,0.28381235546745953,0.9895833333333334
1567,0.2838453914767096,0.9895833333333334
1568,0.2843244136108358,0.9895833333333334
1569,0.2843574496200859,0.9895833333333334
1570,0.2870498843739676,0.9895833333333334
1571,0.2870829203832177,0.9895833333333334
1572,0.2875123885034688,0.9895833333333334
1573,0.28754542451271886,0.9895833333333334
1574,0.2879253386190948,0.9895833333333334
1575,0.2879583746283449,0.9895833333333334
1576,0.2881565906838454,0.9895833333333334
1577,0.28818962669309545,0.9895833333333334
1578,0.2927816319788569,0.9895833333333334
1579,0.292814667988107,0.9895833333333334
1580,0.29301288404360754,0.9895833333333334
1581,0.2930459200528576,0.9895833333333334
1582,0.29514370664023787,0.9895833333333334
1583,0.29517674264948796,0.9895833333333334
1584,0.29757185332011893,0.9895833333333334
1585,0.297604889329369,0.9895833333333334
1586,0.29866204162537163,0.9895833333333334
1587,0.29866204162537163,0.9902777777777778
1588,0.299603567888999,0.9902777777777778
1589,0.2996366038982491,0.9902777777777778
1590,0.3009250082590023,0.9902777777777778
1591,0.3009580442682524,0.9902777777777778
1592,0.3013214403700033,0.9902777777777778
1593,0.3013544763792534,0.9902777777777778
1594,0.3017509084902544,0.9902777777777778
1595,0.3017509084902544,0.9909722222222223
1596,0.30338619094813346,0.9909722222222223
1597,0.30341922695738355,0.9909722222222223
1598,0.3036504790221341,0.9909722222222223
1599,0.3036835150313842,0.9909722222222223
1600,0.30758176412289395,0.9909722222222223
1601,0.3076478361413941,0.9909722222222223
1602,0.30896927651139744,0.9909722222222223
1603,0.3090023125206475,0.9909722222222223
1604,0.312008589362405,0.9909722222222223
1605,0.3120416253716551,0.9909722222222223
1606,0.31233894945490587,0.9909722222222223
1607,0.31237198546415595,0.9909722222222223
1608,0.3126693095474067,0.9909722222222223
1609,0.3126693095474067,0.9916666666666667
1610,0.3133630657416584,0.9916666666666667
1611,0.3133961017509085,0.9916666666666667
1612,0.31370994383878426,0.9916666666666667
1613,0.31370994383878426,0.9923611111111111
1614,0.31385860588040965,0.9923611111111111
1615,0.31385860588040965,0.9930555555555556
1616,0.3139081598942848,0.9930555555555556
1617,0.31394119590353486,0.9930555555555556
1618,0.31470102411628675,0.9930555555555556
1619,0.31473406012553684,0.9930555555555556
1620,0.31521308225966305,0.9930555555555556
1621,0.31524611826891313,0.9930555555555556
1622,0.3156260323752891,0.9930555555555556
1623,0.3156260323752891,0.99375
1624,0.3160389824909151,0.99375
1625,0.3160720185001652,0.99375
1626,0.31681532870829204,0.99375
1627,0.31684836471754213,0.99375
1628,0.3196729435084242,0.99375
1629,0.31970597951767427,0.99375
1630,0.3214403700033036,0.99375
1631,0.3214734060125537,0.99375
1632,0.3221671622068054,0.99375
1633,0.3222001982160555,0.99375
1634,0.3235216385860588,0.99375
1635,0.3235546745953089,0.99375
1636,0.32477700693756195,0.99375
1637,0.32477700693756195,0.9944444444444445
1638,0.3273207796498183,0.9944444444444445
1639,0.3273538156590684,0.9944444444444445
1640,0.3304922365378262,0.9944444444444445
1641,0.3305252725470763,0.9944444444444445
1642,0.3319458209448299,0.9944444444444445
1643,0.33197885695407997,0.9944444444444445
1644,0.33211100099108026,0.9944444444444445
1645,0.33214403700033035,0.9944444444444445
1646,0.3326395771390816,0.9944444444444445
1647,0.3326726131483317,0.9944444444444445
1648,0.33401057152296004,0.9944444444444445
1649,0.33404360753221013,0.9944444444444445
1650,0.3353650479022134,0.9944444444444445
1651,0.3353980839114635,0.9944444444444445
1652,0.33579451602246446,0.9944444444444445
1653,0.33582755203171455,0.9944444444444445
1654,0.33827221671622065,0.9944444444444445
1655,0.33830525272547074,0.9944444444444445
1656,0.33901552692434755,0.9944444444444445
1657,0.33904856293359764,0.9944444444444445
1658,0.33974231912784936,0.9944444444444445
1659,0.33977535513709944,0.9944444444444445
1660,0.3404360753221011,0.9944444444444445
1661,0.34046911133135116,0.9944444444444445
1662,0.34065080938222664,0.9944444444444445
1663,0.3406838453914767,0.9944444444444445
1664,0.3413941195903535,0.9944444444444445
1665,0.34142715559960357,0.9944444444444445
1666,0.341592335645854,0.9944444444444445
1667,0.341592335645854,0.9951388888888889
1668,0.34281466798810706,0.9951388888888889
1669,0.34284770399735714,0.9951388888888889
1670,0.34666336306574164,0.9951388888888889
1671,0.3466963990749917,0.9951388888888889
1672,0.34681202510736703,0.9951388888888889
1673,0.3468450611166171,0.9951388888888889
1674,0.34882722167162206,0.9951388888888889
1675,0.34886025768087214,0.9951388888888889
1676,0.3490419557317476,0.9951388888888889
1677,0.3490749917409977,0.9951388888888889
1678,0.349603567888999,0.9951388888888889
1679,0.3496366038982491,0.9951388888888889
1680,0.3511232243145028,0.9951388888888889
1681,0.3511562603237529,0.9951388888888889
1682,0.3530393128510076,0.9951388888888889
1683,0.3530723488602577,0.9951388888888889
1684,0.35470763131813676,0.9951388888888889
1685,0.35474066732738685,0.9951388888888889
1686,0.35485629335976215,0.9951388888888889
1687,0.35488932936901224,0.9951388888888889
1688,0.36014205483977535,0.9951388888888889
1689,0.36017509084902544,0.9951388888888889
1690,0.3603567888999009,0.9951388888888889
1691,0.360389824909151,0.9951388888888889
1692,0.3609349190617773,0.9951388888888889
1693,0.3609679550710274,0.9951388888888889
1694,0.36219028741328047,0.9951388888888889
1695,0.3622398414271556,0.9951388888888889
1696,0.3662206805417906,0.9951388888888889
1697,0.3662537165510406,0.9951388888888889
1698,0.3668483647175421,0.9951388888888889
1699,0.3668814007267922,0.9951388888888889
1700,0.3672778328377932,0.9951388888888889
1701,0.3673108688470433,0.9951388888888889
1702,0.3673934588701685,0.9951388888888889
1703,0.3674264948794186,0.9951388888888889
1704,0.36762471093491905,0.9951388888888889
1705,0.36765774694416914,0.9951388888888889
1706,0.3677568549719194,0.9951388888888889
1707,0.3677898909811695,0.9951388888888889
1708,0.3690452593326726,0.9951388888888889
1709,0.3690452593326726,0.9958333333333333
1710,0.3746944169144367,0.9958333333333333
1711,0.3746944169144367,0.9965277777777778
1712,0.37471093491906177,0.9965277777777778
1713,0.37474397092831185,0.9965277777777778
1714,0.37670961347869175,0.9965277777777778
1715,0.37674264948794184,0.9965277777777778
1716,0.3826726131483317,0.9965277777777778
1717,0.38270564915758176,0.9965277777777778
1718,0.38364717542120913,0.9965277777777778
1719,0.3836802114304592,0.9965277777777778
1720,0.3838453914767096,0.9965277777777778
1721,0.3838784274859597,0.9965277777777778
1722,0.3867360422860918,0.9965277777777778
1723,0.3867690782953419,0.9965277777777778
1724,0.38847043277172116,0.9965277777777778
1725,0.38850346878097125,0.9965277777777778
1726,0.38913115295672285,0.9965277777777778
1727,0.38916418896597293,0.9965277777777778
1728,0.3901222332342253,0.9965277777777778
1729,0.3901552692434754,0.9965277777777778
1730,0.39179055170135446,0.9965277777777778
1731,0.39182358771060455,0.9965277777777778
1732,0.39197224975222994,0.9965277777777778
1733,0.39200528576148,0.9965277777777778
1734,0.39514370664023785,0.9965277777777778
1735,0.39517674264948793,0.9965277777777778
1736,0.3953088866864883,0.9965277777777778
1737,0.39534192269573837,0.9965277777777778
1738,0.3959696068714899,0.9965277777777778
1739,0.39600264288074,0.9965277777777778
1740,0.39646514701024116,0.9965277777777778
1741,0.39653121902874133,0.9965277777777778
1742,0.39658077304261646,0.9965277777777778
1743,0.39661380905186655,0.9965277777777778
1744,0.39682854311199206,0.9965277777777778
1745,0.39686157912124215,0.9965277777777778
1746,0.39709283118599276,0.9965277777777778
1747,0.3971258671952428,0.9965277777777778
1748,0.3972910472414932,0.9965277777777778
1749,0.3973240832507433,0.9965277777777778
1750,0.39785265939874465,0.9965277777777778
1751,0.39788569540799473,0.9965277777777778
1752,0.39846382556987114,0.9965277777777778
1753,0.39849686157912123,0.9965277777777778
1754,0.4006772381896267,0.9965277777777778
1755,0.4007102741988768,0.9965277777777778
1756,0.40074331020812687,0.9965277777777778
1757,0.40077634621737696,0.9965277777777778
1758,0.40171787248100427,0.9965277777777778
1759,0.40178394449950444,0.9965277777777778
1760,0.4019656425503799,0.9965277777777778
1761,0.40199867855963,0.9965277777777778
1762,0.40515361744301287,0.9965277777777778
1763,0.40518665345226296,0.9965277777777778
1764,0.40606210769739015,0.9965277777777778
1765,0.40609514370664024,0.9965277777777778
1766,0.40792864222001984,0.9965277777777778
1767,0.40796167822926993,0.9965277777777778
1768,0.4101750908490254,0.9965277777777778
1769,0.4102081268582755,0.9965277777777778
1770,0.410802775024777,0.9965277777777778
1771,0.4108358110340271,0.9965277777777778
1772,0.41382556987115954,0.9965277777777778
1773,0.4138586058804096,0.9965277777777778
1774,0.4144367360422861,0.9965277777777778
1775,0.4144697720515362,0.9965277777777778
1776,0.4145853980839115,0.9965277777777778
1777,0.41461843409316157,0.9965277777777778
1778,0.41511397423191276,0.9965277777777778
1779,0.41514701024116285,0.9965277777777778
1780,0.4165180046250413,0.9965277777777778
1781,0.4165510406342914,0.9965277777777778
1782,0.417211760819293,0.9965277777777778
1783,0.4172447968285431,0.9965277777777778
1784,0.4195077634621738,0.9965277777777778
1785,0.41954079947142386,0.9965277777777778
1786,0.42048232573505123,0.9965277777777778
1787,0.42051536174430126,0.9965277777777778
1788,0.42157251404030394,0.9965277777777778
1789,0.421605550049554,0.9965277777777778
1790,0.4218037661050545,0.9965277777777778
1791,0.4218368021143046,0.9965277777777778
1792,0.42297654443343247,0.9965277777777778
1793,0.4230095804426825,0.9965277777777778
1794,0.4255698711595639,0.9965277777777778
1795,0.425602907168814,0.9965277777777778
1796,0.42702345556656757,0.9965277777777778
1797,0.42705649157581765,0.9965277777777778
1798,0.4272381896266931,0.9965277777777778
1799,0.4272877436405682,0.9965277777777778
1800,0.427585067723819,0.9965277777777778
1801,0.427585067723819,0.9972222222222222
1802,0.43029402048232573,0.9972222222222222
1803,0.4303270564915758,0.9972222222222222
1804,0.43173108688470435,0.9972222222222222
1805,0.4317641228939544,0.9972222222222222
1806,0.4320284109679551,0.9972222222222222
1807,0.4320284109679551,0.9979166666666667
1808,0.43442352163858605,0.9979166666666667
1809,0.43445655764783614,0.9979166666666667
1810,0.4347208457218368,0.9979166666666667
1811,0.43475388173108687,0.9979166666666667
1812,0.4374297984803436,0.9979166666666667
1813,0.43746283448959367,0.9979166666666667
1814,0.4375619425173439,0.9979166666666667
1815,0.437594978526594,0.9979166666666667
1816,0.4388833828873472,0.9979166666666667
1817,0.43891641889659727,0.9979166666666667
1818,0.4389990089197225,0.9979166666666667
1819,0.4390320449289726,0.9979166666666667
1820,0.4393954410307235,0.9979166666666667
1821,0.43942847703997356,0.9979166666666667
1822,0.43974231912784933,0.9979166666666667
1823,0.4397753551370994,0.9979166666666667
1824,0.4408325074331021,0.9979166666666667
1825,0.4408655434423522,0.9979166666666667
1826,0.44094813346547734,0.9979166666666667
1827,0.44098116947472743,0.9979166666666667
1828,0.4415262636273538,0.9979166666666667
1829,0.4415592996366039,0.9979166666666667
1830,0.4428311859927321,0.9979166666666667
1831,0.44286422200198217,0.9979166666666667
1832,0.44289725801123225,0.9979166666666667
1833,0.44293029402048234,0.9979166666666667
1834,0.4440865543442352,0.9979166666666667
1835,0.4441195903534853,0.9979166666666667
1836,0.4486785596299967,0.9979166666666667
1837,0.4487115956392468,0.9979166666666667
1838,0.44986785596299966,0.9979166666666667
1839,0.44990089197224975,0.9979166666666667
1840,0.45113974231912785,0.9979166666666667
1841,0.45117277832837793,0.9979166666666667
1842,0.4525107367030063,0.9979166666666667
1843,0.4525437727122564,0.9979166666666667
1844,0.4533861909481335,0.9979166666666667
1845,0.45341922695738357,0.9979166666666667
1846,0.45574826560951437,0.9979166666666667
1847,0.45574826560951437,0.9986111111111111
1848,0.4563594317806409,0.9986111111111111
1849,0.45639246778989095,0.9986111111111111
1850,0.4577634621737694,0.9986111111111111
1851,0.4577964981830195,0.9986111111111111
1852,0.45982821275189956,0.9986111111111111
1853,0.45986124876114964,0.9986111111111111
1854,0.4604724149322762,0.9986111111111111
1855,0.4605054509415263,0.9986111111111111
1856,0.4621902874132805,0.9986111111111111
1857,0.4622233234225306,0.9986111111111111
1858,0.4626362735381566,0.9986111111111111
1859,0.46266930954740665,0.9986111111111111
1860,0.46301618764453256,0.9986111111111111
1861,0.46304922365378265,0.9986111111111111
1862,0.46483316815328707,0.9986111111111111
1863,0.46486620416253716,0.9986111111111111
1864,0.46658407664354146,0.9986111111111111
1865,0.46661711265279154,0.9986111111111111
1866,0.46701354476379253,0.9986111111111111
1867,0.4670465807730426,0.9986111111111111
1868,0.46760819293029404,0.9986111111111111
1869,0.46764122893954413,0.9986111111111111
1870,0.4688305252725471,0.9986111111111111
1871,0.4688635612817972,0.9986111111111111
1872,0.46950776346217377,0.9986111111111111
1873,0.46954079947142385,0.9986111111111111
1874,0.4722332342253056,0.9986111111111111
1875,0.47226627023455564,0.9986111111111111
1876,0.47373637264618434,0.9986111111111111
1877,0.47376940865543443,0.9986111111111111
1878,0.47494218698381235,0.9986111111111111
1879,0.47497522299306244,0.9986111111111111
1880,0.47509084902543774,0.9986111111111111
1881,0.47512388503468783,0.9986111111111111
1882,0.47687479352494216,0.9986111111111111
1883,0.47690782953419225,0.9986111111111111
1884,0.47713908159894286,0.9986111111111111
1885,0.47717211760819295,0.9986111111111111
1886,0.4772547076313181,0.9986111111111111
1887,0.4772877436405682,0.9986111111111111
1888,0.47808060786257023,0.9986111111111111
1889,0.47814667988107035,0.9986111111111111
1890,0.4784770399735712,0.9986111111111111
1891,0.47851007598282125,0.9986111111111111
1892,0.4785761480013214,0.9986111111111111
1893,0.4786091840105715,0.9986111111111111
1894,0.48006276841757517,0.9986111111111111
1895,0.48009580442682526,0.9986111111111111
1896,0.480393128510076,0.9986111111111111
1897,0.48042616451932607,0.9986111111111111
1898,0.4818962669309547,0.9986111111111111
1899,0.4819293029402048,0.9986111111111111
1900,0.4822596630327057,0.9986111111111111
1901,0.4823257350512058,0.9986111111111111
1902,0.48318467129170795,0.9986111111111111
1903,0.48321770730095803,0.9986111111111111
1904,0.48349851337958377,0.9986111111111111
1905,0.4835315493888338,0.9986111111111111
1906,0.48574496200858935,0.9986111111111111
1907,0.48577799801783944,0.9986111111111111
1908,0.4865543442352164,0.9986111111111111
1909,0.48658738024446646,0.9986111111111111
1910,0.4871655104063429,0.9986111111111111
1911,0.487198546415593,0.9986111111111111
1912,0.49126197555335316,0.9986111111111111
1913,0.49129501156260325,0.9986111111111111
1914,0.4953584407003634,0.9986111111111111
1915,0.4953914767096135,0.9986111111111111
1916,0.5016848364717542,0.9986111111111111
1917,0.5017178724810043,0.9986111111111111
1918,0.5041295011562603,0.9986111111111111
1919,0.5041625371655104,0.9986111111111111
1920,0.505599603567889,0.9986111111111111
1921,0.5056326395771391,0.9986111111111111
1922,0.5064585398083912,0.9986111111111111
1923,0.5064915758176413,0.9986111111111111
1924,0.5080938222662702,0.9986111111111111
1925,0.5081268582755203,0.9986111111111111
1926,0.5106045589692765,0.9986111111111111
1927,0.5106375949785266,0.9986111111111111
1928,0.5120416253716551,0.9986111111111111
1929,0.5120746613809052,0.9986111111111111
1930,0.5166005946481665,0.9986111111111111
1931,0.5166336306574166,0.9986111111111111
1932,0.5166997026759167,0.9986111111111111
1933,0.5167327386851668,0.9986111111111111
1934,0.5221341261975553,0.9986111111111111
1935,0.5221836802114305,0.9986111111111111
1936,0.5230095804426825,0.9986111111111111
1937,0.5230426164519326,0.9986111111111111
1938,0.523174760488933,0.9986111111111111
1939,0.523207796498183,0.9986111111111111
1940,0.5244466468450611,0.9986111111111111
1941,0.5244796828543112,0.9986111111111111
1942,0.5250578130161876,0.9986111111111111
1943,0.5250908490254377,0.9986111111111111
1944,0.5254542451271886,0.9986111111111111
1945,0.5254872811364387,0.9986111111111111
1946,0.525586389164189,0.9986111111111111
1947,0.5256194251734391,0.9986111111111111
1948,0.5257020151965642,0.9986111111111111
1949,0.5257350512058143,0.9986111111111111
1950,0.5262471093491906,0.9986111111111111
1951,0.5262801453584407,0.9986111111111111
1952,0.5275520317145689,0.9986111111111111
1953,0.527585067723819,0.9986111111111111
1954,0.5281962338949455,0.9986111111111111
1955,0.5282292699041956,0.9986111111111111
1956,0.5302114304592005,0.9986111111111111
1957,0.5302444664684506,0.9986111111111111
1958,0.5317971589032044,0.9986111111111111
1959,0.5318301949124545,0.9986111111111111
1960,0.5359266600594648,0.9986111111111111
1961,0.5359596960687149,0.9986111111111111
1962,0.5367525602907168,0.9986111111111111
1963,0.5367855962999669,0.9986111111111111
1964,0.5404525933267261,0.9986111111111111
1965,0.5404856293359762,0.9986111111111111
1966,0.5406012553683515,0.9986111111111111
1967,0.5406342913776016,0.9986111111111111
1968,0.5433597621407334,0.9986111111111111
1969,0.5433927981499835,0.9986111111111111
1970,0.543574496200859,0.9986111111111111
1971,0.543607532210109,0.9986111111111111
1972,0.5443673604228609,0.9986111111111111
1973,0.544400396432111,0.9986111111111111
1974,0.5464816650148662,0.9986111111111111
1975,0.5465147010241163,0.9986111111111111
1976,0.5466468450611166,0.9986111111111111
1977,0.5466798810703667,0.9986111111111111
1978,0.546812025107367,0.9986111111111111
1979,0.5468450611166171,0.9986111111111111
1980,0.547621407333994,0.9986111111111111
1981,0.5476544433432441,0.9986111111111111
1982,0.5478856954079947,0.9986111111111111
1983,0.5479187314172448,0.9986111111111111
1984,0.5503138420878758,0.9986111111111111
1985,0.5503468780971259,0.9986111111111111
1986,0.551205814337628,0.9986111111111111
1987,0.5512388503468781,0.9986111111111111
1988,0.5529402048232573,0.9986111111111111
1989,0.5529732408325074,0.9986111111111111
1990,0.5533366369342584,0.9986111111111111
1991,0.5533696729435085,0.9986111111111111
1992,0.5538982490915098,0.9986111111111111
1993,0.5539312851007598,0.9986111111111111
1994,0.5540964651470103,0.9986111111111111
1995,0.5541295011562604,0.9986111111111111
1996,0.555583085563264,0.9986111111111111
1997,0.555616121572514,0.9986111111111111
1998,0.5569705979517674,0.9986111111111111
1999,0.5570036339610175,0.9986111111111111
2000,0.55799471423852,0.9986111111111111
2001,0.5580277502477701,0.9986111111111111
2002,0.5582755203171457,0.9986111111111111
2003,0.5583085563263958,0.9986111111111111
2004,0.5589527585067724,0.9986111111111111
2005,0.5589857945160225,0.9986111111111111
2006,0.5592335645853981,0.9986111111111111
2007,0.5592666005946482,0.9986111111111111
2008,0.5595804426825239,0.9986111111111111
2009,0.559613478691774,0.9986111111111111
2010,0.5604393789230261,0.9986111111111111
2011,0.5604724149322762,0.9986111111111111
2012,0.560802775024777,0.9986111111111111
2013,0.5608358110340271,0.9986111111111111
2014,0.5608523290386521,0.9986111111111111
2015,0.5608853650479022,0.9986111111111111
2016,0.5609018830525273,0.9986111111111111
2017,0.5609349190617773,0.9986111111111111
2018,0.5645688800792864,0.9986111111111111
2019,0.5646019160885365,0.9986111111111111
2020,0.5677403369672943,0.9986111111111111
2021,0.5677733729765444,0.9986111111111111
2022,0.568417575156921,0.9986111111111111
2023,0.5684506111661711,0.9986111111111111
2024,0.5687148992401718,0.9986111111111111
2025,0.5687479352494219,0.9986111111111111
2026,0.5708787578460522,0.9986111111111111
2027,0.5709117938553023,0.9986111111111111
2028,0.5747604889329369,0.9986111111111111
2029,0.5747935249421869,0.9986111111111111
2030,0.5759167492566898,0.9986111111111111
2031,0.5759497852659399,0.9986111111111111
2032,0.5772547076313181,0.9986111111111111
2033,0.5772877436405682,0.9986111111111111
2034,0.5797654443343244,0.9986111111111111
2035,0.5797984803435745,0.9986111111111111
2036,0.580426164519326,0.9986111111111111
2037,0.5804592005285761,0.9986111111111111
2038,0.5806078625702015,0.9986111111111111
2039,0.5806408985794516,0.9986111111111111
2040,0.581598942847704,0.9986111111111111
2041,0.5816319788569541,0.9986111111111111
2042,0.5818962669309548,0.9986111111111111
2043,0.5819293029402048,0.9986111111111111
2044,0.5885034687809713,0.9986111111111111
2045,0.5885365047902213,0.9986111111111111
2046,0.5886356128179716,0.9986111111111111
2047,0.5886686488272217,0.9986111111111111
2048,0.5898579451602246,0.9986111111111111
2049,0.5898909811694747,0.9986111111111111
2050,0.5905351833498513,0.9986111111111111
2051,0.5905682193591014,0.9986111111111111
2052,0.5910472414932276,0.9986111111111111
2053,0.5910802775024777,0.9986111111111111
2054,0.5933267261314833,0.9986111111111111
2055,0.5933597621407334,0.9986111111111111
2056,0.594020482325735,0.9986111111111111
2057,0.5940535183349851,0.9986111111111111
2058,0.6021308225966303,0.9986111111111111
2059,0.6021638586058804,0.9986111111111111
2060,0.6037991410637595,0.9986111111111111
2061,0.6038321770730096,0.9986111111111111
2062,0.6043442352163858,0.9986111111111111
2063,0.6043772712256359,0.9986111111111111
2064,0.6049719193921375,0.9986111111111111
2065,0.6050049554013875,0.9986111111111111
2066,0.605170135447638,0.9986111111111111
2067,0.605203171456888,0.9986111111111111
2068,0.6063429137760159,0.9986111111111111
2069,0.606375949785266,0.9986111111111111
2070,0.6077634621737694,0.9986111111111111
2071,0.6077964981830195,0.9986111111111111
2072,0.608804096465147,0.9986111111111111
2073,0.6088371324743971,0.9986111111111111
2074,0.6089197224975224,0.9986111111111111
2075,0.6089527585067723,0.9986111111111111
2076,0.6111496531219028,0.9986111111111111
2077,0.6111826891311529,0.9986111111111111
2078,0.613577799801784,0.9986111111111111
2079,0.613610835811034,0.9986111111111111
2080,0.6155269243475389,0.9986111111111111
2081,0.615559960356789,0.9986111111111111
2082,0.6196399074991741,0.9986111111111111
2083,0.6196729435084242,0.9986111111111111
2084,0.6201684836471755,0.9986111111111111
2085,0.6202015196564254,0.9986111111111111
2086,0.6223488602576809,0.9986111111111111
2087,0.622381896266931,0.9986111111111111
2088,0.622794846382557,0.9986111111111111
2089,0.6228609184010572,0.9986111111111111
2090,0.6235381565906839,0.9986111111111111
2091,0.6235711925999339,0.9986111111111111
2092,0.6248761149653121,0.9986111111111111
2093,0.6249091509745622,0.9986111111111111
2094,0.6272216716220681,0.9986111111111111
2095,0.6272547076313182,0.9986111111111111
2096,0.6277172117608193,0.9986111111111111
2097,0.6277502477700694,0.9986111111111111
2098,0.6286422200198216,0.9986111111111111
2099,0.6286752560290717,0.9986111111111111
2100,0.6291047241493227,0.9986111111111111
2101,0.6291377601585728,0.9986111111111111
2102,0.6297654443343245,0.9986111111111111
2103,0.6297984803435746,0.9986111111111111
2104,0.6304922365378263,0.9986111111111111
2105,0.6305252725470764,0.9986111111111111
2106,0.6305583085563264,0.9986111111111111
2107,0.6305913445655765,0.9986111111111111
2108,0.6316484968615791,0.9986111111111111
2109,0.6316815328708292,0.9986111111111111
2110,0.6317641228939544,0.9986111111111111
2111,0.6317971589032045,0.9986111111111111
2112,0.6320779649818302,0.9986111111111111
2113,0.6321110009910803,0.9986111111111111
2114,0.6345391476709613,0.9986111111111111
2115,0.6345721836802114,0.9986111111111111
2116,0.6350677238189627,0.9986111111111111
2117,0.6351007598282128,0.9986111111111111
2118,0.6362900561612157,0.9986111111111111
2119,0.6363230921704658,0.9986111111111111
2120,0.6365543442352164,0.9986111111111111
2121,0.6365873802444665,0.9986111111111111
2122,0.6401552692434754,0.9986111111111111
2123,0.6401883052527255,0.9986111111111111
2124,0.6435414601916088,0.9986111111111111
2125,0.6435744962008589,0.9986111111111111
2126,0.648017839444995,0.9986111111111111
2127,0.6480508754542451,0.9986111111111111
2128,0.6494549058473736,0.9986111111111111
2129,0.6494879418566237,0.9986111111111111
2130,0.6497687479352494,0.9986111111111111
2131,0.6498017839444995,0.9986111111111111
2132,0.650379914106376,0.9986111111111111
2133,0.650412950115626,0.9986111111111111
2134,0.6526263627353815,0.9986111111111111
2135,0.6526593987446316,0.9986111111111111
2136,0.6528741328047571,0.9986111111111111
2137,0.6529071688140072,0.9986111111111111
2138,0.6529402048232573,0.9986111111111111
2139,0.6529732408325074,0.9986111111111111
2140,0.6554013875123885,0.9986111111111111
2141,0.6554344235216386,0.9986111111111111
2142,0.6598447307565246,0.9986111111111111
2143,0.6598777667657747,0.9986111111111111
2144,0.6600759828212752,0.9986111111111111
2145,0.6601090188305253,0.9986111111111111
2146,0.6615130492236538,0.9986111111111111
2147,0.6615460852329038,0.9986111111111111
2148,0.6629501156260323,0.9986111111111111
2149,0.6629831516352824,0.9986111111111111
2150,0.6651139742319128,0.9986111111111111
2151,0.6651470102411629,0.9986111111111111
2152,0.6662867525602907,0.9986111111111111
2153,0.6663197885695408,0.9986111111111111
2154,0.6668979187314172,0.9986111111111111
2155,0.6669309547406673,0.9986111111111111
2156,0.667195242814668,0.9986111111111111
2157,0.6672282788239181,0.9986111111111111
2158,0.6673108688470433,0.9986111111111111
2159,0.6673439048562934,0.9986111111111111
2160,0.6680376610505451,0.9986111111111111
2161,0.6680706970597952,0.9986111111111111
2162,0.6701024116286752,0.9986111111111111
2163,0.6701354476379253,0.9986111111111111
2164,0.6719689461513049,0.9986111111111111
2165,0.672001982160555,0.9986111111111111
2166,0.6732738685166831,0.9986111111111111
2167,0.6733069045259332,0.9986111111111111
2168,0.6735546745953089,0.9986111111111111
2169,0.673587710604559,0.9986111111111111
2170,0.6742319127849355,0.9986111111111111
2171,0.6742649487941856,0.9986111111111111
2172,0.6746778989098117,0.9986111111111111
2173,0.6747109349190618,0.9986111111111111
2174,0.6755203171456888,0.9986111111111111
2175,0.6755533531549389,0.9986111111111111
2176,0.6757515692104393,0.9986111111111111
2177,0.6757846052196894,0.9986111111111111
2178,0.6769573835480674,0.9986111111111111
2179,0.6769904195573174,0.9986111111111111
2180,0.677172117608193,0.9986111111111111
2181,0.677205153617443,0.9986111111111111
2182,0.6772547076313181,0.9986111111111111
2183,0.6772877436405682,0.9986111111111111
2184,0.6786091840105716,0.9986111111111111
2185,0.6786422200198216,0.9986111111111111
2186,0.6788899900891973,0.9986111111111111
2187,0.6789230260984473,0.9986111111111111
2188,0.6806904525933267,0.9986111111111111
2189,0.6807234886025768,0.9986111111111111
2190,0.6814007267922035,0.9986111111111111
2191,0.6814337628014536,0.9986111111111111
2192,0.6825074331020813,0.9986111111111111
2193,0.6825404691113314,0.9986111111111111
2194,0.6831351172778328,0.9986111111111111
2195,0.6831681532870829,0.9986111111111111
2196,0.6841757515692104,0.9986111111111111
2197,0.6842087875784605,0.9986111111111111
2198,0.6864387182028411,0.9986111111111111
2199,0.6864717542120912,0.9986111111111111
2200,0.6868516683184671,0.9986111111111111
2201,0.6868847043277172,0.9986111111111111
2202,0.687611496531219,0.9986111111111111
2203,0.6876445325404691,0.9986111111111111
2204,0.6881400726792204,0.9986111111111111
2205,0.6881731086884705,0.9986111111111111
2206,0.688387842748596,0.9986111111111111
2207,0.6884208787578461,0.9986111111111111
2208,0.6885695407994714,0.9986111111111111
2209,0.6886025768087215,0.9986111111111111
2210,0.6909811694747274,0.9986111111111111
2211,0.6910142054839775,0.9986111111111111
2212,0.6911298315163529,0.9986111111111111
2213,0.691179385530228,0.9986111111111111
2214,0.6929137760158572,0.9986111111111111
2215,0.6929468120251073,0.9986111111111111
2216,0.6966633630657416,0.9986111111111111
2217,0.6966963990749917,0.9986111111111111
2218,0.6978196233894945,0.9986111111111111
2219,0.6978526593987446,0.9986111111111111
2220,0.7003138420878758,0.9986111111111111
2221,0.7003468780971258,0.9986111111111111
2222,0.7011232243145028,0.9986111111111111
2223,0.7011562603237529,0.9986111111111111
2224,0.7050214734060125,0.9986111111111111
2225,0.7050545094152626,0.9986111111111111
2226,0.7053353154938884,0.9986111111111111
2227,0.7053683515031384,0.9986111111111111
2228,0.7055665675586389,0.9986111111111111
2229,0.705599603567889,0.9986111111111111
2230,0.706805417905517,0.9986111111111111
2231,0.7068384539147671,0.9986111111111111
2232,0.7130327056491575,0.9986111111111111
2233,0.7130657416584076,0.9986111111111111
2234,0.71399074991741,0.9986111111111111
2235,0.71402378592666,0.9986111111111111
2236,0.7145193260654114,0.9986111111111111
2237,0.7145523620746613,0.9986111111111111
2238,0.714800132144037,0.9986111111111111
2239,0.7148331681532871,0.9986111111111111
2240,0.7148496861579121,0.9986111111111111
2241,0.7148827221671622,0.9986111111111111
2242,0.715609514370664,0.9986111111111111
2243,0.7156425503799141,0.9986111111111111
2244,0.7171456888007929,0.9986111111111111
2245,0.717178724810043,0.9986111111111111
2246,0.7174264948794186,0.9986111111111111
2247,0.7174595308886687,0.9986111111111111
2248,0.7182358771060456,0.9986111111111111
2249,0.7182689131152957,0.9986111111111111
2250,0.7194416914436736,0.9986111111111111
2251,0.7194747274529237,0.9986111111111111
2252,0.7198216055500496,0.9986111111111111
2253,0.7198546415592997,0.9986111111111111
2254,0.7203171456888008,0.9986111111111111
2255,0.7203501816980509,0.9986111111111111
2256,0.7210109018830525,0.9986111111111111
2257,0.7210109018830525,0.9993055555555556
2258,0.7213908159894284,0.9993055555555556
2259,0.7214238519986785,0.9993055555555556
2260,0.722381896266931,0.9993055555555556
2261,0.722414932276181,0.9993055555555556
2262,0.7226296663363065,0.9993055555555556
2263,0.7226627023455566,0.9993055555555556
2264,0.7233894945490584,0.9993055555555556
2265,0.7234225305583085,0.9993055555555556
2266,0.7234720845721837,0.9993055555555556
2267,0.7235051205814338,0.9993055555555556
2268,0.7252725470763132,0.9993055555555556
2269,0.7253055830855633,0.9993055555555556
2270,0.7262966633630658,0.9993055555555556
2271,0.7263296993723158,0.9993055555555556
2272,0.728031053848695,0.9993055555555556
2273,0.7280640898579451,0.9993055555555556
2274,0.7286587380244467,0.9993055555555556
2275,0.7286917740336968,0.9993055555555556
2276,0.7297984803435745,0.9993055555555556
2277,0.7298315163528246,0.9993055555555556
2278,0.731185992732078,0.9993055555555556
2279,0.731219028741328,0.9993055555555556
2280,0.7343244136108358,0.9993055555555556
2281,0.7343574496200859,0.9993055555555556
2282,0.734786917740337,0.9993055555555556
2283,0.7348199537495871,0.9993055555555556
2284,0.7387347208457218,0.9993055555555556
2285,0.7387677568549719,0.9993055555555556
2286,0.7402874132804758,0.9993055555555556
2287,0.7403204492897258,0.9993055555555556
2288,0.7427485959696069,0.9993055555555556
2289,0.7427816319788569,0.9993055555555556
2290,0.7429798480343575,0.9993055555555556
2291,0.7430294020482325,0.9993055555555556
2292,0.7432111000991081,0.9993055555555556
2293,0.7432441361083582,0.9993055555555556
2294,0.744383878427486,0.9993055555555556
2295,0.7444169144367361,0.9993055555555556
2296,0.7472580112322431,0.9993055555555556
2297,0.7472910472414932,0.9993055555555556
2298,0.7481665014866204,0.9993055555555556
2299,0.7481995374958705,0.9993055555555556
2300,0.7490915097456228,0.9993055555555556
2301,0.7491245457548729,0.9993055555555556
2302,0.7497026759167492,0.9993055555555556
2303,0.7497357119259993,0.9993055555555556
2304,0.7508919722497522,0.9993055555555556
2305,0.7509250082590023,0.9993055555555556
2306,0.7517674264948794,0.9993055555555556
2307,0.7518004625041295,0.9993055555555556
2308,0.7519491245457549,0.9993055555555556
2309,0.751982160555005,0.9993055555555556
2310,0.7522299306243806,0.9993055555555556
2311,0.7522629666336307,0.9993055555555556
2312,0.7534687809712587,0.9993055555555556
2313,0.7535018169805088,0.9993055555555556
2314,0.754823257350512,0.9993055555555556
2315,0.7548562933597621,0.9993055555555556
2316,0.755186653452263,0.9993055555555556
2317,0.7552196894615131,0.9993055555555556
2318,0.7567888999008919,0.9993055555555556
2319,0.756821935910142,0.9993055555555556
2320,0.7568880079286422,0.9993055555555556
2321,0.7569210439378923,0.9993055555555556
2322,0.7574331020812686,0.9993055555555556
2323,0.7574661380905187,0.9993055555555556
2324,0.7583085563263958,0.9993055555555556
2325,0.7583415923356459,0.9993055555555556
2326,0.7591179385530228,0.9993055555555556
2327,0.7591509745622729,0.9993055555555556
2328,0.7599768747935249,0.9993055555555556
2329,0.760009910802775,0.9993055555555556
2330,0.7601750908490255,0.9993055555555556
2331,0.7602081268582755,0.9993055555555556
2332,0.7606210769739016,0.9993055555555556
2333,0.7606541129831517,0.9993055555555556
2334,0.7609514370664023,0.9993055555555556
2335,0.7609844730756524,0.9993055555555556
2336,0.7645193260654113,0.9993055555555556
2337,0.7645853980839115,0.9993055555555556
2338,0.7659398744631648,0.9993055555555556
2339,0.7659729104724149,0.9993055555555556
2340,0.769606871489924,0.9993055555555556
2341,0.7696399074991741,0.9993055555555556
2342,0.770763131813677,0.9993055555555556
2343,0.770796167822927,0.9993055555555556
2344,0.7730921704658077,0.9993055555555556
2345,0.7731252064750578,0.9993055555555556
2346,0.7749752229930624,0.9993055555555556
2347,0.7750082590023125,0.9993055555555556
2348,0.7754542451271886,0.9993055555555556
2349,0.7754872811364387,0.9993055555555556
2350,0.776428807400066,0.9993055555555556
2351,0.7764618434093161,0.9993055555555556
2352,0.7766765774694417,0.9993055555555556
2353,0.7767096134786918,0.9993055555555556
2354,0.7791542781631979,0.9993055555555556
2355,0.779187314172448,0.9993055555555556
2356,0.7806078625702015,0.9993055555555556
2357,0.7806408985794516,0.9993055555555556
2358,0.7820944829864552,0.9993055555555556
2359,0.7821275189957053,0.9993055555555556
2360,0.7857284440039644,0.9993055555555556
2361,0.7857614800132144,0.9993055555555556
2362,0.7858275520317146,0.9993055555555556
2363,0.7858605880409647,0.9993055555555556
2364,0.7859101420548398,0.9993055555555556
2365,0.7859431780640899,0.9993055555555556
2366,0.7860753221010902,0.9993055555555556
2367,0.7861083581103403,0.9993055555555556
2368,0.7870333663693426,0.9993055555555556
2369,0.7870664023785927,0.9993055555555556
2370,0.7876775685497192,0.9993055555555556
2371,0.7877106045589692,0.9993055555555556
2372,0.7888503468780971,0.9993055555555556
2373,0.7888833828873472,0.9993055555555556
2374,0.789180706970598,0.9993055555555556
2375,0.789213742979848,0.9993055555555556
2376,0.7915592996366039,0.9993055555555556
2377,0.791592335645854,0.9993055555555556
2378,0.7925008259002313,0.9993055555555556
2379,0.7925338619094814,0.9993055555555556
2380,0.7961182689131153,0.9993055555555556
2381,0.7961513049223654,0.9993055555555556
2382,0.7972249752229931,0.9993055555555556
2383,0.7972580112322432,0.9993055555555556
2384,0.7978691774033697,0.9993055555555556
2385,0.7979022134126198,0.9993055555555556
2386,0.8001321440370003,0.9993055555555556
2387,0.8001651800462504,0.9993055555555556
2388,0.8008424182358771,0.9993055555555556
2389,0.8008754542451272,0.9993055555555556
2390,0.8032375289065081,0.9993055555555556
2391,0.8032705649157582,0.9993055555555556
2392,0.8037991410637595,0.9993055555555556
2393,0.8038321770730096,0.9993055555555556
2394,0.8039312851007598,0.9993055555555556
2395,0.8039643211100099,0.9993055555555556
2396,0.8044928972580112,0.9993055555555556
2397,0.8045259332672613,0.9993055555555556
2398,0.8086389164188966,0.9993055555555556
2399,0.8086719524281467,0.9993055555555556
2400,0.8102741988767757,0.9993055555555556
2401,0.8103072348860257,0.9993055555555556
2402,0.8110009910802775,0.9993055555555556
2403,0.8110340270895275,0.9993055555555556
2404,0.8115626032375289,0.9993055555555556
2405,0.811595639246779,0.9993055555555556
2406,0.8129335976214074,0.9993055555555556
2407,0.8129666336306575,0.9993055555555556
2408,0.8145523620746614,0.9993055555555556
2409,0.8145853980839115,0.9993055555555556
2410,0.8202510736703006,0.9993055555555556
2411,0.8202841096795507,0.9993055555555556
2412,0.8211595639246779,0.9993055555555556
2413,0.821192599933928,0.9993055555555556
2414,0.8222662702345557,0.9993055555555556
2415,0.8222993062438058,0.9993055555555556
2416,0.8225140403039313,0.9993055555555556
2417,0.8225470763131814,0.9993055555555556
2418,0.8259167492566898,0.9993055555555556
2419,0.8259497852659399,0.9993055555555556
2420,0.8262471093491907,0.9993055555555556
2421,0.8262801453584407,0.9993055555555556
2422,0.8284440039643212,0.9993055555555556
2423,0.8284770399735711,0.9993055555555556
2424,0.8285761480013214,0.9993055555555556
2425,0.8286091840105715,0.9993055555555556
2426,0.8310703666997027,0.9993055555555556
2427,0.8311034027089528,0.9993055555555556
2428,0.832408325074331,0.9993055555555556
2429,0.8324413610835811,0.9993055555555556
2430,0.8343739676247109,0.9993055555555556
2431,0.834407003633961,0.9993055555555556
2432,0.8354806739345887,0.9993055555555556
2433,0.8355137099438388,0.9993055555555556
2434,0.8392302609844731,0.9993055555555556
2435,0.8392632969937232,0.9993055555555556
2436,0.8409646514701025,0.9993055555555556
2437,0.8409976874793524,0.9993055555555556
2438,0.8413941195903535,0.9993055555555556
2439,0.8414271555996036,0.9993055555555556
2440,0.8425338619094813,0.9993055555555556
2441,0.8425668979187314,0.9993055555555556
2442,0.8433432441361084,0.9993055555555556
2443,0.8433762801453585,0.9993055555555556
2444,0.8465147010241163,0.9993055555555556
2445,0.8465477370333664,0.9993055555555556
2446,0.847621407333994,0.9993055555555556
2447,0.8476544433432441,0.9993055555555556
2448,0.8484307895606211,0.9993055555555556
2449,0.8484638255698712,0.9993055555555556
2450,0.8486620416253716,0.9993055555555556
2451,0.8486950776346217,0.9993055555555556
2452,0.8496531219028741,0.9993055555555556
2453,0.8496861579121242,0.9993055555555556
2454,0.8529897588371325,0.9993055555555556
2455,0.8530227948463825,0.9993055555555556
2456,0.8549554013875124,0.9993055555555556
2457,0.8549884373967624,0.9993055555555556
2458,0.855170135447638,0.9993055555555556
2459,0.855203171456888,0.9993055555555556
2460,0.8592996366038983,0.9993055555555556
2461,0.8593326726131484,0.9993055555555556
2462,0.8597786587380244,0.9993055555555556
2463,0.8598116947472745,0.9993055555555556
2464,0.861199207135778,0.9993055555555556
2465,0.8612322431450281,0.9993055555555556
2466,0.8614139411959035,0.9993055555555556
2467,0.8614469772051536,0.9993055555555556
2468,0.8641228939544103,0.9993055555555556
2469,0.8641559299636604,0.9993055555555556
2470,0.8647010241162868,0.9993055555555556
2471,0.8647340601255369,0.9993055555555556
2472,0.865626032375289,0.9993055555555556
2473,0.8656590683845391,0.9993055555555556
2474,0.867195242814668,0.9993055555555556
2475,0.8672282788239181,0.9993055555555556
2476,0.8686488272216716,0.9993055555555556
2477,0.8686818632309217,0.9993055555555556
2478,0.8689626693095474,0.9993055555555556
2479,0.8689957053187974,0.9993055555555556
2480,0.8690782953419227,0.9993055555555556
2481,0.8691113313511728,0.9993055555555556
2482,0.8746778989098117,0.9993055555555556
2483,0.8747109349190618,0.9993055555555556
2484,0.8760323752890651,0.9993055555555556
2485,0.8760654112983152,0.9993055555555556
2486,0.8778328377931945,0.9993055555555556
2487,0.8778658738024446,0.9993055555555556
2488,0.8808556326395771,0.9993055555555556
2489,0.8808886686488272,0.9993055555555556
2490,0.8821935910142055,0.9993055555555556
2491,0.8822266270234556,0.9993055555555556
2492,0.8856458539808391,0.9993055555555556
2493,0.8856788899900891,0.9993055555555556
2494,0.8861248761149653,0.9993055555555556
2495,0.8861579121242154,0.9993055555555556
2496,0.8871159563924678,0.9993055555555556
2497,0.8871489924017179,0.9993055555555556
2498,0.8873967624710934,0.9993055555555556
2499,0.8874297984803435,0.9993055555555556
2500,0.8930789560621077,0.9993055555555556
2501,0.8931119920713578,0.9993055555555556
2502,0.8944499504459861,0.9993055555555556
2503,0.8944829864552362,0.9993055555555556
2504,0.9018334985133796,0.9993055555555556
2505,0.9018665345226297,0.9993055555555556
2506,0.9029236868186323,0.9993055555555556
2507,0.9029567228278824,0.9993055555555556
2508,0.903600925008259,0.9993055555555556
2509,0.903633961017509,0.9993055555555556
2510,0.9043277172117609,0.9993055555555556
2511,0.904360753221011,0.9993055555555556
2512,0.9065246118268913,0.9993055555555556
2513,0.9065576478361413,0.9993055555555556
2514,0.9073339940535183,0.9993055555555556
2515,0.9073670300627684,0.9993055555555556
2516,0.9081598942847704,0.9993055555555556
2517,0.9081929302940205,0.9993055555555556
2518,0.9085067723818963,0.9993055555555556
2519,0.9085398083911463,0.9993055555555556
2520,0.9092335645853981,0.9993055555555556
2521,0.9092666005946481,0.9993055555555556
2522,0.9093987446316485,0.9993055555555556
2523,0.9093987446316485,1.0
2524,0.9101585728444004,1.0
2525,0.9101916088536505,1.0
2526,0.9179385530227948,1.0
2527,0.9179715890320449,1.0
2528,0.9180706970597952,1.0
2529,0.9181037330690452,1.0
2530,0.9197059795176743,1.0
2531,0.9197390155269244,1.0
2532,0.9214403700033036,1.0
2533,0.9214734060125537,1.0
2534,0.9227122563594318,1.0
2535,0.9227452923686819,1.0
2536,0.9230591344565576,1.0
2537,0.9230921704658077,1.0
2538,0.9231252064750578,1.0
2539,0.9231582424843079,1.0
2540,0.9245622728774364,1.0
2541,0.9245953088866865,1.0
2542,0.9248595969606872,1.0
2543,0.9248926329699372,1.0
2544,0.9254707631318136,1.0
2545,0.9255037991410637,1.0
2546,0.9261975553353154,1.0
2547,0.9262305913445655,1.0
2548,0.9275024777006937,1.0
2549,0.9275355137099438,1.0
2550,0.9301288404360754,1.0
2551,0.9301618764453254,1.0
2552,0.9309382226627023,1.0
2553,0.9309712586719524,1.0
2554,0.9343244136108358,1.0
2555,0.9343574496200859,1.0
2556,0.9351668318467129,1.0
2557,0.935199867855963,1.0
2558,0.9391641889659729,1.0
2559,0.939197224975223,1.0
2560,0.9409150974562273,1.0
2561,0.9409481334654773,1.0
2562,0.9455236207466138,1.0
2563,0.9455566567558639,1.0
2564,0.9460521968946152,1.0
2565,0.9460852329038653,1.0
2566,0.9514701024116287,1.0
2567,0.9515031384208787,1.0
2568,0.9528245787908821,1.0
2569,0.9528576148001321,1.0
2570,0.9534522629666337,1.0
2571,0.9534852989758837,1.0
2572,0.9537330690452593,1.0
2573,0.9537661050545094,1.0
2574,0.9554839775355137,1.0
2575,0.9555170135447638,1.0
2576,0.9594813346547737,1.0
2577,0.9595143706640238,1.0
2578,0.964403700033036,1.0
2579,0.9644367360422861,1.0
2580,0.971225635943178,1.0
2581,0.9712586719524281,1.0
2582,0.9719028741328047,1.0
2583,0.9719359101420548,1.0
2584,0.975189957053188,1.0
2585,0.9752229930624381,1.0
2586,0.9761810373306905,1.0
2587,0.9762140733399405,1.0
2588,0.978807400066072,1.0
2589,0.9788404360753221,1.0
2590,0.981219028741328,1.0
2591,0.9812520647505781,1.0
2592,0.9822101090188305,1.0
2593,0.9822431450280806,1.0
2594,0.9839775355137099,1.0
2595,0.98401057152296,1.0
2596,0.9852659398744632,1.0
2597,0.9852989758837133,1.0
2598,0.9899405351833499,1.0
2599,0.9899735711926,1.0
2600,0.990403039312851,1.0
2601,0.9904360753221011,1.0
2602,0.9917575156921044,1.0
2603,0.9917905517013544,1.0
2604,0.9933432441361083,1.0
2605,0.9933762801453584,1.0
2606,0.9935249421869838,1.0
2607,0.9935579781962339,1.0
2608,0.9951602246448629,1.0
2609,0.995193260654113,1.0
2610,0.9954410307234886,1.0
2611,0.9954740667327386,1.0
2612,0.9960852329038652,1.0
2613,0.9961182689131153,1.0
2614,0.9965312190287413,1.0
2615,0.9965642550379914,1.0
2616,0.996795507102742,1.0
2617,0.9968285431119921,1.0
2618,1.0,1.0
