,fpr,tpr
0,0.0,0.0
1,0.0,0.0003403675970047651
2,0.0,0.0013614703880190605
3,1.7075919538267136e-05,0.0013614703880190605
4,1.7075919538267136e-05,0.0034036759700476512
5,3.415183907653427e-05,0.0034036759700476512
6,3.415183907653427e-05,0.011912865895166781
7,5.1227758614801405e-05,0.011912865895166781
8,5.1227758614801405e-05,0.1211708645336964
9,5.1227758614801405e-05,0.12185159972770593
10,5.1227758614801405e-05,0.2120490129339687
11,5.1227758614801405e-05,0.2127297481279782
12,5.1227758614801405e-05,0.25663716814159293
13,6.830367815306854e-05,0.25663716814159293
14,6.830367815306854e-05,0.31211708645336966
15,8.537959769133568e-05,0.31211708645336966
16,8.537959769133568e-05,0.43601089176310415
17,0.00010245551722960281,0.43601089176310415
18,0.00010245551722960281,0.43737236215112324
19,0.00011953143676786995,0.43737236215112324
20,0.00011953143676786995,0.46017699115044247
21,0.0001366073563061371,0.46017699115044247
22,0.0001366073563061371,0.48672566371681414
23,0.00015368327584440423,0.48672566371681414
24,0.00015368327584440423,0.4928522804628999
25,0.00017075919538267137,0.4928522804628999
26,0.00017075919538267137,0.5047651463580667
27,0.00018783511492093848,0.5047651463580667
28,0.00018783511492093848,0.5061266167460857
29,0.00020491103445920562,0.5061266167460857
30,0.00020491103445920562,0.527569775357386
31,0.00022198695399747276,0.527569775357386
32,0.00022198695399747276,0.537780803267529
33,0.0002390628735357399,0.537780803267529
34,0.0002390628735357399,0.5401633764465623
35,0.000256138793074007,0.5401633764465623
36,0.000256138793074007,0.5544588155207624
37,0.0002732147126122742,0.5544588155207624
38,0.0002732147126122742,0.55786249149081
39,0.0002902906321505413,0.55786249149081
40,0.0002902906321505413,0.5582028590878149
41,0.00030736655168880846,0.5582028590878149
42,0.00030736655168880846,0.5690946221919673
43,0.00032444247122707557,0.5690946221919673
44,0.00032444247122707557,0.5701157249829816
45,0.00034151839076534274,0.5701157249829816
46,0.00034151839076534274,0.5789652825051055
47,0.00035859431030360985,0.5789652825051055
48,0.00035859431030360985,0.5793056501021103
49,0.00037567022984187696,0.5793056501021103
50,0.00037567022984187696,0.5796460176991151
51,0.00040982206891841124,0.5796460176991151
52,0.00040982206891841124,0.5833900612661674
53,0.0004268979884566784,0.5833900612661674
54,0.0004268979884566784,0.5847515316541865
55,0.0004439739079949455,0.5847515316541865
56,0.0004439739079949455,0.5878148400272294
57,0.0004610498275332127,0.5878148400272294
58,0.0004610498275332127,0.5881552076242341
59,0.0004952016666097469,0.5881552076242341
60,0.0004952016666097469,0.591218515997277
61,0.000512277586148014,0.591218515997277
62,0.000512277586148014,0.5925799863852961
63,0.0005293535056862812,0.5925799863852961
64,0.0005293535056862812,0.5953029271613343
65,0.0005464294252245484,0.5953029271613343
66,0.0005464294252245484,0.5963240299523486
67,0.0005635053447628155,0.5963240299523486
68,0.0005635053447628155,0.597004765146358
69,0.0005805812643010826,0.597004765146358
70,0.0005805812643010826,0.5990469707283866
71,0.0005976571838393497,0.5990469707283866
72,0.0005976571838393497,0.6140231449965963
73,0.0006147331033776169,0.6140231449965963
74,0.0006147331033776169,0.6167460857726345
75,0.0006488849424541511,0.6167460857726345
76,0.0006488849424541511,0.6181075561606535
77,0.0006659608619924183,0.6181075561606535
78,0.0006659608619924183,0.6184479237576582
79,0.0006830367815306855,0.6184479237576582
80,0.0006830367815306855,0.6211708645336964
81,0.0007001127010689526,0.6211708645336964
82,0.0007001127010689526,0.6259360108917631
83,0.0007171886206072197,0.6259360108917631
84,0.0007171886206072197,0.6300204220558203
85,0.0007342645401454868,0.6300204220558203
86,0.0007342645401454868,0.6324029952348537
87,0.0007513404596837539,0.6324029952348537
88,0.0007513404596837539,0.6337644656228727
89,0.0007684163792220211,0.6337644656228727
90,0.0007684163792220211,0.6364874063989108
91,0.0007854922987602883,0.6364874063989108
92,0.0007854922987602883,0.6378488767869299
93,0.0008025682182985554,0.6378488767869299
94,0.0008025682182985554,0.639210347174949
95,0.0008196441378368225,0.639210347174949
96,0.0008196441378368225,0.6412525527569776
97,0.0008367200573750896,0.6412525527569776
98,0.0008367200573750896,0.64499659632403
99,0.0008537959769133568,0.64499659632403
100,0.0008537959769133568,0.6480599046970729
101,0.000887947815989891,0.6480599046970729
102,0.000887947815989891,0.6504424778761062
103,0.0009050237355281582,0.6504424778761062
104,0.0009050237355281582,0.6514635806671205
105,0.0009562514941429596,0.6514635806671205
106,0.0009562514941429596,0.6524846834581348
107,0.0009733274136812267,0.6524846834581348
108,0.0009733274136812267,0.6569094622191968
109,0.0009904033332194938,0.6569094622191968
110,0.0009904033332194938,0.6582709326072158
111,0.001007479252757761,0.6582709326072158
112,0.001007479252757761,0.6637168141592921
113,0.001024555172296028,0.6637168141592921
114,0.001024555172296028,0.6654186521443158
115,0.0010416310918342953,0.6654186521443158
116,0.0010416310918342953,0.668141592920354
117,0.0010587070113725625,0.668141592920354
118,0.0010587070113725625,0.6684819605173588
119,0.0010757829309108295,0.6684819605173588
120,0.0010757829309108295,0.6712049012933968
121,0.0011099347699873637,0.6712049012933968
122,0.0011099347699873637,0.6715452688904017
123,0.001127010689525631,0.6715452688904017
124,0.001127010689525631,0.6729067392784207
125,0.0011440866090638982,0.6729067392784207
126,0.0011440866090638982,0.6735874744724302
127,0.0011611625286021652,0.6735874744724302
128,0.0011611625286021652,0.6746085772634445
129,0.0011782384481404324,0.6746085772634445
130,0.0011782384481404324,0.6756296800544588
131,0.0011953143676786994,0.6756296800544588
132,0.0011953143676786994,0.6773315180394827
133,0.0012294662067552338,0.6773315180394827
134,0.0012294662067552338,0.6786929884275017
135,0.0012465421262935008,0.6786929884275017
136,0.0012465421262935008,0.6807351940095303
137,0.001263618045831768,0.6807351940095303
138,0.001263618045831768,0.681075561606535
139,0.0012806939653700353,0.681075561606535
140,0.0012806939653700353,0.6817562968005446
141,0.0012977698849083023,0.6817562968005446
142,0.0012977698849083023,0.6820966643975493
143,0.0013148458044465695,0.6820966643975493
144,0.0013148458044465695,0.6837985023825732
145,0.0013319217239848365,0.6837985023825732
146,0.0013319217239848365,0.6848196051735874
147,0.001383149482599638,0.6848196051735874
148,0.001383149482599638,0.685500340367597
149,0.0014173013216761722,0.685500340367597
150,0.0014173013216761722,0.686861810755616
151,0.0014514531607527066,0.686861810755616
152,0.0014514531607527066,0.6889040163376446
153,0.0014685290802909736,0.6889040163376446
154,0.0014685290802909736,0.6906058543226685
155,0.001519756838905775,0.6906058543226685
156,0.001519756838905775,0.6919673247106876
157,0.0015368327584440423,0.6919673247106876
158,0.0015368327584440423,0.6923076923076923
159,0.0015709845975205765,0.6923076923076923
160,0.0015709845975205765,0.6936691626957113
161,0.0015880605170588435,0.6936691626957113
162,0.0015880605170588435,0.6991150442477876
163,0.0016051364365971107,0.6991150442477876
164,0.0016051364365971107,0.6994554118447924
165,0.001622212356135378,0.6994554118447924
166,0.001622212356135378,0.7004765146358066
167,0.001639288275673645,0.7004765146358066
168,0.001639288275673645,0.7008168822328115
169,0.0016563641952119122,0.7008168822328115
170,0.0016563641952119122,0.7011572498298162
171,0.0016734401147501792,0.7011572498298162
172,0.0016734401147501792,0.7018379850238258
173,0.0017075919538267136,0.7018379850238258
174,0.0017075919538267136,0.7028590878148401
175,0.0017246678733649806,0.7028590878148401
176,0.0017246678733649806,0.7059223961878829
177,0.0017417437929032479,0.7059223961878829
178,0.0017417437929032479,0.7066031313818925
179,0.001758819712441515,0.7066031313818925
180,0.001758819712441515,0.7079646017699115
181,0.0017929715515180493,0.7079646017699115
182,0.0017929715515180493,0.7083049693669162
183,0.0018100474710563163,0.7083049693669162
184,0.0018100474710563163,0.7089857045609258
185,0.0018271233905945835,0.7089857045609258
186,0.0018271233905945835,0.7103471749489448
187,0.001878351149209385,0.7103471749489448
188,0.001878351149209385,0.7120490129339687
189,0.0019125029882859192,0.7120490129339687
190,0.0019125029882859192,0.7127297481279782
191,0.001997882585977255,0.7127297481279782
192,0.001997882585977255,0.7140912185159973
193,0.002014958505515522,0.7140912185159973
194,0.002014958505515522,0.7168141592920354
195,0.002049110344592056,0.7168141592920354
196,0.002049110344592056,0.7171545268890401
197,0.0020661862641303233,0.7171545268890401
198,0.0020661862641303233,0.717494894486045
199,0.0020832621836685905,0.717494894486045
200,0.0020832621836685905,0.718856364874064
201,0.0021003381032068578,0.718856364874064
202,0.0021003381032068578,0.7195371000680735
203,0.0021344899422833918,0.7195371000680735
204,0.0021344899422833918,0.720217835262083
205,0.002151565861821659,0.720217835262083
206,0.002151565861821659,0.7212389380530974
207,0.0021857177008981934,0.7212389380530974
208,0.0021857177008981934,0.7219196732471069
209,0.0022027936204364607,0.7219196732471069
210,0.0022027936204364607,0.7263444520081688
211,0.002254021379051262,0.7263444520081688
212,0.002254021379051262,0.7270251872021783
213,0.002271097298589529,0.7270251872021783
214,0.002271097298589529,0.7283866575901974
215,0.0022881732181277963,0.7283866575901974
216,0.0022881732181277963,0.7311095983662356
217,0.0023223250572043303,0.7311095983662356
218,0.0023223250572043303,0.7328114363512593
219,0.0023564768962808648,0.7328114363512593
220,0.0023564768962808648,0.7351940095302927
221,0.002373552815819132,0.7351940095302927
222,0.002373552815819132,0.7396187882913546
223,0.0023906287353573988,0.7396187882913546
224,0.0023906287353573988,0.7402995234853642
225,0.0024247805744339332,0.7402995234853642
226,0.0024247805744339332,0.7413206262763785
227,0.0024589324135104677,0.7413206262763785
228,0.0024589324135104677,0.7416609938733832
229,0.0024930842525870017,0.7416609938733832
230,0.0024930842525870017,0.7437031994554119
231,0.002510160172125269,0.7437031994554119
232,0.002510160172125269,0.7440435670524166
233,0.0025613879307400706,0.7440435670524166
234,0.0025613879307400706,0.7457454050374405
235,0.0025955397698166046,0.7457454050374405
236,0.0025955397698166046,0.7481279782164738
237,0.002612615689354872,0.7481279782164738
238,0.002612615689354872,0.7501701837985024
239,0.002629691608893139,0.7501701837985024
240,0.002629691608893139,0.7505105513955072
241,0.0026467675284314062,0.7505105513955072
242,0.0026467675284314062,0.7511912865895167
243,0.002663843447969673,0.7511912865895167
244,0.002663843447969673,0.7515316541865215
245,0.0026809193675079402,0.7515316541865215
246,0.0026809193675079402,0.7518720217835262
247,0.0027150712065844747,0.7518720217835262
248,0.0027150712065844747,0.7525527569775358
249,0.0027492230456610087,0.7525527569775358
250,0.0027492230456610087,0.7539142273655548
251,0.0028004508042758103,0.7539142273655548
252,0.0028004508042758103,0.7542545949625595
253,0.0028175267238140776,0.7542545949625595
254,0.0028175267238140776,0.7549353301565691
255,0.0028346026433523444,0.7549353301565691
256,0.0028346026433523444,0.7562968005445881
257,0.002868754482428879,0.7562968005445881
258,0.002868754482428879,0.7566371681415929
259,0.0029029063215054132,0.7566371681415929
260,0.0029029063215054132,0.7576582709326072
261,0.0029541340801202145,0.7576582709326072
262,0.0029541340801202145,0.7586793737236215
263,0.002988285919196749,0.7586793737236215
264,0.002988285919196749,0.7590197413206263
265,0.0030053618387350157,0.7590197413206263
266,0.0030053618387350157,0.7593601089176311
267,0.003022437758273283,0.7593601089176311
268,0.003022437758273283,0.7600408441116405
269,0.00303951367781155,0.7600408441116405
270,0.00303951367781155,0.7610619469026548
271,0.0030565895973498174,0.7610619469026548
272,0.0030565895973498174,0.7617426820966644
273,0.0030736655168880846,0.7617426820966644
274,0.0030736655168880846,0.7627637848876787
275,0.0030907414364263514,0.7627637848876787
276,0.0030907414364263514,0.763784887678693
277,0.0031078173559646186,0.763784887678693
278,0.0031078173559646186,0.765146358066712
279,0.003141969195041153,0.765146358066712
280,0.003141969195041153,0.7654867256637168
281,0.0031931969536559543,0.7654867256637168
282,0.0031931969536559543,0.7658270932607216
283,0.0032273487927324887,0.7658270932607216
284,0.0032273487927324887,0.7661674608577264
285,0.003244424712270756,0.7661674608577264
286,0.003244424712270756,0.7665078284547311
287,0.0032615006318090227,0.7665078284547311
288,0.0032615006318090227,0.7671885636487407
289,0.00327857655134729,0.7671885636487407
290,0.00327857655134729,0.7675289312457454
291,0.0033298043099620916,0.7675289312457454
292,0.0033298043099620916,0.768209666439755
293,0.0033468802295003584,0.768209666439755
294,0.0033468802295003584,0.7685500340367597
295,0.003381032068576893,0.7685500340367597
296,0.003381032068576893,0.769571136827774
297,0.00339810798811516,0.769571136827774
298,0.00339810798811516,0.7699115044247787
299,0.0034151839076534273,0.7699115044247787
300,0.0034151839076534273,0.7712729748127978
301,0.0034322598271916945,0.7712729748127978
302,0.0034322598271916945,0.7716133424098026
303,0.0034834875858064957,0.7716133424098026
304,0.0034834875858064957,0.7719537100068073
305,0.003500563505344763,0.7719537100068073
306,0.003500563505344763,0.773995915588836
307,0.00351763942488303,0.773995915588836
308,0.00351763942488303,0.7746766507828454
309,0.0035859431030360986,0.7746766507828454
310,0.0035859431030360986,0.7750170183798503
311,0.003603019022574366,0.7750170183798503
312,0.003603019022574366,0.775357385976855
313,0.0036200949421126326,0.775357385976855
314,0.0036200949421126326,0.7760381211708646
315,0.0036371708616509,0.7760381211708646
316,0.0036371708616509,0.7770592239618789
317,0.003654246781189167,0.7770592239618789
318,0.003654246781189167,0.7773995915588836
319,0.0037054745398039683,0.7773995915588836
320,0.0037054745398039683,0.7780803267528931
321,0.0037225504593422355,0.7780803267528931
322,0.0037225504593422355,0.779782164737917
323,0.00375670229841877,0.779782164737917
324,0.00375670229841877,0.7801225323349217
325,0.003790854137495304,0.7801225323349217
326,0.003790854137495304,0.781143635125936
327,0.0038420818961101056,0.781143635125936
328,0.0038420818961101056,0.782505105513955
329,0.0038762337351866396,0.782505105513955
330,0.0038762337351866396,0.7831858407079646
331,0.003893309654724907,0.7831858407079646
332,0.003893309654724907,0.7838665759019742
333,0.003910385574263174,0.7838665759019742
334,0.003910385574263174,0.7842069434989789
335,0.003927461493801441,0.7842069434989789
336,0.003927461493801441,0.7848876786929885
337,0.0039445374133397085,0.7848876786929885
338,0.0039445374133397085,0.7859087814840027
339,0.003978689252416243,0.7859087814840027
340,0.003978689252416243,0.7865895166780122
341,0.00399576517195451,0.7865895166780122
342,0.00399576517195451,0.7879509870660313
343,0.0040128410914927765,0.7879509870660313
344,0.0040128410914927765,0.7886317222600409
345,0.004046992930569311,0.7886317222600409
346,0.004046992930569311,0.7889720898570456
347,0.004064068850107579,0.7889720898570456
348,0.004064068850107579,0.7893124574540503
349,0.004081144769645845,0.7893124574540503
350,0.004081144769645845,0.7896528250510552
351,0.004132372528260647,0.7896528250510552
352,0.004132372528260647,0.7903335602450646
353,0.004166524367337181,0.7903335602450646
354,0.004166524367337181,0.7923757658270932
355,0.0042006762064137155,0.7923757658270932
356,0.0042006762064137155,0.7930565010211028
357,0.00423482804549025,0.7930565010211028
358,0.00423482804549025,0.7933968686181075
359,0.0042689798845667835,0.7933968686181075
360,0.0042689798845667835,0.7937372362151123
361,0.004303131723643318,0.7937372362151123
362,0.004303131723643318,0.7950987066031314
363,0.004320207643181586,0.7950987066031314
364,0.004320207643181586,0.7954390742001362
365,0.004337283562719852,0.7954390742001362
366,0.004337283562719852,0.7961198093941457
367,0.004371435401796387,0.7961198093941457
368,0.004371435401796387,0.7968005445881552
369,0.004388511321334654,0.7968005445881552
370,0.004388511321334654,0.7971409121851599
371,0.004405587240872921,0.7971409121851599
372,0.004405587240872921,0.7981620149761742
373,0.004422663160411188,0.7981620149761742
374,0.004422663160411188,0.7985023825731791
375,0.004439739079949455,0.7985023825731791
376,0.004439739079949455,0.7988427501701838
377,0.0044568149994877225,0.7988427501701838
378,0.0044568149994877225,0.7995234853641934
379,0.004473890919025989,0.7995234853641934
380,0.004473890919025989,0.7998638529611981
381,0.004542194597179058,0.7998638529611981
382,0.004542194597179058,0.8002042205582028
383,0.004559270516717325,0.8002042205582028
384,0.004559270516717325,0.8005445881552076
385,0.0045934223557938594,0.8005445881552076
386,0.0045934223557938594,0.8008849557522124
387,0.004610498275332126,0.8008849557522124
388,0.004610498275332126,0.8012253233492171
389,0.004627574194870394,0.8012253233492171
390,0.004627574194870394,0.8019060585432267
391,0.0047129537925617295,0.8019060585432267
392,0.0047129537925617295,0.8039482641252553
393,0.004747105631638264,0.8039482641252553
394,0.004747105631638264,0.8046289993192648
395,0.004798333390253065,0.8046289993192648
396,0.004798333390253065,0.8049693669162695
397,0.004815409309791332,0.8049693669162695
398,0.004815409309791332,0.8056501021102791
399,0.004866637068406134,0.8056501021102791
400,0.004866637068406134,0.8063308373042887
401,0.004883712987944401,0.8063308373042887
402,0.004883712987944401,0.8076923076923077
403,0.004917864827020935,0.8076923076923077
404,0.004917864827020935,0.8080326752893124
405,0.004986168505174003,0.8080326752893124
406,0.004986168505174003,0.8083730428863172
407,0.005003244424712271,0.8083730428863172
408,0.005003244424712271,0.8093941456773315
409,0.0050373962637888054,0.8093941456773315
410,0.0050373962637888054,0.8097345132743363
411,0.005122775861480141,0.8097345132743363
412,0.005122775861480141,0.810074880871341
413,0.005139851781018408,0.810074880871341
414,0.005139851781018408,0.8104152484683458
415,0.005156927700556675,0.8104152484683458
416,0.005156927700556675,0.8110959836623554
417,0.005208155459171477,0.8110959836623554
418,0.005208155459171477,0.8117767188563648
419,0.005225231378709744,0.8117767188563648
420,0.005225231378709744,0.8121170864533697
421,0.00524230729824801,0.8121170864533697
422,0.00524230729824801,0.8127978216473791
423,0.005276459137324545,0.8127978216473791
424,0.005276459137324545,0.8134785568413887
425,0.0052935350568628125,0.8134785568413887
426,0.0052935350568628125,0.8138189244383934
427,0.005327686895939346,0.8138189244383934
428,0.005327686895939346,0.8141592920353983
429,0.005413066493630682,0.8141592920353983
430,0.005413066493630682,0.814499659632403
431,0.005447218332707216,0.814499659632403
432,0.005447218332707216,0.815861130020422
433,0.005481370171783751,0.815861130020422
434,0.005481370171783751,0.8168822328114363
435,0.005498446091322017,0.8168822328114363
436,0.005498446091322017,0.8172226004084411
437,0.005532597930398552,0.8172226004084411
438,0.005532597930398552,0.8175629680054459
439,0.0055496738499368195,0.8175629680054459
440,0.0055496738499368195,0.8179033356024507
441,0.005600901608551621,0.8179033356024507
442,0.005600901608551621,0.818924438393465
443,0.005635053447628155,0.818924438393465
444,0.005635053447628155,0.8192648059904697
445,0.005652129367166422,0.8192648059904697
446,0.005652129367166422,0.8196051735874744
447,0.005669205286704689,0.8196051735874744
448,0.005669205286704689,0.8199455411844793
449,0.005720433045319491,0.8199455411844793
450,0.005720433045319491,0.820285908781484
451,0.005788736723472559,0.820285908781484
452,0.005788736723472559,0.8206262763784887
453,0.005822888562549093,0.8206262763784887
454,0.005822888562549093,0.821647379169503
455,0.0058741163211638945,0.821647379169503
456,0.0058741163211638945,0.8223281143635126
457,0.005925344079778696,0.8223281143635126
458,0.005925344079778696,0.8226684819605173
459,0.005976571838393498,0.8226684819605173
460,0.005976571838393498,0.8230088495575221
461,0.0060790273556231,0.8230088495575221
462,0.0060790273556231,0.8233492171545269
463,0.006113179194699635,0.8233492171545269
464,0.006113179194699635,0.8240299523485364
465,0.006266862470544038,0.8240299523485364
466,0.006266862470544038,0.824710687542546
467,0.006283938390082306,0.824710687542546
468,0.006283938390082306,0.826072157930565
469,0.006301014309620573,0.826072157930565
470,0.006301014309620573,0.8264125255275698
471,0.0063180902291588405,0.8264125255275698
472,0.0063180902291588405,0.8267528931245746
473,0.006352242068235374,0.8267528931245746
474,0.006352242068235374,0.827433628318584
475,0.006488849424541512,0.827433628318584
476,0.006488849424541512,0.8284547311095983
477,0.006540077183156313,0.8284547311095983
478,0.006540077183156313,0.8287950987066032
479,0.0065742290222328475,0.8287950987066032
480,0.0065742290222328475,0.8291354663036079
481,0.006608380861309381,0.8291354663036079
482,0.006608380861309381,0.8294758339006126
483,0.0066425327003859155,0.8294758339006126
484,0.0066425327003859155,0.8304969366916269
485,0.006659608619924183,0.8304969366916269
486,0.006659608619924183,0.8311776718856365
487,0.00667668453946245,0.8311776718856365
488,0.00667668453946245,0.8315180394826412
489,0.006744988217615519,0.8315180394826412
490,0.006744988217615519,0.831858407079646
491,0.006762064137153786,0.831858407079646
492,0.006762064137153786,0.8325391422736556
493,0.0068303678153068545,0.8325391422736556
494,0.0068303678153068545,0.8332198774676651
495,0.006881595573921656,0.8332198774676651
496,0.006881595573921656,0.8342409802586793
497,0.00691574741299819,0.8342409802586793
498,0.00691574741299819,0.8349217154526889
499,0.007069430688842594,0.8349217154526889
500,0.007069430688842594,0.8352620830496936
501,0.007120658447457396,0.8352620830496936
502,0.007120658447457396,0.8356024506466985
503,0.007137734366995663,0.8356024506466985
504,0.007137734366995663,0.8362831858407079
505,0.007171886206072197,0.8362831858407079
506,0.007171886206072197,0.8366235534377128
507,0.007257265803763533,0.8366235534377128
508,0.007257265803763533,0.8376446562287271
509,0.0072743417233018,0.8376446562287271
510,0.0072743417233018,0.8379850238257318
511,0.007359721320993135,0.8379850238257318
512,0.007359721320993135,0.8383253914227365
513,0.007376797240531403,0.8383253914227365
514,0.007376797240531403,0.8386657590197413
515,0.007530480516375807,0.8386657590197413
516,0.007530480516375807,0.8390061266167461
517,0.007581708274990608,0.8390061266167461
518,0.007581708274990608,0.8396868618107556
519,0.00763293603360541,0.8396868618107556
520,0.00763293603360541,0.8400272294077604
521,0.007650011953143677,0.8400272294077604
522,0.007650011953143677,0.8407079646017699
523,0.007667087872681944,0.8407079646017699
524,0.007667087872681944,0.8410483321987747
525,0.007718315631296746,0.8410483321987747
526,0.007718315631296746,0.8424098025867938
527,0.0077353915508350125,0.8424098025867938
528,0.0077353915508350125,0.8430905377808032
529,0.007752467470373279,0.8430905377808032
530,0.007752467470373279,0.8441116405718175
531,0.007837847068064615,0.8441116405718175
532,0.007837847068064615,0.8451327433628318
533,0.007889074826679417,0.8451327433628318
534,0.007889074826679417,0.8458134785568414
535,0.007906150746217684,0.8458134785568414
536,0.007906150746217684,0.84785568413887
537,0.008111061780676889,0.84785568413887
538,0.008111061780676889,0.8485364193328795
539,0.008145213619753424,0.8485364193328795
540,0.008145213619753424,0.8488767869298843
541,0.008264745056521293,0.8488767869298843
542,0.008264745056521293,0.8498978897208985
543,0.00828182097605956,0.8498978897208985
544,0.00828182097605956,0.8505786249149081
545,0.008298896895597829,0.8505786249149081
546,0.008298896895597829,0.8515997277059224
547,0.008350124654212629,0.8515997277059224
548,0.008350124654212629,0.852280462899932
549,0.008367200573750896,0.852280462899932
550,0.008367200573750896,0.8526208304969367
551,0.008418428332365698,0.8526208304969367
552,0.008418428332365698,0.8529611980939414
553,0.0085208838495953,0.8529611980939414
554,0.0085208838495953,0.8533015656909462
555,0.008606263447286636,0.8533015656909462
556,0.008606263447286636,0.85500340367597
557,0.008623339366824903,0.85500340367597
558,0.008623339366824903,0.8570456092579987
559,0.008657491205901438,0.8570456092579987
560,0.008657491205901438,0.8573859768550034
561,0.008691643044977972,0.8573859768550034
562,0.008691643044977972,0.8577263444520081
563,0.008708718964516238,0.8577263444520081
564,0.008708718964516238,0.858066712049013
565,0.008742870803592774,0.858066712049013
566,0.008742870803592774,0.8584070796460177
567,0.00875994672313104,0.8584070796460177
568,0.00875994672313104,0.8590878148400273
569,0.008777022642669307,0.8590878148400273
570,0.008777022642669307,0.859428182437032
571,0.008794098562207574,0.859428182437032
572,0.008794098562207574,0.8597685500340367
573,0.008862402240360643,0.8597685500340367
574,0.008862402240360643,0.8601089176310415
575,0.00887947815989891,0.8601089176310415
576,0.00887947815989891,0.860789652825051
577,0.008896554079437178,0.860789652825051
578,0.008896554079437178,0.8614703880190606
579,0.008981933677128514,0.8614703880190606
580,0.008981933677128514,0.8618107556160653
581,0.009016085516205048,0.8618107556160653
582,0.009016085516205048,0.8621511232130701
583,0.00911854103343465,0.8621511232130701
584,0.00911854103343465,0.8624914908100749
585,0.009238072470202521,0.8624914908100749
586,0.009238072470202521,0.8628318584070797
587,0.009289300228817321,0.8628318584070797
588,0.009289300228817321,0.8631722260040844
589,0.009306376148355588,0.8631722260040844
590,0.009306376148355588,0.8635125936010892
591,0.009511287182814795,0.8635125936010892
592,0.009511287182814795,0.863852961198094
593,0.009579590860967864,0.863852961198094
594,0.009579590860967864,0.8645336963921034
595,0.009613742700044397,0.8645336963921034
596,0.009613742700044397,0.8648740639891083
597,0.009682046378197466,0.8648740639891083
598,0.009682046378197466,0.865214431586113
599,0.009733274136812268,0.865214431586113
600,0.009733274136812268,0.8655547991831177
601,0.009767425975888802,0.8655547991831177
602,0.009767425975888802,0.8658951667801226
603,0.010006488849424542,0.8658951667801226
604,0.010006488849424542,0.866575901974132
605,0.010023564768962809,0.866575901974132
606,0.010023564768962809,0.8669162695711369
607,0.010057716608039342,0.8669162695711369
608,0.010057716608039342,0.8672566371681416
609,0.010126020286192411,0.8672566371681416
610,0.010126020286192411,0.8675970047651463
611,0.010143096205730678,0.8675970047651463
612,0.010143096205730678,0.8679373723621511
613,0.010177248044807213,0.8679373723621511
614,0.010177248044807213,0.8682777399591559
615,0.01019432396434548,0.8682777399591559
616,0.01019432396434548,0.8686181075561606
617,0.010245551722960282,0.8686181075561606
618,0.010245551722960282,0.869639210347175
619,0.01043338683788122,0.869639210347175
620,0.01043338683788122,0.8699795779441797
621,0.01048461459649602,0.8699795779441797
622,0.01048461459649602,0.8703199455411845
623,0.010535842355110823,0.8703199455411845
624,0.010535842355110823,0.8706603131381893
625,0.010569994194187356,0.8706603131381893
626,0.010569994194187356,0.871000680735194
627,0.010587070113725625,0.871000680735194
628,0.010587070113725625,0.8716814159292036
629,0.01067244971141696,0.8716814159292036
630,0.01067244971141696,0.8720217835262083
631,0.010723677470031761,0.8720217835262083
632,0.010723677470031761,0.8730428863172226
633,0.010774905228646563,0.8730428863172226
634,0.010774905228646563,0.8737236215112322
635,0.010809057067723097,0.8737236215112322
636,0.010809057067723097,0.8740639891082369
637,0.010860284826337899,0.8740639891082369
638,0.010860284826337899,0.8744043567052416
639,0.010996892182644035,0.8744043567052416
640,0.010996892182644035,0.8750850918992512
641,0.011099347699873639,0.8750850918992512
642,0.011099347699873639,0.8754254594962559
643,0.011184727297564975,0.8754254594962559
644,0.011184727297564975,0.8757658270932607
645,0.011304258734332844,0.8757658270932607
646,0.011304258734332844,0.8761061946902655
647,0.011338410573409377,0.8761061946902655
648,0.011338410573409377,0.8764465622872702
649,0.01138963833202418,0.8764465622872702
650,0.01138963833202418,0.876786929884275
651,0.011423790171100713,0.876786929884275
652,0.011423790171100713,0.8771272974812798
653,0.011440866090638982,0.8771272974812798
654,0.011440866090638982,0.8778080326752893
655,0.011526245688330317,0.8778080326752893
656,0.011526245688330317,0.8784887678692989
657,0.01156039752740685,0.8784887678692989
658,0.01156039752740685,0.8791695030633083
659,0.01162870120555992,0.8791695030633083
660,0.01162870120555992,0.8795098706603132
661,0.01167992896417472,0.8795098706603132
662,0.01167992896417472,0.8798502382573179
663,0.011714080803251255,0.8798502382573179
664,0.011714080803251255,0.8801906058543226
665,0.011731156722789522,0.8801906058543226
666,0.011731156722789522,0.8805309734513275
667,0.011850688159557391,0.8805309734513275
668,0.011850688159557391,0.8808713410483322
669,0.011901915918172194,0.8808713410483322
670,0.011901915918172194,0.8812117086453369
671,0.011936067757248727,0.8812117086453369
672,0.011936067757248727,0.8815520762423418
673,0.012072675113554865,0.8815520762423418
674,0.012072675113554865,0.8822328114363512
675,0.012106826952631398,0.8822328114363512
676,0.012106826952631398,0.882573179033356
677,0.012294662067552338,0.882573179033356
678,0.012294662067552338,0.8829135466303608
679,0.01246542126293501,0.8829135466303608
680,0.01246542126293501,0.8832539142273655
681,0.012482497182473276,0.8832539142273655
682,0.012482497182473276,0.8835942818243703
683,0.012499573102011543,0.8835942818243703
684,0.012499573102011543,0.8839346494213751
685,0.012584952699702879,0.8839346494213751
686,0.012584952699702879,0.8842750170183798
687,0.012653256377855948,0.8842750170183798
688,0.012653256377855948,0.8846153846153846
689,0.012806939653700352,0.8846153846153846
690,0.012806939653700352,0.8849557522123894
691,0.01282401557323862,0.8849557522123894
692,0.01282401557323862,0.8859768550034037
693,0.012841091492776886,0.8859768550034037
694,0.012841091492776886,0.8863172226004085
695,0.012858167412315153,0.8863172226004085
696,0.012858167412315153,0.8866575901974132
697,0.012960622929544755,0.8866575901974132
698,0.012960622929544755,0.8869979577944179
699,0.01304600252723609,0.8869979577944179
700,0.01304600252723609,0.8873383253914228
701,0.013165533964003962,0.8873383253914228
702,0.013165533964003962,0.8876786929884275
703,0.013267989481233564,0.8876786929884275
704,0.013267989481233564,0.8880190605854322
705,0.013302141320310098,0.8880190605854322
706,0.013302141320310098,0.8883594281824371
707,0.013336293159386633,0.8883594281824371
708,0.013336293159386633,0.8886997957794418
709,0.013421672757077969,0.8886997957794418
710,0.013421672757077969,0.8890401633764465
711,0.013455824596154502,0.8890401633764465
712,0.013455824596154502,0.8893805309734514
713,0.01347290051569277,0.8893805309734514
714,0.01347290051569277,0.8897208985704561
715,0.013507052354769305,0.8897208985704561
716,0.013507052354769305,0.8900612661674608
717,0.013626583791537174,0.8900612661674608
718,0.013626583791537174,0.8904016337644656
719,0.01371196338922851,0.8904016337644656
720,0.01371196338922851,0.8907420013614704
721,0.013814418906458114,0.8907420013614704
722,0.013814418906458114,0.8910823689584751
723,0.013848570745534647,0.8910823689584751
724,0.013848570745534647,0.8914227365554799
725,0.013916874423687716,0.8914227365554799
726,0.013916874423687716,0.8917631041524847
727,0.013933950343225983,0.8917631041524847
728,0.013933950343225983,0.8921034717494895
729,0.014053481779993852,0.8921034717494895
730,0.014053481779993852,0.8924438393464942
731,0.014173013216761723,0.8924438393464942
732,0.014173013216761723,0.892784206943499
733,0.014207165055838257,0.892784206943499
734,0.014207165055838257,0.8931245745405038
735,0.01442915200983573,0.8931245745405038
736,0.01442915200983573,0.8934649421375085
737,0.014446227929373997,0.8934649421375085
738,0.014446227929373997,0.8938053097345132
739,0.014531607527065333,0.8938053097345132
740,0.014531607527065333,0.8941456773315181
741,0.0145486834466036,0.8941456773315181
742,0.0145486834466036,0.8944860449285228
743,0.014565759366141866,0.8944860449285228
744,0.014565759366141866,0.8948264125255275
745,0.014651138963833202,0.8948264125255275
746,0.014651138963833202,0.8958475153165418
747,0.014685290802909737,0.8958475153165418
748,0.014685290802909737,0.8965282505105514
749,0.01471944264198627,0.8965282505105514
750,0.01471944264198627,0.8968686181075561
751,0.014958505515522011,0.8968686181075561
752,0.014958505515522011,0.897208985704561
753,0.01502680919367508,0.897208985704561
754,0.01502680919367508,0.8978897208985704
755,0.015112188791366415,0.8978897208985704
756,0.015112188791366415,0.8982300884955752
757,0.015163416549981216,0.8982300884955752
758,0.015163416549981216,0.8989108236895847
759,0.015231720228134285,0.8989108236895847
760,0.015231720228134285,0.8992511912865895
761,0.015282947986749087,0.8992511912865895
762,0.015282947986749087,0.899931926480599
763,0.015300023906287354,0.899931926480599
764,0.015300023906287354,0.9002722940776038
765,0.015351251664902156,0.9002722940776038
766,0.015351251664902156,0.9016337644656228
767,0.015402479423516956,0.9016337644656228
768,0.015402479423516956,0.9026548672566371
769,0.015419555343055223,0.9026548672566371
770,0.015419555343055223,0.902995234853642
771,0.015436631262593491,0.902995234853642
772,0.015436631262593491,0.9033356024506467
773,0.015504934940746559,0.9033356024506467
774,0.015504934940746559,0.9036759700476514
775,0.015522010860284827,0.9036759700476514
776,0.015522010860284827,0.904356705241661
777,0.01555616269936136,0.904356705241661
778,0.01555616269936136,0.9046970728386657
779,0.015641542297052696,0.9046970728386657
780,0.015641542297052696,0.9050374404356705
781,0.015658618216590963,0.9050374404356705
782,0.015658618216590963,0.9053778080326753
783,0.01567569413612923,0.9053778080326753
784,0.01567569413612923,0.9060585432266848
785,0.015692770055667497,0.9060585432266848
786,0.015692770055667497,0.9063989108236896
787,0.015761073733820567,0.9063989108236896
788,0.015761073733820567,0.9067392784206944
789,0.015812301492435368,0.9067392784206944
790,0.015812301492435368,0.9070796460176991
791,0.015897681090126705,0.9070796460176991
792,0.015897681090126705,0.9074200136147039
793,0.015914757009664972,0.9074200136147039
794,0.015914757009664972,0.9077603812117087
795,0.015965984768279772,0.9077603812117087
796,0.015965984768279772,0.9081007488087134
797,0.016239199480892048,0.9081007488087134
798,0.016239199480892048,0.9084411164057182
799,0.01627335131996858,0.9084411164057182
800,0.01627335131996858,0.908781484002723
801,0.01632457907858338,0.908781484002723
802,0.01632457907858338,0.9091218515997277
803,0.01634165499812165,0.9091218515997277
804,0.01634165499812165,0.9098025867937373
805,0.016358730917659915,0.9098025867937373
806,0.016358730917659915,0.910142954390742
807,0.016495338273966053,0.910142954390742
808,0.016495338273966053,0.9104833219877467
809,0.016546566032580853,0.9104833219877467
810,0.016546566032580853,0.9108236895847516
811,0.016597793791195657,0.9108236895847516
812,0.016597793791195657,0.9111640571817563
813,0.01675147706704006,0.9111640571817563
814,0.01675147706704006,0.911504424778761
815,0.016888084423346196,0.911504424778761
816,0.016888084423346196,0.9118447923757659
817,0.01717837505549674,0.9118447923757659
818,0.01717837505549674,0.9121851599727706
819,0.017263754653188076,0.9121851599727706
820,0.017263754653188076,0.9125255275697753
821,0.017366210170417676,0.9125255275697753
822,0.017366210170417676,0.9135466303607896
823,0.01740036200949421,0.9135466303607896
824,0.01740036200949421,0.9138869979577944
825,0.01751989344626208,0.9138869979577944
826,0.01751989344626208,0.9142273655547992
827,0.01760527304395342,0.9142273655547992
828,0.01760527304395342,0.914567733151804
829,0.01801509511287183,0.914567733151804
830,0.01801509511287183,0.9149081007488087
831,0.018032171032410095,0.9149081007488087
832,0.018032171032410095,0.9152484683458135
833,0.0182370820668693,0.9152484683458135
834,0.0182370820668693,0.9155888359428183
835,0.018322461664560637,0.9155888359428183
836,0.018322461664560637,0.915929203539823
837,0.01835661350363717,0.915929203539823
838,0.01835661350363717,0.9162695711368277
839,0.01840784126225197,0.9162695711368277
840,0.01840784126225197,0.9166099387338326
841,0.01849322085994331,0.9166099387338326
842,0.01849322085994331,0.917290673927842
843,0.018578600457634643,0.917290673927842
844,0.018578600457634643,0.9176310415248469
845,0.018612752296711176,0.9176310415248469
846,0.018612752296711176,0.9179714091218516
847,0.018698131894402514,0.9179714091218516
848,0.018698131894402514,0.9183117767188563
849,0.01871520781394078,0.9183117767188563
850,0.01871520781394078,0.9186521443158612
851,0.018749359653017314,0.9186521443158612
852,0.018749359653017314,0.9189925119128659
853,0.018851815170246918,0.9189925119128659
854,0.018851815170246918,0.9193328795098706
855,0.019005498446091323,0.9193328795098706
856,0.019005498446091323,0.9196732471068755
857,0.019039650285167856,0.9196732471068755
858,0.019039650285167856,0.9200136147038802
859,0.019090878043782657,0.9200136147038802
860,0.019090878043782657,0.9203539823008849
861,0.01914210580239746,0.9203539823008849
862,0.01914210580239746,0.9210347174948945
863,0.019466548273624536,0.9210347174948945
864,0.019466548273624536,0.9213750850918992
865,0.019534851951777604,0.9213750850918992
866,0.019534851951777604,0.921715452688904
867,0.019569003790854137,0.921715452688904
868,0.019569003790854137,0.9220558202859088
869,0.019586079710392404,0.9220558202859088
870,0.019586079710392404,0.9223961878829136
871,0.01972268706669854,0.9223961878829136
872,0.01972268706669854,0.9227365554799183
873,0.019756838905775075,0.9227365554799183
874,0.019756838905775075,0.9230769230769231
875,0.020047129537925618,0.9230769230769231
876,0.020047129537925618,0.9234172906739279
877,0.02016666097469349,0.9234172906739279
878,0.02016666097469349,0.9240980258679373
879,0.020286192411461356,0.9240980258679373
880,0.020286192411461356,0.9244383934649422
881,0.020491103445920564,0.9244383934649422
882,0.020491103445920564,0.9247787610619469
883,0.02050817936545883,0.9247787610619469
884,0.02050817936545883,0.9251191286589516
885,0.020525255284997098,0.9251191286589516
886,0.020525255284997098,0.9254594962559565
887,0.020781394078071103,0.9254594962559565
888,0.020781394078071103,0.9257998638529612
889,0.021259519825142584,0.9257998638529612
890,0.021259519825142584,0.9261402314499659
891,0.021549810457293126,0.9261402314499659
892,0.021549810457293126,0.9264805990469708
893,0.02180594925036713,0.9264805990469708
894,0.02180594925036713,0.9268209666439755
895,0.021840101089443665,0.9268209666439755
896,0.021840101089443665,0.9271613342409802
897,0.021959632526211536,0.9271613342409802
898,0.021959632526211536,0.927501701837985
899,0.022010860284826336,0.927501701837985
900,0.022010860284826336,0.9278420694349898
901,0.02206208804344114,0.9278420694349898
902,0.02206208804344114,0.9281824370319945
903,0.02236945459512995,0.9281824370319945
904,0.02236945459512995,0.9285228046289993
905,0.022403606434206483,0.9285228046289993
906,0.022403606434206483,0.9288631722260041
907,0.022437758273283016,0.9288631722260041
908,0.022437758273283016,0.9292035398230089
909,0.02269389706635702,0.9292035398230089
910,0.02269389706635702,0.9295439074200136
911,0.023240326491581573,0.9295439074200136
912,0.023240326491581573,0.9298842750170184
913,0.02342816160650251,0.9298842750170184
914,0.02342816160650251,0.9305650102110279
915,0.02347938936511731,0.9305650102110279
916,0.02347938936511731,0.9309053778080327
917,0.023803831836344387,0.9309053778080327
918,0.023803831836344387,0.9312457454050375
919,0.023855059594959187,0.9312457454050375
920,0.023855059594959187,0.9315861130020422
921,0.024059970629418396,0.9315861130020422
922,0.024059970629418396,0.9319264805990469
923,0.024162426146647997,0.9319264805990469
924,0.024162426146647997,0.9322668481960518
925,0.024179502066186263,0.9322668481960518
926,0.024179502066186263,0.9326072157930565
927,0.024247805744339334,0.9326072157930565
928,0.024247805744339334,0.9329475833900612
929,0.02474300741094908,0.9329475833900612
930,0.02474300741094908,0.9332879509870661
931,0.024828387008640415,0.9332879509870661
932,0.024828387008640415,0.9336283185840708
933,0.024845462928178682,0.9336283185840708
934,0.024845462928178682,0.9339686861810755
935,0.024896690686793482,0.9339686861810755
936,0.024896690686793482,0.9343090537780804
937,0.025221133158020558,0.9343090537780804
938,0.025221133158020558,0.9346494213750851
939,0.025357740514326696,0.9346494213750851
940,0.025357740514326696,0.9349897889720898
941,0.0254601960315563,0.9349897889720898
942,0.0254601960315563,0.9353301565690946
943,0.025545575629247634,0.9353301565690946
944,0.025545575629247634,0.9356705241660994
945,0.025613879307400705,0.9356705241660994
946,0.025613879307400705,0.9360108917631041
947,0.02563095522693897,0.9360108917631041
948,0.02563095522693897,0.9363512593601089
949,0.02587001810047471,0.9363512593601089
950,0.02587001810047471,0.9366916269571137
951,0.026279840169393123,0.9366916269571137
952,0.026279840169393123,0.9370319945541185
953,0.027441002697995286,0.9370319945541185
954,0.027441002697995286,0.9373723621511232
955,0.027611761893377957,0.9373723621511232
956,0.027611761893377957,0.937712729748128
957,0.027645913732454494,0.937712729748128
958,0.027645913732454494,0.9380530973451328
959,0.027816672927837165,0.9380530973451328
960,0.027816672927837165,0.9383934649421375
961,0.02797035620368157,0.9383934649421375
962,0.02797035620368157,0.9387338325391422
963,0.027987432123219837,0.9387338325391422
964,0.027987432123219837,0.9390742001361471
965,0.02820941907721731,0.9390742001361471
966,0.02820941907721731,0.9394145677331518
967,0.028704620743827056,0.9394145677331518
968,0.028704620743827056,0.9397549353301565
969,0.029251050169051603,0.9397549353301565
970,0.029251050169051603,0.9400953029271614
971,0.02933642976674294,0.9400953029271614
972,0.02933642976674294,0.9404356705241661
973,0.02993408695058229,0.9404356705241661
974,0.02993408695058229,0.9407760381211708
975,0.030036542467811893,0.9407760381211708
976,0.030036542467811893,0.9411164057181757
977,0.03005361838735016,0.9411164057181757
978,0.03005361838735016,0.9414567733151804
979,0.030138997985041494,0.9414567733151804
980,0.030138997985041494,0.9417971409121851
981,0.030207301663194564,0.9417971409121851
982,0.030207301663194564,0.94213750850919
983,0.030309757180424165,0.94213750850919
984,0.030309757180424165,0.9424778761061947
985,0.0303439090195007,0.9424778761061947
986,0.0303439090195007,0.9428182437031994
987,0.030736655168880845,0.9428182437031994
988,0.030736655168880845,0.9431586113002042
989,0.031402616030873264,0.9431586113002042
990,0.031402616030873264,0.943498978897209
991,0.0314879956285646,0.943498978897209
992,0.0314879956285646,0.9438393464942137
993,0.03165875482394727,0.9438393464942137
994,0.03165875482394727,0.9441797140912185
995,0.0316929066630238,0.9441797140912185
996,0.0316929066630238,0.9445200816882233
997,0.03186366585840648,0.9445200816882233
998,0.03186366585840648,0.944860449285228
999,0.03201734913425088,0.944860449285228
1000,0.03201734913425088,0.9452008168822328
1001,0.03230763976640142,0.9452008168822328
1002,0.03230763976640142,0.9455411844792376
1003,0.032341791605477954,0.9455411844792376
1004,0.032341791605477954,0.9458815520762424
1005,0.032444247122707555,0.9458815520762424
1006,0.032444247122707555,0.9462219196732471
1007,0.03271746183531983,0.9462219196732471
1008,0.03271746183531983,0.9465622872702518
1009,0.032871145111164235,0.9465622872702518
1010,0.032871145111164235,0.9469026548672567
1011,0.03326389126054438,0.9469026548672567
1012,0.03326389126054438,0.9472430224642614
1013,0.033298043099620915,0.9472430224642614
1014,0.033298043099620915,0.9475833900612661
1015,0.03334927085823572,0.9475833900612661
1016,0.03334927085823572,0.947923757658271
1017,0.03379324476623066,0.947923757658271
1018,0.03379324476623066,0.9482641252552757
1019,0.033844472524845466,0.9482641252552757
1020,0.033844472524845466,0.9486044928522804
1021,0.03422014275468734,0.9486044928522804
1022,0.03422014275468734,0.9489448604492853
1023,0.03432259827191694,0.9489448604492853
1024,0.03432259827191694,0.94928522804629
1025,0.034442129708684814,0.94928522804629
1026,0.034442129708684814,0.9496255956432947
1027,0.03451043338683788,0.9496255956432947
1028,0.03451043338683788,0.9499659632402995
1029,0.03473242034083535,0.9499659632402995
1030,0.03473242034083535,0.9503063308373043
1031,0.03492025545575629,0.9503063308373043
1032,0.03492025545575629,0.950646698434309
1033,0.03536422936375124,0.950646698434309
1034,0.03536422936375124,0.9509870660313138
1035,0.035483760800519105,0.9509870660313138
1036,0.035483760800519105,0.9513274336283186
1037,0.03556914039821044,0.9513274336283186
1038,0.03556914039821044,0.9516678012253234
1039,0.035791127352207915,0.9516678012253234
1040,0.035791127352207915,0.9520081688223281
1041,0.036013114306205386,0.9520081688223281
1042,0.036013114306205386,0.9523485364193329
1043,0.036218025340664595,0.9523485364193329
1044,0.036218025340664595,0.9526889040163377
1045,0.03731088419111369,0.9526889040163377
1046,0.03731088419111369,0.9530292716133424
1047,0.037464567466958094,0.9530292716133424
1048,0.037464567466958094,0.9533696392103471
1049,0.037601174823264236,0.9533696392103471
1050,0.037601174823264236,0.953710006807352
1051,0.03816468016802705,0.953710006807352
1052,0.03816468016802705,0.9540503744043567
1053,0.038318363443871455,0.9540503744043567
1054,0.038318363443871455,0.9543907420013614
1055,0.038420818961101055,0.9543907420013614
1056,0.038420818961101055,0.9547311095983663
1057,0.038437894880639326,0.9547311095983663
1058,0.038437894880639326,0.955071477195371
1059,0.03845497080017759,0.955071477195371
1060,0.03845497080017759,0.9554118447923757
1061,0.03859157815648372,0.9554118447923757
1062,0.03859157815648372,0.9557522123893806
1063,0.03864280591509853,0.9557522123893806
1064,0.03864280591509853,0.9560925799863853
1065,0.03888186878863427,0.9560925799863853
1066,0.03888186878863427,0.95643294758339
1067,0.03959905740924149,0.95643294758339
1068,0.03959905740924149,0.9567733151803949
1069,0.03973566476554762,0.9567733151803949
1070,0.03973566476554762,0.9571136827773996
1071,0.03983812028277723,0.9571136827773996
1072,0.03983812028277723,0.9574540503744043
1073,0.04023086643215737,0.9574540503744043
1074,0.04023086643215737,0.9577944179714091
1075,0.04041870154707831,0.9577944179714091
1076,0.04041870154707831,0.9581347855684139
1077,0.04069191625969058,0.9581347855684139
1078,0.04069191625969058,0.9584751531654186
1079,0.04072606809876712,0.9584751531654186
1080,0.04072606809876712,0.9588155207624234
1081,0.041033434650455926,0.9588155207624234
1082,0.041033434650455926,0.9591558883594282
1083,0.04200676206413716,0.9591558883594282
1084,0.04200676206413716,0.959496255956433
1085,0.042297052696287696,0.959496255956433
1086,0.042297052696287696,0.9598366235534377
1087,0.04284348212151225,0.9598366235534377
1088,0.04284348212151225,0.9601769911504425
1089,0.04296301355828011,0.9601769911504425
1090,0.04296301355828011,0.9605173587474473
1091,0.04337283562719853,0.9605173587474473
1092,0.04337283562719853,0.960857726344452
1093,0.043868037293808275,0.960857726344452
1094,0.043868037293808275,0.9611980939414567
1095,0.04431201120180322,0.9611980939414567
1096,0.04431201120180322,0.9615384615384616
1097,0.04482428878795123,0.9615384615384616
1098,0.04482428878795123,0.9618788291354663
1099,0.045507325569481914,0.9618788291354663
1100,0.045507325569481914,0.962219196732471
1101,0.04590007171886206,0.962219196732471
1102,0.04590007171886206,0.9625595643294759
1103,0.04627574194870394,0.9625595643294759
1104,0.04627574194870394,0.9628999319264806
1105,0.04685632321300502,0.9628999319264806
1106,0.04685632321300502,0.9632402995234853
1107,0.04706123424746422,0.9632402995234853
1108,0.04706123424746422,0.9635806671204902
1109,0.0473344489600765,0.9635806671204902
1110,0.0473344489600765,0.9639210347174949
1111,0.047436904477306106,0.9639210347174949
1112,0.047436904477306106,0.9642614023144996
1113,0.04769304327038011,0.9642614023144996
1114,0.04769304327038011,0.9649421375085092
1115,0.04777842286807145,0.9649421375085092
1116,0.04777842286807145,0.9652825051055139
1117,0.04786380246576278,0.9652825051055139
1118,0.04786380246576278,0.9656228727025187
1119,0.04839315597144906,0.9656228727025187
1120,0.04839315597144906,0.9659632402995235
1121,0.04849561148867867,0.9659632402995235
1122,0.04849561148867867,0.966643975493533
1123,0.04953724258051296,0.966643975493533
1124,0.04953724258051296,0.9669843430905378
1125,0.04999829240804617,0.9669843430905378
1126,0.04999829240804617,0.9673247106875426
1127,0.05045934223557939,0.9673247106875426
1128,0.05045934223557939,0.9676650782845473
1129,0.052115706430791296,0.9676650782845473
1130,0.052115706430791296,0.9680054458815521
1131,0.05249137666063317,0.9680054458815521
1132,0.05249137666063317,0.9686861810755616
1133,0.05484785355691404,0.9686861810755616
1134,0.05484785355691404,0.9690265486725663
1135,0.05542843482121512,0.9690265486725663
1136,0.05542843482121512,0.9693669162695712
1137,0.05568457361428913,0.9693669162695712
1138,0.05568457361428913,0.9697072838665759
1139,0.05611147160274581,0.9697072838665759
1140,0.05611147160274581,0.9700476514635806
1141,0.05635053447628155,0.9700476514635806
1142,0.05635053447628155,0.9703880190605855
1143,0.056504217752125954,0.9703880190605855
1144,0.056504217752125954,0.9707283866575902
1145,0.057545848843960246,0.9707283866575902
1146,0.057545848843960246,0.9710687542545949
1147,0.057750759878419454,0.9710687542545949
1148,0.057750759878419454,0.9714091218515998
1149,0.05810935418872306,0.9714091218515998
1150,0.05810935418872306,0.9717494894486045
1151,0.05872408729210068,0.9717494894486045
1152,0.05872408729210068,0.9720898570456092
1153,0.061097640107919814,0.9720898570456092
1154,0.061097640107919814,0.972430224642614
1155,0.06137085482053208,0.972430224642614
1156,0.06137085482053208,0.9727705922396188
1157,0.062156347119292375,0.9727705922396188
1158,0.062156347119292375,0.9731109598366235
1159,0.06222465079744544,0.9731109598366235
1160,0.06222465079744544,0.9734513274336283
1161,0.06263447286636385,0.9734513274336283
1162,0.06263447286636385,0.9737916950306331
1163,0.06324920596974147,0.9737916950306331
1164,0.06324920596974147,0.9741320626276379
1165,0.06497387384310645,0.9741320626276379
1166,0.06497387384310645,0.9744724302246426
1167,0.06519586079710392,0.9744724302246426
1168,0.06519586079710392,0.9748127978216474
1169,0.06550322734879273,0.9748127978216474
1170,0.06550322734879273,0.9751531654186522
1171,0.06652778252108876,0.9751531654186522
1172,0.06652778252108876,0.9754935330156569
1173,0.06664731395785663,0.9754935330156569
1174,0.06664731395785663,0.9758339006126616
1175,0.06721081930261945,0.9758339006126616
1176,0.06721081930261945,0.9761742682096665
1177,0.06750110993476999,0.9761742682096665
1178,0.06750110993476999,0.9768550034036759
1179,0.06751818585430826,0.9768550034036759
1180,0.06751818585430826,0.9771953710006808
1181,0.06866227246337216,0.9771953710006808
1182,0.06866227246337216,0.9775357385976855
1183,0.06900379085413749,0.9775357385976855
1184,0.06900379085413749,0.9778761061946902
1185,0.06966975171612991,0.9778761061946902
1186,0.06966975171612991,0.9782164737916951
1187,0.07173593798026023,0.9782164737916951
1188,0.07173593798026023,0.9785568413886998
1189,0.07245312660086746,0.9785568413886998
1190,0.07245312660086746,0.9788972089857045
1191,0.07313616338239814,0.9788972089857045
1192,0.07313616338239814,0.9792375765827094
1193,0.07330692257778082,0.9792375765827094
1194,0.07330692257778082,0.9795779441797141
1195,0.07334107441685735,0.9795779441797141
1196,0.07334107441685735,0.9799183117767188
1197,0.0742460981523855,0.9799183117767188
1198,0.0742460981523855,0.9802586793737236
1199,0.07453638878453604,0.9802586793737236
1200,0.07453638878453604,0.9805990469707284
1201,0.07537310884191113,0.9805990469707284
1202,0.07537310884191113,0.9809394145677331
1203,0.0763805880946689,0.9809394145677331
1204,0.0763805880946689,0.9812797821647379
1205,0.07655134729005157,0.9812797821647379
1206,0.0765854991291281,0.9812797821647379
1207,0.07692701751989345,0.9812797821647379
1208,0.07692701751989345,0.9816201497617427
1209,0.07796864861172774,0.9816201497617427
1210,0.07796864861172774,0.9819605173587475
1211,0.07899320378402377,0.9819605173587475
1212,0.07899320378402377,0.9823008849557522
1213,0.07914688705986818,0.9823008849557522
1214,0.07914688705986818,0.982641252552757
1215,0.0791810388989447,0.982641252552757
1216,0.0791810388989447,0.9829816201497618
1217,0.07938594993340391,0.9829816201497618
1218,0.07938594993340391,0.9833219877467665
1219,0.07957378504832485,0.9833219877467665
1220,0.07957378504832485,0.9836623553437712
1221,0.08088863085277143,0.9836623553437712
1222,0.08088863085277143,0.9840027229407761
1223,0.08105939004815409,0.9840027229407761
1224,0.08105939004815409,0.9843430905377808
1225,0.08107646596769236,0.9843430905377808
1226,0.08107646596769236,0.9846834581347855
1227,0.08244253953075373,0.9846834581347855
1228,0.08244253953075373,0.9850238257317904
1229,0.08587479935794542,0.9850238257317904
1230,0.08587479935794542,0.9853641933287951
1231,0.08712134148423893,0.9853641933287951
1232,0.08712134148423893,0.9857045609257998
1233,0.08771899866807828,0.9857045609257998
1234,0.08771899866807828,0.9860449285228047
1235,0.08787268194392268,0.9860449285228047
1236,0.08787268194392268,0.9863852961198094
1237,0.08795806154161402,0.9863852961198094
1238,0.08795806154161402,0.9867256637168141
1239,0.08949489430005805,0.9867256637168141
1240,0.08949489430005805,0.9870660313138189
1241,0.09284177452955841,0.9870660313138189
1242,0.09284177452955841,0.9874063989108237
1243,0.09579590860967863,0.9874063989108237
1244,0.09579590860967863,0.9877467665078284
1245,0.09693999521874253,0.9877467665078284
1246,0.09693999521874253,0.9880871341048332
1247,0.0974693487244288,0.9880871341048332
1248,0.0974693487244288,0.9887678692988427
1249,0.09794747447150029,0.9887678692988427
1250,0.09794747447150029,0.9891082368958475
1251,0.10028687544824288,0.9891082368958475
1252,0.10028687544824288,0.9894486044928523
1253,0.10496567740172809,0.9894486044928523
1254,0.10496567740172809,0.989788972089857
1255,0.10704893958539667,0.989788972089857
1256,0.10704893958539667,0.9901293396868618
1257,0.10882483521737646,0.9901293396868618
1258,0.10882483521737646,0.9904697072838666
1259,0.11150575458488439,0.9904697072838666
1260,0.11150575458488439,0.9908100748808714
1261,0.11317919469963457,0.9908100748808714
1262,0.11317919469963457,0.9911504424778761
1263,0.1157576585499129,0.9911504424778761
1264,0.1157576585499129,0.9914908100748808
1265,0.11584303814760424,0.9914908100748808
1266,0.11587718998668078,0.9914908100748808
1267,0.11736279498651002,0.9914908100748808
1268,0.11736279498651002,0.9918311776718857
1269,0.11816536320480858,0.9918311776718857
1270,0.11816536320480858,0.9921715452688904
1271,0.11826781872203818,0.9921715452688904
1272,0.11826781872203818,0.9925119128658951
1273,0.11995833475632663,0.9925119128658951
1274,0.11995833475632663,0.9928522804629
1275,0.12281001331921725,0.9928522804629
1276,0.12281001331921725,0.9931926480599047
1277,0.12380041665243674,0.9931926480599047
1278,0.12383456849151327,0.9931926480599047
1279,0.1249103514224241,0.9931926480599047
1280,0.1249103514224241,0.9935330156569094
1281,0.13770021515658618,0.9935330156569094
1282,0.13770021515658618,0.9938733832539143
1283,0.15127557118950855,0.9938733832539143
1284,0.15130972302858509,0.9938733832539143
1285,0.1564495748096035,0.9938733832539143
1286,0.1564495748096035,0.994213750850919
1287,0.157696116935897,0.994213750850919
1288,0.157696116935897,0.9945541184479237
1289,0.16025750486663706,0.9945541184479237
1290,0.1602916567057136,0.9945541184479237
1291,0.16140159147570096,0.9945541184479237
1292,0.16140159147570096,0.9948944860449285
1293,0.17029814555513814,0.9948944860449285
1294,0.17029814555513814,0.9952348536419333
1295,0.17270585021003382,0.9952348536419333
1296,0.17274000204911036,0.9952348536419333
1297,0.1739523923363273,0.9952348536419333
1298,0.17398654417540385,0.9952348536419333
1299,0.18090229158840204,0.9952348536419333
1300,0.18090229158840204,0.995575221238938
1301,0.18474437348451214,0.995575221238938
1302,0.18474437348451214,0.9959155888359428
1303,0.19148936170212766,0.9959155888359428
1304,0.1915235135412042,0.9959155888359428
1305,0.1956729619890031,0.9959155888359428
1306,0.1956729619890031,0.9962559564329476
1307,0.196048632218845,0.9962559564329476
1308,0.196048632218845,0.9965963240299524
1309,0.19970287900003414,0.9965963240299524
1310,0.19970287900003414,0.9969366916269571
1311,0.2014446227929374,0.9969366916269571
1312,0.2014446227929374,0.9972770592239619
1313,0.20204227997677676,0.9972770592239619
1314,0.20204227997677676,0.9976174268209667
1315,0.22847580342201426,0.9976174268209667
1316,0.22847580342201426,0.9979577944179714
1317,0.2354769304327038,0.9979577944179714
1318,0.23551108227178033,0.9979577944179714
1319,0.23979713807588537,0.9979577944179714
1320,0.23983128991496191,0.9979577944179714
1321,0.23991666951265325,0.9979577944179714
1322,0.2399508213517298,0.9979577944179714
1323,0.24456131962706193,0.9979577944179714
1324,0.24456131962706193,0.9982981620149761
1325,0.2571975000853796,0.9982981620149761
1326,0.25723165192445613,0.9982981620149761
1327,0.2583415866944435,0.9982981620149761
1328,0.2583415866944435,0.998638529611981
1329,0.26961169358969983,0.998638529611981
1330,0.26964584542877634,0.998638529611981
1331,0.27432464738226153,0.998638529611981
1332,0.27435879922133805,0.998638529611981
1333,0.2763566818073153,0.998638529611981
1334,0.2763566818073153,0.9989788972089857
1335,0.2834431884156962,0.9989788972089857
1336,0.2834431884156962,0.9993192648059904
1337,0.29010279703562036,0.9993192648059904
1338,0.2901369488746969,0.9993192648059904
1339,0.2911615040469929,0.9993192648059904
1340,0.29119565588606944,0.9993192648059904
1341,0.30007513404596836,0.9993192648059904
1342,0.30010928588504493,0.9993192648059904
1343,0.3432430586387077,0.9993192648059904
1344,0.3432430586387077,0.9996596324029953
1345,0.3677640790956593,0.9996596324029953
1346,0.36779823093473585,0.9996596324029953
1347,0.37111095932515964,0.9996596324029953
1348,0.3711451111642362,0.9996596324029953
1349,0.37261364024452714,0.9996596324029953
1350,0.3726477920836037,0.9996596324029953
1351,0.38181756087565316,0.9996596324029953
1352,0.3818517127147297,0.9996596324029953
1353,0.3884430176565008,0.9996596324029953
1354,0.3884771694955773,0.9996596324029953
1355,0.3986373416208463,0.9996596324029953
1356,0.3986714934599228,0.9996596324029953
1357,0.3990300877702264,0.9996596324029953
1358,0.399064239609303,0.9996596324029953
1359,0.39993511150575456,0.9996596324029953
1360,0.3999692633448311,0.9996596324029953
1361,0.402325740241112,0.9996596324029953
1362,0.4023598920801885,0.9996596324029953
1363,0.4339503432259827,0.9996596324029953
1364,0.43398449506505926,0.9996596324029953
1365,0.4368703254670264,0.9996596324029953
1366,0.43690447730610293,0.9996596324029953
1367,0.4380144120760903,0.9996596324029953
1368,0.43804856391516683,0.9996596324029953
1369,0.44431542638571087,0.9996596324029953
1370,0.4443495782247874,0.9996596324029953
1371,0.4554830777637376,0.9996596324029953
1372,0.4555172296028141,0.9996596324029953
1373,0.46791434718759606,0.9996596324029953
1374,0.46794849902667257,0.9996596324029953
1375,0.4689730541989686,0.9996596324029953
1376,0.46900720603804513,0.9996596324029953
1377,0.5038420818961101,0.9996596324029953
1378,0.5038762337351866,0.9996596324029953
1379,0.5059936477579318,0.9996596324029953
1380,0.5060277995970083,0.9996596324029953
1381,0.5122434343089375,0.9996596324029953
1382,0.5122775861480141,0.9996596324029953
1383,0.5134387486766162,0.9996596324029953
1384,0.5134729005156927,0.9996596324029953
1385,0.5189201188484,0.9996596324029953
1386,0.5189542706874766,0.9996596324029953
1387,0.5535500836720058,0.9996596324029953
1388,0.5535842355110823,0.9996596324029953
1389,0.5595949591885523,0.9996596324029953
1390,0.5596291110276288,0.9996596324029953
1391,0.5807861753355418,0.9996596324029953
1392,0.5808203271746184,0.9996596324029953
1393,0.58297189303644,0.9996596324029953
1394,0.5830060448755165,0.9996596324029953
1395,0.5895290461391346,0.9996596324029953
1396,0.5895290461391346,1.0
1397,0.5991086370001024,1.0
1398,0.599142788839179,1.0
1399,0.599842901540248,1.0
1400,0.5998770533793245,1.0
1401,0.6038557426317407,1.0
1402,0.6038898944708172,1.0
1403,0.6041631091834295,1.0
1404,0.604197261022506,1.0
1405,0.6155527475154537,1.0
1406,0.6155868993545303,1.0
1407,0.6210170417676992,1.0
1408,0.6210511936067757,1.0
1409,0.6401420716505584,1.0
1410,0.6401762234896349,1.0
1411,0.6459820361326457,1.0
1412,0.6460161879717222,1.0
1413,0.6507803695228989,1.0
1414,0.6508145213619754,1.0
1415,0.6520781394078071,1.0
1416,0.6521122912468836,1.0
1417,0.6535125166490215,1.0
1418,0.6535466684880981,1.0
1419,0.6885352276220075,1.0
1420,0.688569379461084,1.0
1421,0.69560465831085,1.0
1422,0.6956388101499266,1.0
1423,0.6966121375636078,1.0
1424,0.6966462894026844,1.0
1425,0.6970902633106792,1.0
1426,0.6971244151497558,1.0
1427,0.6971756429083706,1.0
1428,0.6972097947474472,1.0
1429,0.7026228612410779,1.0
1430,0.7026570130801544,1.0
1431,0.7063624876199583,1.0
1432,0.7063966394590349,1.0
1433,0.734145008708719,1.0
1434,0.7341791605477955,1.0
1435,0.7366551688808443,1.0
1436,0.7366893207199208,1.0
1437,0.7368088521566887,1.0
1438,0.7368430039957652,1.0
1439,0.7459444691096615,1.0
1440,0.7459786209487381,1.0
1441,0.7481131108910215,1.0
1442,0.748147262730098,1.0
1443,0.751852737269902,1.0
1444,0.7518868891089785,1.0
1445,0.7673405962911103,1.0
1446,0.7673747481301868,1.0
1447,0.7707045524401489,1.0
1448,0.7707387042792254,1.0
1449,0.7732830162904273,1.0
1450,0.7733171681295038,1.0
1451,0.781257470714798,1.0
1452,0.7812916225538745,1.0
1453,0.801202144735494,1.0
1454,0.8012362965745705,1.0
1455,0.8031487995628565,1.0
1456,0.803182951401933,1.0
1457,0.8032341791605478,1.0
1458,0.8032683309996244,1.0
1459,0.8265940370888972,1.0
1460,0.8266281889279737,1.0
1461,0.8336976196168163,1.0
1462,0.833731771455893,1.0
1463,0.8415183907653427,1.0
1464,0.8415525426044193,1.0
1465,0.8430039957651719,1.0
1466,0.8430381476042484,1.0
1467,0.8489122639254124,1.0
1468,0.8489464157644889,1.0
1469,0.8632901881766333,1.0
1470,0.8633243400157099,1.0
1471,0.8644684266247737,1.0
1472,0.8645025784638503,1.0
1473,0.8882039547829651,1.0
1474,0.8882381066220416,1.0
1475,0.8966053071957925,1.0
1476,0.8966394590348691,1.0
1477,0.899320378402377,1.0
1478,0.8993545302414535,1.0
1479,0.9006523001263618,1.0
1480,0.9006864519654383,1.0
1481,0.9019159181721935,1.0
1482,0.9019500700112701,1.0
1483,0.9101806632287148,1.0
1484,0.9102148150677914,1.0
1485,0.9385779174208531,1.0
1486,0.9386120692599297,1.0
1487,0.959666678050613,1.0
1488,0.9597008298896895,1.0
1489,0.9646357706362487,1.0
1490,0.9646699224753253,1.0
1491,0.9664628940268434,1.0
1492,0.9664970458659199,1.0
1493,0.9944161743109866,1.0
1494,0.9944503261500632,1.0
1495,1.0,1.0
