,fpr,tpr
0,0.0,0.0
1,0.0,0.0003403675970047651
2,0.0,0.0020422055820285907
3,1.7075919538267136e-05,0.0020422055820285907
4,1.7075919538267136e-05,0.005786249149081007
5,3.415183907653427e-05,0.005786249149081007
6,3.415183907653427e-05,0.07726344452008169
7,3.415183907653427e-05,0.07794417971409122
8,3.415183907653427e-05,0.07964601769911504
9,3.415183907653427e-05,0.08032675289312458
10,3.415183907653427e-05,0.12287270251872022
11,3.415183907653427e-05,0.12355343771272975
12,3.415183907653427e-05,0.17665078284547311
13,5.1227758614801405e-05,0.17665078284547311
14,5.1227758614801405e-05,0.224642614023145
15,6.830367815306854e-05,0.224642614023145
16,6.830367815306854e-05,0.22532334921715452
17,6.830367815306854e-05,0.2773995915588836
18,8.537959769133568e-05,0.2773995915588836
19,8.537959769133568e-05,0.30939414567733153
20,0.00010245551722960281,0.30939414567733153
21,0.00010245551722960281,0.3897208985704561
22,0.00011953143676786995,0.3897208985704561
23,0.00011953143676786995,0.40469707283866574
24,0.0001366073563061371,0.40469707283866574
25,0.0001366073563061371,0.40742001361470387
26,0.00015368327584440423,0.40742001361470387
27,0.00015368327584440423,0.41150442477876104
28,0.00017075919538267137,0.41150442477876104
29,0.00017075919538267137,0.4254594962559564
30,0.00018783511492093848,0.4254594962559564
31,0.00018783511492093848,0.4346494213750851
32,0.00020491103445920562,0.4346494213750851
33,0.00020491103445920562,0.4540503744043567
34,0.00022198695399747276,0.4540503744043567
35,0.00022198695399747276,0.5224642614023145
36,0.0002390628735357399,0.5224642614023145
37,0.0002390628735357399,0.5279101429543908
38,0.000256138793074007,0.5279101429543908
39,0.000256138793074007,0.552076242341729
40,0.0002732147126122742,0.552076242341729
41,0.0002732147126122742,0.5575221238938053
42,0.0002902906321505413,0.5575221238938053
43,0.0002902906321505413,0.5660313138189245
44,0.00030736655168880846,0.5660313138189245
45,0.00030736655168880846,0.5704560925799864
46,0.00032444247122707557,0.5704560925799864
47,0.00032444247122707557,0.578284547311096
48,0.00034151839076534274,0.578284547311096
49,0.00034151839076534274,0.582709326072158
50,0.00035859431030360985,0.582709326072158
51,0.00035859431030360985,0.5871341048332199
52,0.00037567022984187696,0.5871341048332199
53,0.00037567022984187696,0.5881552076242341
54,0.00039274614938014413,0.5881552076242341
55,0.00039274614938014413,0.591218515997277
56,0.00040982206891841124,0.591218515997277
57,0.00040982206891841124,0.5939414567733152
58,0.0004268979884566784,0.5939414567733152
59,0.0004268979884566784,0.595643294758339
60,0.0004439739079949455,0.595643294758339
61,0.0004439739079949455,0.5990469707283866
62,0.0004610498275332127,0.5990469707283866
63,0.0004610498275332127,0.6004084411164057
64,0.0004781257470714798,0.6004084411164057
65,0.0004781257470714798,0.6010891763104153
66,0.0004952016666097469,0.6010891763104153
67,0.0004952016666097469,0.6017699115044248
68,0.000512277586148014,0.6017699115044248
69,0.000512277586148014,0.6058543226684819
70,0.0005293535056862812,0.6058543226684819
71,0.0005293535056862812,0.6061946902654868
72,0.0005464294252245484,0.6061946902654868
73,0.0005464294252245484,0.6068754254594962
74,0.0005635053447628155,0.6068754254594962
75,0.0005635053447628155,0.6136827773995915
76,0.0005805812643010826,0.6136827773995915
77,0.0005805812643010826,0.6140231449965963
78,0.0005976571838393497,0.6140231449965963
79,0.0005976571838393497,0.6153846153846154
80,0.0006147331033776169,0.6153846153846154
81,0.0006147331033776169,0.6157249829816202
82,0.000631809022915884,0.6157249829816202
83,0.000631809022915884,0.6255956432947584
84,0.0006488849424541511,0.6255956432947584
85,0.0006488849424541511,0.6259360108917631
86,0.0006659608619924183,0.6259360108917631
87,0.0006659608619924183,0.6293396868618107
88,0.0006830367815306855,0.6293396868618107
89,0.0006830367815306855,0.6344452008168823
90,0.0007001127010689526,0.6344452008168823
91,0.0007001127010689526,0.6358066712049013
92,0.0007342645401454868,0.6358066712049013
93,0.0007342645401454868,0.6395507147719537
94,0.0007513404596837539,0.6395507147719537
95,0.0007513404596837539,0.6432947583390062
96,0.0007684163792220211,0.6432947583390062
97,0.0007684163792220211,0.6439754935330156
98,0.0007854922987602883,0.6439754935330156
99,0.0007854922987602883,0.6460176991150443
100,0.0008025682182985554,0.6460176991150443
101,0.0008025682182985554,0.6466984343090538
102,0.0008196441378368225,0.6466984343090538
103,0.0008196441378368225,0.6470388019060586
104,0.0008367200573750896,0.6470388019060586
105,0.0008367200573750896,0.6473791695030633
106,0.0008537959769133568,0.6473791695030633
107,0.0008537959769133568,0.6487406398910823
108,0.0008708718964516239,0.6487406398910823
109,0.0008708718964516239,0.6501021102791015
110,0.000887947815989891,0.6501021102791015
111,0.000887947815989891,0.6507828454731109
112,0.0009050237355281582,0.6507828454731109
113,0.0009050237355281582,0.6511232130701157
114,0.0009220996550664254,0.6511232130701157
115,0.0009220996550664254,0.6538461538461539
116,0.0009562514941429596,0.6538461538461539
117,0.0009562514941429596,0.6552076242341729
118,0.0009733274136812267,0.6552076242341729
119,0.0009733274136812267,0.6569094622191968
120,0.0009904033332194938,0.6569094622191968
121,0.0009904033332194938,0.6575901974132062
122,0.0010416310918342953,0.6575901974132062
123,0.0010416310918342953,0.6579305650102111
124,0.0010587070113725625,0.6579305650102111
125,0.0010587070113725625,0.6599727705922396
126,0.0010757829309108295,0.6599727705922396
127,0.0010757829309108295,0.6603131381892444
128,0.001127010689525631,0.6603131381892444
129,0.001127010689525631,0.6657590197413207
130,0.0011440866090638982,0.6657590197413207
131,0.0011440866090638982,0.6664397549353301
132,0.0011611625286021652,0.6664397549353301
133,0.0011611625286021652,0.6678012253233492
134,0.0011782384481404324,0.6678012253233492
135,0.0011782384481404324,0.6708645336963921
136,0.0011953143676786994,0.6708645336963921
137,0.0011953143676786994,0.6715452688904017
138,0.0012123902872169666,0.6715452688904017
139,0.0012123902872169666,0.6729067392784207
140,0.0012465421262935008,0.6729067392784207
141,0.0012465421262935008,0.6735874744724302
142,0.001263618045831768,0.6735874744724302
143,0.001263618045831768,0.673927842069435
144,0.0012977698849083023,0.673927842069435
145,0.0012977698849083023,0.675289312457454
146,0.0013148458044465695,0.675289312457454
147,0.0013148458044465695,0.6780122532334921
148,0.0013319217239848365,0.6780122532334921
149,0.0013319217239848365,0.6790333560245064
150,0.0013489976435231037,0.6790333560245064
151,0.0013489976435231037,0.6803948264125256
152,0.001366073563061371,0.6803948264125256
153,0.001366073563061371,0.6807351940095303
154,0.001383149482599638,0.6807351940095303
155,0.001383149482599638,0.6820966643975493
156,0.0014002254021379052,0.6820966643975493
157,0.0014002254021379052,0.6827773995915589
158,0.0014173013216761722,0.6827773995915589
159,0.0014173013216761722,0.6831177671885637
160,0.0014343772412144394,0.6831177671885637
161,0.0014343772412144394,0.6837985023825732
162,0.0014514531607527066,0.6837985023825732
163,0.0014514531607527066,0.686861810755616
164,0.0014685290802909736,0.686861810755616
165,0.0014685290802909736,0.6875425459496256
166,0.0014856049998292408,0.6875425459496256
167,0.0014856049998292408,0.6885636487406399
168,0.0015026809193675078,0.6885636487406399
169,0.0015026809193675078,0.6889040163376446
170,0.001519756838905775,0.6889040163376446
171,0.001519756838905775,0.6906058543226685
172,0.0015709845975205765,0.6906058543226685
173,0.0015709845975205765,0.691286589516678
174,0.0015880605170588435,0.691286589516678
175,0.0015880605170588435,0.6929884275017019
176,0.0016051364365971107,0.6929884275017019
177,0.0016051364365971107,0.6940095302927162
178,0.001622212356135378,0.6940095302927162
179,0.001622212356135378,0.6943498978897209
180,0.001639288275673645,0.6943498978897209
181,0.001639288275673645,0.6950306330837305
182,0.0016563641952119122,0.6950306330837305
183,0.0016563641952119122,0.6963921034717495
184,0.0016905160342884464,0.6963921034717495
185,0.0016905160342884464,0.6967324710687542
186,0.0017075919538267136,0.6967324710687542
187,0.0017075919538267136,0.697072838665759
188,0.0017417437929032479,0.697072838665759
189,0.0017417437929032479,0.6997957794417972
190,0.001758819712441515,0.6997957794417972
191,0.001758819712441515,0.7001361470388019
192,0.001775895631979782,0.7001361470388019
193,0.001775895631979782,0.7011572498298162
194,0.0017929715515180493,0.7011572498298162
195,0.0017929715515180493,0.7014976174268209
196,0.0018100474710563163,0.7014976174268209
197,0.0018100474710563163,0.7021783526208305
198,0.0018271233905945835,0.7021783526208305
199,0.0018271233905945835,0.7031994554118448
200,0.0018441993101328507,0.7031994554118448
201,0.0018441993101328507,0.7049012933968686
202,0.001878351149209385,0.7049012933968686
203,0.001878351149209385,0.7059223961878829
204,0.001895427068747652,0.7059223961878829
205,0.001895427068747652,0.7076242341729068
206,0.0019125029882859192,0.7076242341729068
207,0.0019125029882859192,0.7086453369639211
208,0.0019295789078241864,0.7086453369639211
209,0.0019295789078241864,0.7093260721579305
210,0.0019466548273624534,0.7093260721579305
211,0.0019466548273624534,0.7117086453369639
212,0.0019637307469007204,0.7117086453369639
213,0.0019637307469007204,0.7123893805309734
214,0.0019808066664389876,0.7123893805309734
215,0.0019808066664389876,0.713070115724983
216,0.001997882585977255,0.713070115724983
217,0.001997882585977255,0.7157930565010211
218,0.002049110344592056,0.7157930565010211
219,0.002049110344592056,0.7161334240980258
220,0.0020832621836685905,0.7161334240980258
221,0.0020832621836685905,0.7171545268890401
222,0.002151565861821659,0.7171545268890401
223,0.002151565861821659,0.7181756296800544
224,0.0021857177008981934,0.7181756296800544
225,0.0021857177008981934,0.718856364874064
226,0.0022027936204364607,0.718856364874064
227,0.0022027936204364607,0.7195371000680735
228,0.0022198695399747274,0.7195371000680735
229,0.0022198695399747274,0.7212389380530974
230,0.0022369454595129947,0.7212389380530974
231,0.0022369454595129947,0.7222600408441117
232,0.002305249137666063,0.7222600408441117
233,0.002305249137666063,0.7229407760381211
234,0.0023564768962808648,0.7229407760381211
235,0.0023564768962808648,0.7263444520081688
236,0.002373552815819132,0.7263444520081688
237,0.002373552815819132,0.7266848196051736
238,0.0023906287353573988,0.7266848196051736
239,0.0023906287353573988,0.7270251872021783
240,0.0024247805744339332,0.7270251872021783
241,0.0024247805744339332,0.7324710687542546
242,0.0024418564939722004,0.7324710687542546
243,0.0024418564939722004,0.7328114363512593
244,0.002527236091663536,0.7328114363512593
245,0.002527236091663536,0.7338325391422736
246,0.0025443120112018033,0.7338325391422736
247,0.0025443120112018033,0.7345132743362832
248,0.0025613879307400706,0.7345132743362832
249,0.0025613879307400706,0.734853641933288
250,0.0025784638502783373,0.734853641933288
251,0.0025784638502783373,0.7355343771272975
252,0.002612615689354872,0.7355343771272975
253,0.002612615689354872,0.737576582709326
254,0.002629691608893139,0.737576582709326
255,0.002629691608893139,0.7382573179033356
256,0.002663843447969673,0.7382573179033356
257,0.002663843447969673,0.7392784206943499
258,0.0026809193675079402,0.7392784206943499
259,0.0026809193675079402,0.7402995234853642
260,0.0026979952870462075,0.7402995234853642
261,0.0026979952870462075,0.742001361470388
262,0.0027150712065844747,0.742001361470388
263,0.0027150712065844747,0.7433628318584071
264,0.002732147126122742,0.7433628318584071
265,0.002732147126122742,0.7437031994554119
266,0.002766298965199276,0.7437031994554119
267,0.002766298965199276,0.7447243022464262
268,0.0028004508042758103,0.7447243022464262
269,0.0028004508042758103,0.7457454050374405
270,0.0028175267238140776,0.7457454050374405
271,0.0028175267238140776,0.7460857726344452
272,0.0028346026433523444,0.7460857726344452
273,0.0028346026433523444,0.7481279782164738
274,0.002868754482428879,0.7481279782164738
275,0.002868754482428879,0.7488087134104833
276,0.002885830401967146,0.7488087134104833
277,0.002885830401967146,0.7498298162014976
278,0.0029029063215054132,0.7498298162014976
279,0.0029029063215054132,0.7505105513955072
280,0.00291998224104368,0.7505105513955072
281,0.00291998224104368,0.7522123893805309
282,0.0029370581605819472,0.7522123893805309
283,0.0029370581605819472,0.7528931245745405
284,0.0029712099996584817,0.7528931245745405
285,0.0029712099996584817,0.7532334921715452
286,0.002988285919196749,0.7532334921715452
287,0.002988285919196749,0.7535738597685501
288,0.0030053618387350157,0.7535738597685501
289,0.0030053618387350157,0.7542545949625595
290,0.003022437758273283,0.7542545949625595
291,0.003022437758273283,0.7556160653505786
292,0.0030565895973498174,0.7556160653505786
293,0.0030565895973498174,0.7559564329475834
294,0.0030736655168880846,0.7559564329475834
295,0.0030736655168880846,0.7566371681415929
296,0.0031078173559646186,0.7566371681415929
297,0.0031078173559646186,0.7569775357385977
298,0.003124893275502886,0.7569775357385977
299,0.003124893275502886,0.7573179033356024
300,0.0031590451145794203,0.7573179033356024
301,0.0031590451145794203,0.7583390061266168
302,0.003176121034117687,0.7583390061266168
303,0.003176121034117687,0.7603812117086454
304,0.0031931969536559543,0.7603812117086454
305,0.0031931969536559543,0.7614023144996597
306,0.0032273487927324887,0.7614023144996597
307,0.0032273487927324887,0.7620830496936691
308,0.0032615006318090227,0.7620830496936691
309,0.0032615006318090227,0.7627637848876787
310,0.00327857655134729,0.7627637848876787
311,0.00327857655134729,0.7631041524846834
312,0.0033127283904238244,0.7631041524846834
313,0.0033127283904238244,0.7644656228727025
314,0.0033298043099620916,0.7644656228727025
315,0.0033298043099620916,0.7648059904697073
316,0.0033639561490386256,0.7648059904697073
317,0.0033639561490386256,0.765146358066712
318,0.0034151839076534273,0.765146358066712
319,0.0034151839076534273,0.7658270932607216
320,0.0034322598271916945,0.7658270932607216
321,0.0034322598271916945,0.7665078284547311
322,0.0034834875858064957,0.7665078284547311
323,0.0034834875858064957,0.7668481960517358
324,0.003500563505344763,0.7668481960517358
325,0.003500563505344763,0.7675289312457454
326,0.003534715344421297,0.7675289312457454
327,0.003534715344421297,0.7678692988427501
328,0.0035859431030360986,0.7678692988427501
329,0.0035859431030360986,0.7688904016337644
330,0.0036200949421126326,0.7688904016337644
331,0.0036200949421126326,0.7692307692307693
332,0.003654246781189167,0.7692307692307693
333,0.003654246781189167,0.7705922396187883
334,0.0036883986202657015,0.7705922396187883
335,0.0036883986202657015,0.770932607215793
336,0.0037396263788805027,0.770932607215793
337,0.0037396263788805027,0.7716133424098026
338,0.003790854137495304,0.7716133424098026
339,0.003790854137495304,0.7719537100068073
340,0.003807930057033571,0.7719537100068073
341,0.003807930057033571,0.7736555479918312
342,0.0038250059765718384,0.7736555479918312
343,0.0038250059765718384,0.773995915588836
344,0.0038420818961101056,0.773995915588836
345,0.0038420818961101056,0.7743362831858407
346,0.0038762337351866396,0.7743362831858407
347,0.0038762337351866396,0.7746766507828454
348,0.003893309654724907,0.7746766507828454
349,0.003893309654724907,0.7750170183798503
350,0.003910385574263174,0.7750170183798503
351,0.003910385574263174,0.7777399591558883
352,0.003927461493801441,0.7777399591558883
353,0.003927461493801441,0.7784206943498979
354,0.0039445374133397085,0.7784206943498979
355,0.0039445374133397085,0.779782164737917
356,0.003961613332877975,0.779782164737917
357,0.003961613332877975,0.781143635125936
358,0.003978689252416243,0.781143635125936
359,0.003978689252416243,0.7814840027229408
360,0.004081144769645845,0.7814840027229408
361,0.004081144769645845,0.7818243703199456
362,0.004098220689184112,0.7818243703199456
363,0.004098220689184112,0.7821647379169503
364,0.004132372528260647,0.7821647379169503
365,0.004132372528260647,0.782505105513955
366,0.004183600286875448,0.782505105513955
367,0.004183600286875448,0.7855684138869979
368,0.0042006762064137155,0.7855684138869979
369,0.0042006762064137155,0.7876106194690266
370,0.00423482804549025,0.7876106194690266
371,0.00423482804549025,0.7882913546630361
372,0.004303131723643318,0.7882913546630361
373,0.004303131723643318,0.7903335602450646
374,0.004337283562719852,0.7903335602450646
375,0.004337283562719852,0.7920353982300885
376,0.004354359482258119,0.7920353982300885
377,0.004354359482258119,0.7927161334240981
378,0.004388511321334654,0.7927161334240981
379,0.004388511321334654,0.7930565010211028
380,0.004405587240872921,0.7930565010211028
381,0.004405587240872921,0.7940776038121171
382,0.0044568149994877225,0.7940776038121171
383,0.0044568149994877225,0.7944179714091218
384,0.004473890919025989,0.7944179714091218
385,0.004473890919025989,0.7954390742001362
386,0.004490966838564257,0.7954390742001362
387,0.004490966838564257,0.7957794417971409
388,0.004508042758102524,0.7957794417971409
389,0.004508042758102524,0.7964601769911505
390,0.0045251186776407906,0.7964601769911505
391,0.0045251186776407906,0.7971409121851599
392,0.004559270516717325,0.7971409121851599
393,0.004559270516717325,0.7974812797821648
394,0.004576346436255593,0.7974812797821648
395,0.004576346436255593,0.7978216473791695
396,0.004610498275332126,0.7978216473791695
397,0.004610498275332126,0.7985023825731791
398,0.004627574194870394,0.7985023825731791
399,0.004627574194870394,0.7988427501701838
400,0.004644650114408661,0.7988427501701838
401,0.004644650114408661,0.7991831177671885
402,0.004661726033946928,0.7991831177671885
403,0.004661726033946928,0.7995234853641934
404,0.004678801953485195,0.7995234853641934
405,0.004678801953485195,0.7998638529611981
406,0.004695877873023462,0.7998638529611981
407,0.004695877873023462,0.8008849557522124
408,0.0047129537925617295,0.8008849557522124
409,0.0047129537925617295,0.8015656909462219
410,0.004730029712099996,0.8015656909462219
411,0.004730029712099996,0.8022464261402315
412,0.004747105631638264,0.8022464261402315
413,0.004747105631638264,0.8025867937372362
414,0.004764181551176531,0.8025867937372362
415,0.004764181551176531,0.8039482641252553
416,0.004798333390253065,0.8039482641252553
417,0.004798333390253065,0.8042886317222601
418,0.004815409309791332,0.8042886317222601
419,0.004815409309791332,0.8046289993192648
420,0.0048324852293296,0.8046289993192648
421,0.0048324852293296,0.8049693669162695
422,0.004883712987944401,0.8049693669162695
423,0.004883712987944401,0.8053097345132744
424,0.004900788907482668,0.8053097345132744
425,0.004900788907482668,0.8056501021102791
426,0.004917864827020935,0.8056501021102791
427,0.004917864827020935,0.8059904697072838
428,0.004934940746559202,0.8059904697072838
429,0.004934940746559202,0.8080326752893124
430,0.00495201666609747,0.8080326752893124
431,0.00495201666609747,0.8083730428863172
432,0.004986168505174003,0.8083730428863172
433,0.004986168505174003,0.808713410483322
434,0.005003244424712271,0.808713410483322
435,0.005003244424712271,0.8104152484683458
436,0.005020320344250538,0.8104152484683458
437,0.005020320344250538,0.8107556160653506
438,0.0050373962637888054,0.8107556160653506
439,0.0050373962637888054,0.8110959836623554
440,0.005071548102865339,0.8110959836623554
441,0.005071548102865339,0.8117767188563648
442,0.005088624022403607,0.8117767188563648
443,0.005088624022403607,0.8124574540503744
444,0.005122775861480141,0.8124574540503744
445,0.005122775861480141,0.8127978216473791
446,0.005156927700556675,0.8127978216473791
447,0.005156927700556675,0.8134785568413887
448,0.005174003620094942,0.8134785568413887
449,0.005174003620094942,0.8138189244383934
450,0.005191079539633209,0.8138189244383934
451,0.005191079539633209,0.8141592920353983
452,0.005276459137324545,0.8141592920353983
453,0.005276459137324545,0.8151803948264126
454,0.005327686895939346,0.8151803948264126
455,0.005327686895939346,0.8162014976174268
456,0.005344762815477614,0.8162014976174268
457,0.005344762815477614,0.8168822328114363
458,0.005395990574092415,0.8168822328114363
459,0.005395990574092415,0.8172226004084411
460,0.005430142413168949,0.8172226004084411
461,0.005430142413168949,0.8175629680054459
462,0.005498446091322017,0.8175629680054459
463,0.005498446091322017,0.818924438393465
464,0.005532597930398552,0.818924438393465
465,0.005532597930398552,0.8192648059904697
466,0.005583825689013353,0.8192648059904697
467,0.005583825689013353,0.8199455411844793
468,0.005600901608551621,0.8199455411844793
469,0.005600901608551621,0.820285908781484
470,0.0056179775280898875,0.820285908781484
471,0.0056179775280898875,0.8209666439754936
472,0.005669205286704689,0.8209666439754936
473,0.005669205286704689,0.8213070115724983
474,0.005686281206242956,0.8213070115724983
475,0.005686281206242956,0.8219877467665079
476,0.005703357125781223,0.8219877467665079
477,0.005703357125781223,0.8223281143635126
478,0.005737508964857758,0.8223281143635126
479,0.005737508964857758,0.8230088495575221
480,0.005754584884396024,0.8230088495575221
481,0.005754584884396024,0.8233492171545269
482,0.0058058126430108265,0.8233492171545269
483,0.0058058126430108265,0.8236895847515316
484,0.005822888562549093,0.8236895847515316
485,0.005822888562549093,0.824710687542546
486,0.0058741163211638945,0.824710687542546
487,0.0058741163211638945,0.8253914227365555
488,0.005891192240702162,0.8253914227365555
489,0.005891192240702162,0.8267528931245746
490,0.00595949591885523,0.8267528931245746
491,0.00595949591885523,0.8270932607215793
492,0.005993647757931765,0.8270932607215793
493,0.005993647757931765,0.827433628318584
494,0.006044875516546566,0.827433628318584
495,0.006044875516546566,0.8277739959155889
496,0.006096103275161367,0.8277739959155889
497,0.006096103275161367,0.8281143635125936
498,0.0061302551142379015,0.8281143635125936
499,0.0061302551142379015,0.8291354663036079
500,0.006232710631467505,0.8291354663036079
501,0.006232710631467505,0.8294758339006126
502,0.006249786551005772,0.8294758339006126
503,0.006249786551005772,0.8304969366916269
504,0.006266862470544038,0.8304969366916269
505,0.006266862470544038,0.8311776718856365
506,0.0063180902291588405,0.8311776718856365
507,0.0063180902291588405,0.8321987746766508
508,0.006369317987773642,0.8321987746766508
509,0.006369317987773642,0.8325391422736556
510,0.0063863939073119085,0.8325391422736556
511,0.0063863939073119085,0.8328795098706603
512,0.006403469826850176,0.8328795098706603
513,0.006403469826850176,0.8332198774676651
514,0.006523001263618045,0.8332198774676651
515,0.006523001263618045,0.8342409802586793
516,0.006591304941771114,0.8342409802586793
517,0.006591304941771114,0.8349217154526889
518,0.006608380861309381,0.8349217154526889
519,0.006608380861309381,0.8359428182437032
520,0.006625456780847649,0.8359428182437032
521,0.006625456780847649,0.8362831858407079
522,0.0066425327003859155,0.8362831858407079
523,0.0066425327003859155,0.8366235534377128
524,0.006659608619924183,0.8366235534377128
525,0.006659608619924183,0.8376446562287271
526,0.006693760459000717,0.8376446562287271
527,0.006693760459000717,0.8379850238257318
528,0.006744988217615519,0.8379850238257318
529,0.006744988217615519,0.8383253914227365
530,0.00679621597623032,0.8383253914227365
531,0.00679621597623032,0.8390061266167461
532,0.0068303678153068545,0.8390061266167461
533,0.0068303678153068545,0.8393464942137508
534,0.006864519654383389,0.8393464942137508
535,0.006864519654383389,0.8396868618107556
536,0.006881595573921656,0.8396868618107556
537,0.006881595573921656,0.8400272294077604
538,0.007018202930227793,0.8400272294077604
539,0.007018202930227793,0.8403675970047652
540,0.0070865066083808615,0.8403675970047652
541,0.0070865066083808615,0.8407079646017699
542,0.007137734366995663,0.8407079646017699
543,0.007137734366995663,0.8410483321987747
544,0.0071548102865339296,0.8410483321987747
545,0.0071548102865339296,0.8413886997957795
546,0.007188962125610464,0.8413886997957795
547,0.007188962125610464,0.8417290673927842
548,0.0072743417233018,0.8417290673927842
549,0.0072743417233018,0.8420694349897889
550,0.007308493562378334,0.8420694349897889
551,0.007308493562378334,0.8424098025867938
552,0.0073426454014548686,0.8424098025867938
553,0.0073426454014548686,0.8427501701837985
554,0.007359721320993135,0.8427501701837985
555,0.007359721320993135,0.8430905377808032
556,0.00739387316006967,0.8430905377808032
557,0.00739387316006967,0.8437712729748128
558,0.007410949079607937,0.8437712729748128
559,0.007410949079607937,0.8441116405718175
560,0.007445100918684471,0.8441116405718175
561,0.007445100918684471,0.8444520081688224
562,0.0074792527577610055,0.8444520081688224
563,0.0074792527577610055,0.8447923757658271
564,0.007496328677299272,0.8447923757658271
565,0.007496328677299272,0.8454731109598366
566,0.00751340459683754,0.8454731109598366
567,0.00751340459683754,0.8458134785568414
568,0.007650011953143677,0.8458134785568414
569,0.007650011953143677,0.8461538461538461
570,0.007667087872681944,0.8461538461538461
571,0.007667087872681944,0.8464942137508509
572,0.007701239711758478,0.8464942137508509
573,0.007701239711758478,0.8468345813478557
574,0.007718315631296746,0.8468345813478557
575,0.007718315631296746,0.8471749489448605
576,0.0077353915508350125,0.8471749489448605
577,0.0077353915508350125,0.8475153165418652
578,0.007837847068064615,0.8475153165418652
579,0.007837847068064615,0.84785568413887
580,0.007957378504832486,0.84785568413887
581,0.007957378504832486,0.8485364193328795
582,0.008025682182985553,0.8485364193328795
583,0.008025682182985553,0.8492171545268891
584,0.008076909941600355,0.8492171545268891
585,0.008076909941600355,0.8495575221238938
586,0.008093985861138622,0.8495575221238938
587,0.008093985861138622,0.8502382573179034
588,0.008128137700215157,0.8502382573179034
589,0.008128137700215157,0.8505786249149081
590,0.00816228953929169,0.8505786249149081
591,0.00816228953929169,0.8509189925119128
592,0.008179365458829958,0.8509189925119128
593,0.008179365458829958,0.8515997277059224
594,0.00823059321744476,0.8515997277059224
595,0.00823059321744476,0.8519400953029271
596,0.008247669136983026,0.8519400953029271
597,0.008247669136983026,0.852280462899932
598,0.00828182097605956,0.852280462899932
599,0.00828182097605956,0.8526208304969367
600,0.008315972815136095,0.8526208304969367
601,0.008315972815136095,0.8529611980939414
602,0.008333048734674362,0.8529611980939414
603,0.008333048734674362,0.8533015656909462
604,0.008350124654212629,0.8533015656909462
605,0.008350124654212629,0.853641933287951
606,0.008367200573750896,0.853641933287951
607,0.008367200573750896,0.8539823008849557
608,0.008384276493289164,0.8539823008849557
609,0.008384276493289164,0.8543226684819605
610,0.008401352412827431,0.8543226684819605
611,0.008401352412827431,0.85500340367597
612,0.008435504251903965,0.85500340367597
613,0.008435504251903965,0.8556841388699796
614,0.008452580171442231,0.8556841388699796
615,0.008452580171442231,0.8577263444520081
616,0.0084696560909805,0.8577263444520081
617,0.0084696560909805,0.8584070796460177
618,0.008486732010518767,0.8584070796460177
619,0.008486732010518767,0.8590878148400273
620,0.008503807930057034,0.8590878148400273
621,0.008503807930057034,0.859428182437032
622,0.008606263447286636,0.859428182437032
623,0.008606263447286636,0.8597685500340367
624,0.008640415286363171,0.8597685500340367
625,0.008640415286363171,0.8604492852280463
626,0.008657491205901438,0.8604492852280463
627,0.008657491205901438,0.860789652825051
628,0.008674567125439705,0.860789652825051
629,0.008674567125439705,0.8611300204220558
630,0.008725794884054507,0.8611300204220558
631,0.008725794884054507,0.8614703880190606
632,0.008811174481745843,0.8614703880190606
633,0.008811174481745843,0.8618107556160653
634,0.00882825040128411,0.8618107556160653
635,0.00882825040128411,0.8635125936010892
636,0.008845326320822376,0.8635125936010892
637,0.008845326320822376,0.8641933287950987
638,0.008862402240360643,0.8641933287950987
639,0.008862402240360643,0.8645336963921034
640,0.008930705918513712,0.8645336963921034
641,0.008930705918513712,0.8648740639891083
642,0.008947781838051979,0.8648740639891083
643,0.008947781838051979,0.8655547991831177
644,0.008981933677128514,0.8655547991831177
645,0.008981933677128514,0.866575901974132
646,0.00899900959666678,0.866575901974132
647,0.00899900959666678,0.8669162695711369
648,0.009016085516205048,0.8669162695711369
649,0.009016085516205048,0.8672566371681416
650,0.009084389194358116,0.8672566371681416
651,0.009084389194358116,0.8675970047651463
652,0.009135616952972917,0.8675970047651463
653,0.009135616952972917,0.869639210347175
654,0.009152692872511185,0.869639210347175
655,0.009152692872511185,0.8706603131381893
656,0.009186844711587719,0.8706603131381893
657,0.009186844711587719,0.871000680735194
658,0.009272224309279055,0.871000680735194
659,0.009272224309279055,0.8713410483321987
660,0.009306376148355588,0.8713410483321987
661,0.009306376148355588,0.8716814159292036
662,0.009391755746046924,0.8716814159292036
663,0.009391755746046924,0.872362151123213
664,0.009528363102353062,0.872362151123213
665,0.009528363102353062,0.8727025187202179
666,0.009545439021891328,0.8727025187202179
667,0.009545439021891328,0.8730428863172226
668,0.009579590860967864,0.8730428863172226
669,0.009579590860967864,0.8733832539142273
670,0.009733274136812268,0.8733832539142273
671,0.009733274136812268,0.8737236215112322
672,0.009886957412656671,0.8737236215112322
673,0.009886957412656671,0.8740639891082369
674,0.00990403333219494,0.8740639891082369
675,0.00990403333219494,0.8744043567052416
676,0.010040640688501076,0.8744043567052416
677,0.010040640688501076,0.8750850918992512
678,0.010057716608039342,0.8750850918992512
679,0.010057716608039342,0.8754254594962559
680,0.010126020286192411,0.8754254594962559
681,0.010126020286192411,0.8774676650782846
682,0.010211399883883747,0.8774676650782846
683,0.010211399883883747,0.8781484002722941
684,0.010245551722960282,0.8781484002722941
685,0.010245551722960282,0.8784887678692989
686,0.010365083159728151,0.8784887678692989
687,0.010365083159728151,0.8788291354663036
688,0.010382159079266418,0.8788291354663036
689,0.010382159079266418,0.8791695030633083
690,0.010416310918342954,0.8791695030633083
691,0.010416310918342954,0.8795098706603132
692,0.010569994194187356,0.8795098706603132
693,0.010569994194187356,0.8798502382573179
694,0.010689525630955227,0.8798502382573179
695,0.010689525630955227,0.8801906058543226
696,0.010706601550493494,0.8801906058543226
697,0.010706601550493494,0.8805309734513275
698,0.010757829309108296,0.8805309734513275
699,0.010757829309108296,0.8815520762423418
700,0.010860284826337899,0.8815520762423418
701,0.010860284826337899,0.8818924438393465
702,0.010911512584952699,0.8818924438393465
703,0.010911512584952699,0.8822328114363512
704,0.01103104402172057,0.8822328114363512
705,0.01103104402172057,0.882573179033356
706,0.011065195860797104,0.882573179033356
707,0.011065195860797104,0.8829135466303608
708,0.01108227178033537,0.8829135466303608
709,0.01108227178033537,0.8832539142273655
710,0.011133499538950173,0.8832539142273655
711,0.011133499538950173,0.8835942818243703
712,0.01115057545848844,0.8835942818243703
713,0.01115057545848844,0.8842750170183798
714,0.011167651378026706,0.8842750170183798
715,0.011167651378026706,0.8846153846153846
716,0.011253030975718042,0.8846153846153846
717,0.011253030975718042,0.8849557522123894
718,0.011304258734332844,0.8849557522123894
719,0.011304258734332844,0.8852961198093942
720,0.011372562412485913,0.8852961198093942
721,0.011372562412485913,0.8856364874063989
722,0.011423790171100713,0.8856364874063989
723,0.011423790171100713,0.8859768550034037
724,0.011457942010177248,0.8859768550034037
725,0.011457942010177248,0.8863172226004085
726,0.011492093849253782,0.8863172226004085
727,0.011492093849253782,0.8866575901974132
728,0.011526245688330317,0.8866575901974132
729,0.011526245688330317,0.8869979577944179
730,0.011543321607868584,0.8869979577944179
731,0.011543321607868584,0.8876786929884275
732,0.011577473446945118,0.8876786929884275
733,0.011577473446945118,0.8880190605854322
734,0.011611625286021653,0.8880190605854322
735,0.011611625286021653,0.8883594281824371
736,0.01162870120555992,0.8883594281824371
737,0.01162870120555992,0.8886997957794418
738,0.011662853044636453,0.8886997957794418
739,0.011662853044636453,0.8890401633764465
740,0.01167992896417472,0.8890401633764465
741,0.01167992896417472,0.8897208985704561
742,0.011697004883712989,0.8897208985704561
743,0.011697004883712989,0.8900612661674608
744,0.011714080803251255,0.8900612661674608
745,0.011714080803251255,0.8904016337644656
746,0.011884839998633927,0.8904016337644656
747,0.011884839998633927,0.8907420013614704
748,0.012055599194016598,0.8907420013614704
749,0.012055599194016598,0.8914227365554799
750,0.012106826952631398,0.8914227365554799
751,0.012106826952631398,0.8917631041524847
752,0.012175130630784467,0.8917631041524847
753,0.012175130630784467,0.8921034717494895
754,0.012260510228475803,0.8921034717494895
755,0.012260510228475803,0.8924438393464942
756,0.012294662067552338,0.8924438393464942
757,0.012294662067552338,0.892784206943499
758,0.012362965745705405,0.892784206943499
759,0.012362965745705405,0.8931245745405038
760,0.01239711758478194,0.8931245745405038
761,0.01239711758478194,0.8938053097345132
762,0.01246542126293501,0.8938053097345132
763,0.01246542126293501,0.8941456773315181
764,0.012636180458317681,0.8941456773315181
765,0.012636180458317681,0.8944860449285228
766,0.012721560056009017,0.8944860449285228
767,0.012721560056009017,0.8948264125255275
768,0.012960622929544755,0.8948264125255275
769,0.012960622929544755,0.8951667801225324
770,0.012977698849083024,0.8951667801225324
771,0.012977698849083024,0.8958475153165418
772,0.013028926607697824,0.8958475153165418
773,0.013028926607697824,0.8961878829135467
774,0.01304600252723609,0.8961878829135467
775,0.01304600252723609,0.8965282505105514
776,0.01306307844677436,0.8965282505105514
777,0.01306307844677436,0.8968686181075561
778,0.01311430620538916,0.8968686181075561
779,0.01311430620538916,0.897208985704561
780,0.013148458044465695,0.897208985704561
781,0.013148458044465695,0.8978897208985704
782,0.01323383764215703,0.8978897208985704
783,0.01323383764215703,0.8982300884955752
784,0.013250913561695297,0.8982300884955752
785,0.013250913561695297,0.89857045609258
786,0.013267989481233564,0.89857045609258
787,0.013267989481233564,0.8989108236895847
788,0.013285065400771831,0.8989108236895847
789,0.013285065400771831,0.8995915588835943
790,0.013455824596154502,0.8995915588835943
791,0.013455824596154502,0.899931926480599
792,0.013507052354769305,0.899931926480599
793,0.013507052354769305,0.9002722940776038
794,0.013558280113384105,0.9002722940776038
795,0.013558280113384105,0.9009530292716134
796,0.013626583791537174,0.9009530292716134
797,0.013626583791537174,0.9012933968686181
798,0.013660735630613709,0.9012933968686181
799,0.013660735630613709,0.9016337644656228
800,0.013797342986919845,0.9016337644656228
801,0.013797342986919845,0.9019741320626277
802,0.013916874423687716,0.9019741320626277
803,0.013916874423687716,0.9023144996596324
804,0.01395102626276425,0.9023144996596324
805,0.01395102626276425,0.9026548672566371
806,0.014036405860455585,0.9026548672566371
807,0.014036405860455585,0.902995234853642
808,0.014053481779993852,0.902995234853642
809,0.014053481779993852,0.9033356024506467
810,0.014104709538608654,0.9033356024506467
811,0.014104709538608654,0.9040163376446563
812,0.014155937297223456,0.9040163376446563
813,0.014155937297223456,0.904356705241661
814,0.01419008913629999,0.904356705241661
815,0.01419008913629999,0.9046970728386657
816,0.014258392814453059,0.9046970728386657
817,0.014258392814453059,0.9050374404356705
818,0.014309620573067859,0.9050374404356705
819,0.014309620573067859,0.9053778080326753
820,0.014616987124756668,0.9053778080326753
821,0.014616987124756668,0.9060585432266848
822,0.01466821488337147,0.9060585432266848
823,0.01466821488337147,0.9063989108236896
824,0.01471944264198627,0.9063989108236896
825,0.01471944264198627,0.9067392784206944
826,0.014770670400601073,0.9067392784206944
827,0.014770670400601073,0.9070796460176991
828,0.014821898159215873,0.9070796460176991
829,0.014821898159215873,0.9074200136147039
830,0.014941429595983744,0.9074200136147039
831,0.014941429595983744,0.9077603812117087
832,0.01502680919367508,0.9077603812117087
833,0.01502680919367508,0.9081007488087134
834,0.01507803695228988,0.9081007488087134
835,0.01507803695228988,0.9084411164057182
836,0.015163416549981216,0.9084411164057182
837,0.015163416549981216,0.908781484002723
838,0.015231720228134285,0.908781484002723
839,0.015231720228134285,0.9094622191967324
840,0.01538540350397869,0.9094622191967324
841,0.01538540350397869,0.9098025867937373
842,0.015470783101670025,0.9098025867937373
843,0.015470783101670025,0.910142954390742
844,0.015522010860284827,0.910142954390742
845,0.015522010860284827,0.9104833219877467
846,0.015539086779823094,0.9104833219877467
847,0.015539086779823094,0.9108236895847516
848,0.0157439978142823,0.9108236895847516
849,0.0157439978142823,0.9111640571817563
850,0.0158464533315119,0.9111640571817563
851,0.0158464533315119,0.911504424778761
852,0.016068440285509376,0.911504424778761
853,0.016068440285509376,0.9118447923757659
854,0.016085516205047643,0.9118447923757659
855,0.016085516205047643,0.9125255275697753
856,0.016119668044124177,0.9125255275697753
857,0.016119668044124177,0.9128658951667801
858,0.016290427239506848,0.9128658951667801
859,0.016290427239506848,0.9135466303607896
860,0.016307503159045115,0.9135466303607896
861,0.016307503159045115,0.9138869979577944
862,0.01632457907858338,0.9138869979577944
863,0.01632457907858338,0.914567733151804
864,0.01639288275673645,0.914567733151804
865,0.01639288275673645,0.9149081007488087
866,0.01646118643488952,0.9149081007488087
867,0.01646118643488952,0.9152484683458135
868,0.01658071787165739,0.9152484683458135
869,0.01658071787165739,0.9155888359428183
870,0.016614869710733924,0.9155888359428183
871,0.016614869710733924,0.915929203539823
872,0.01663194563027219,0.915929203539823
873,0.01663194563027219,0.9162695711368277
874,0.016922236262422733,0.9162695711368277
875,0.016922236262422733,0.9166099387338326
876,0.017024691779652334,0.9166099387338326
877,0.017024691779652334,0.9169503063308373
878,0.0170417676991906,0.9169503063308373
879,0.0170417676991906,0.917290673927842
880,0.01722960281411154,0.917290673927842
881,0.01722960281411154,0.9176310415248469
882,0.01729790649226461,0.9176310415248469
883,0.01729790649226461,0.9179714091218516
884,0.017366210170417676,0.9179714091218516
885,0.017366210170417676,0.9183117767188563
886,0.017383286089955943,0.9183117767188563
887,0.017383286089955943,0.9189925119128659
888,0.017536969365800348,0.9189925119128659
889,0.017536969365800348,0.9193328795098706
890,0.01760527304395342,0.9193328795098706
891,0.01760527304395342,0.9196732471068755
892,0.01775895631979782,0.9196732471068755
893,0.01775895631979782,0.9200136147038802
894,0.017912639595642224,0.9200136147038802
895,0.017912639595642224,0.9206943498978897
896,0.01792971551518049,0.9206943498978897
897,0.01792971551518049,0.9213750850918992
898,0.0181346265496397,0.9213750850918992
899,0.0181346265496397,0.921715452688904
900,0.01830538574502237,0.921715452688904
901,0.01830538574502237,0.9220558202859088
902,0.018339537584098904,0.9220558202859088
903,0.018339537584098904,0.9227365554799183
904,0.01840784126225197,0.9227365554799183
905,0.01840784126225197,0.9230769230769231
906,0.018476144940405042,0.9230769230769231
907,0.018476144940405042,0.9234172906739279
908,0.01854444861855811,0.9234172906739279
909,0.01854444861855811,0.9237576582709326
910,0.01895427068747652,0.9237576582709326
911,0.01895427068747652,0.9240980258679373
912,0.019056726204706123,0.9240980258679373
913,0.019056726204706123,0.9244383934649422
914,0.01955192787131587,0.9244383934649422
915,0.01955192787131587,0.9251191286589516
916,0.019569003790854137,0.9251191286589516
917,0.019569003790854137,0.9254594962559565
918,0.019654383388545475,0.9254594962559565
919,0.019654383388545475,0.9257998638529612
920,0.01973976298623681,0.9257998638529612
921,0.01973976298623681,0.9261402314499659
922,0.01980806666438988,0.9261402314499659
923,0.01980806666438988,0.9264805990469708
924,0.019842218503466413,0.9264805990469708
925,0.019842218503466413,0.9268209666439755
926,0.019893446262081213,0.9268209666439755
927,0.019893446262081213,0.9271613342409802
928,0.01996174994023428,0.9271613342409802
929,0.01996174994023428,0.927501701837985
930,0.01997882585977255,0.927501701837985
931,0.01997882585977255,0.9278420694349898
932,0.02043987568730576,0.9278420694349898
933,0.02043987568730576,0.9281824370319945
934,0.020525255284997098,0.9281824370319945
935,0.020525255284997098,0.9285228046289993
936,0.020849697756224174,0.9285228046289993
937,0.020849697756224174,0.9288631722260041
938,0.021088760629759912,0.9288631722260041
939,0.021088760629759912,0.9292035398230089
940,0.02110583654929818,0.9292035398230089
941,0.02110583654929818,0.9298842750170184
942,0.021361975342372188,0.9298842750170184
943,0.021361975342372188,0.9302246426140232
944,0.021549810457293126,0.9302246426140232
945,0.021549810457293126,0.9305650102110279
946,0.02170349373313753,0.9305650102110279
947,0.02170349373313753,0.9309053778080327
948,0.022027936204364607,0.9309053778080327
949,0.022027936204364607,0.9312457454050375
950,0.022318226836515145,0.9312457454050375
951,0.022318226836515145,0.9315861130020422
952,0.022437758273283016,0.9315861130020422
953,0.022437758273283016,0.9319264805990469
954,0.02269389706635702,0.9319264805990469
955,0.02269389706635702,0.9322668481960518
956,0.022796352583586626,0.9322668481960518
957,0.022796352583586626,0.9326072157930565
958,0.023291554250196373,0.9326072157930565
959,0.023291554250196373,0.9329475833900612
960,0.02335985792834944,0.9329475833900612
961,0.02335985792834944,0.9332879509870661
962,0.02337693384788771,0.9332879509870661
963,0.02337693384788771,0.9336283185840708
964,0.023684300399576516,0.9336283185840708
965,0.023684300399576516,0.9339686861810755
966,0.024333185342030668,0.9339686861810755
967,0.024333185342030668,0.9343090537780804
968,0.02438441310064547,0.9343090537780804
969,0.02438441310064547,0.9346494213750851
970,0.024435640859260272,0.9346494213750851
971,0.024435640859260272,0.9349897889720898
972,0.02450394453741334,0.9349897889720898
973,0.02450394453741334,0.9353301565690946
974,0.02455517229602814,0.9353301565690946
975,0.02455517229602814,0.9360108917631041
976,0.024606400054642943,0.9360108917631041
977,0.024606400054642943,0.9363512593601089
978,0.024657627813257744,0.9363512593601089
979,0.024657627813257744,0.9366916269571137
980,0.02474300741094908,0.9366916269571137
981,0.02474300741094908,0.9370319945541185
982,0.02486253884771695,0.9370319945541185
983,0.02486253884771695,0.9373723621511232
984,0.025016222123561353,0.9373723621511232
985,0.025016222123561353,0.937712729748128
986,0.025426044192479767,0.937712729748128
987,0.025426044192479767,0.9380530973451328
988,0.0255114237901711,0.9380530973451328
989,0.0255114237901711,0.9383934649421375
990,0.025665107066015505,0.9383934649421375
991,0.025665107066015505,0.9394145677331518
992,0.02592124585908951,0.9394145677331518
993,0.02592124585908951,0.9397549353301565
994,0.026109080974010452,0.9397549353301565
995,0.026109080974010452,0.9400953029271614
996,0.026553054882005395,0.9400953029271614
997,0.026553054882005395,0.9407760381211708
998,0.026604282640620196,0.9407760381211708
999,0.026604282640620196,0.9411164057181757
1000,0.02682626959461767,0.9411164057181757
1001,0.02682626959461767,0.9414567733151804
1002,0.02692872511184727,0.9414567733151804
1003,0.02692872511184727,0.9417971409121851
1004,0.027150712065844747,0.9417971409121851
1005,0.027150712065844747,0.94213750850919
1006,0.027270243502612614,0.94213750850919
1007,0.027270243502612614,0.9424778761061947
1008,0.02749223045661009,0.9424778761061947
1009,0.02749223045661009,0.9428182437031994
1010,0.027611761893377957,0.9428182437031994
1011,0.027611761893377957,0.9431586113002042
1012,0.02771421741060756,0.9431586113002042
1013,0.02771421741060756,0.943498978897209
1014,0.028004508042758103,0.943498978897209
1015,0.028004508042758103,0.9438393464942137
1016,0.02802158396229637,0.9438393464942137
1017,0.02802158396229637,0.9441797140912185
1018,0.028243570916293842,0.9441797140912185
1019,0.028243570916293842,0.9445200816882233
1020,0.028311874594446913,0.9445200816882233
1021,0.028311874594446913,0.9452008168822328
1022,0.029370581605819474,0.9452008168822328
1023,0.029370581605819474,0.9455411844792376
1024,0.02998531470919709,0.9455411844792376
1025,0.02998531470919709,0.9462219196732471
1026,0.030292681260885898,0.9462219196732471
1027,0.030292681260885898,0.9465622872702518
1028,0.030309757180424165,0.9465622872702518
1029,0.030309757180424165,0.9469026548672567
1030,0.0303439090195007,0.9469026548672567
1031,0.0303439090195007,0.9472430224642614
1032,0.03046344045626857,0.9472430224642614
1033,0.03046344045626857,0.9475833900612661
1034,0.030497592295345103,0.9475833900612661
1035,0.030497592295345103,0.947923757658271
1036,0.03099279396195485,0.947923757658271
1037,0.03099279396195485,0.9486044928522804
1038,0.03111232539872272,0.9486044928522804
1039,0.03111232539872272,0.9489448604492853
1040,0.03208565281240395,0.9489448604492853
1041,0.03208565281240395,0.94928522804629
1042,0.03241009528363102,0.94928522804629
1043,0.03241009528363102,0.9496255956432947
1044,0.03249547488132236,0.9496255956432947
1045,0.03249547488132236,0.9499659632402995
1046,0.03281991735254944,0.9499659632402995
1047,0.03281991735254944,0.9503063308373043
1048,0.03333219493869745,0.9503063308373043
1049,0.03333219493869745,0.950646698434309
1050,0.033724941088077595,0.950646698434309
1051,0.033724941088077595,0.9509870660313138
1052,0.034339674191455206,0.9509870660313138
1053,0.034339674191455206,0.9513274336283186
1054,0.035073938731600696,0.9513274336283186
1055,0.035073938731600696,0.9516678012253234
1056,0.03521054608790684,0.9516678012253234
1057,0.03521054608790684,0.9520081688223281
1058,0.03531300160513644,0.9520081688223281
1059,0.03531300160513644,0.9523485364193329
1060,0.035483760800519105,0.9523485364193329
1061,0.035483760800519105,0.9526889040163377
1062,0.03587650694989925,0.9526889040163377
1063,0.03587650694989925,0.9530292716133424
1064,0.03589358286943752,0.9530292716133424
1065,0.03589358286943752,0.9533696392103471
1066,0.03608141798435846,0.9533696392103471
1067,0.03608141798435846,0.953710006807352
1068,0.03683275844404221,0.953710006807352
1069,0.03683275844404221,0.9540503744043567
1070,0.036866910283118746,0.9540503744043567
1071,0.036866910283118746,0.9543907420013614
1072,0.03763532666234077,0.9543907420013614
1073,0.03763532666234077,0.9547311095983663
1074,0.03775485809910864,0.9547311095983663
1075,0.03775485809910864,0.955071477195371
1076,0.03792561729449131,0.955071477195371
1077,0.03792561729449131,0.9554118447923757
1078,0.03804514873125918,0.9554118447923757
1079,0.03804514873125918,0.9557522123893806
1080,0.03806222465079744,0.9557522123893806
1081,0.03806222465079744,0.9560925799863853
1082,0.03818175608756531,0.9560925799863853
1083,0.03818175608756531,0.95643294758339
1084,0.038198832007103584,0.95643294758339
1085,0.038198832007103584,0.9567733151803949
1086,0.03857450223694546,0.9567733151803949
1087,0.03857450223694546,0.9571136827773996
1088,0.0389160206277108,0.9571136827773996
1089,0.0389160206277108,0.9574540503744043
1090,0.03992349988046856,0.9574540503744043
1091,0.03992349988046856,0.9577944179714091
1092,0.0400088794781599,0.9577944179714091
1093,0.0400088794781599,0.9581347855684139
1094,0.040213790512619106,0.9581347855684139
1095,0.040213790512619106,0.9584751531654186
1096,0.04023086643215737,0.9584751531654186
1097,0.04023086643215737,0.9588155207624234
1098,0.04053823298384618,0.9588155207624234
1099,0.04053823298384618,0.959496255956433
1100,0.04086267545507326,0.959496255956433
1101,0.04086267545507326,0.9598366235534377
1102,0.04098220689184113,0.9598366235534377
1103,0.04098220689184113,0.9601769911504425
1104,0.04195553430552235,0.9601769911504425
1105,0.04195553430552235,0.9605173587474473
1106,0.04268979884566784,0.9605173587474473
1107,0.04268979884566784,0.960857726344452
1108,0.0436972780984256,0.960857726344452
1109,0.0436972780984256,0.9611980939414567
1110,0.04378265769611694,0.9611980939414567
1111,0.04378265769611694,0.9615384615384616
1112,0.04465352959256856,0.9615384615384616
1113,0.04465352959256856,0.9618788291354663
1114,0.04753935999453571,0.9618788291354663
1115,0.04753935999453571,0.962219196732471
1116,0.048017485741607184,0.962219196732471
1117,0.048017485741607184,0.9625595643294759
1118,0.048034561661145454,0.9625595643294759
1119,0.048034561661145454,0.9628999319264806
1120,0.04851268740821693,0.9628999319264806
1121,0.04851268740821693,0.9632402995234853
1122,0.048546839247293465,0.9632402995234853
1123,0.048546839247293465,0.9635806671204902
1124,0.04916157235067108,0.9635806671204902
1125,0.04916157235067108,0.9639210347174949
1126,0.04924695194836242,0.9639210347174949
1127,0.04924695194836242,0.9642614023144996
1128,0.049503090741436426,0.9642614023144996
1129,0.049503090741436426,0.9646017699115044
1130,0.050339810798811516,0.9646017699115044
1131,0.050339810798811516,0.9649421375085092
1132,0.051466821488337144,0.9649421375085092
1133,0.051466821488337144,0.9652825051055139
1134,0.051893719476793825,0.9652825051055139
1135,0.051893719476793825,0.9656228727025187
1136,0.05382329838461801,0.9656228727025187
1137,0.05382329838461801,0.9659632402995235
1138,0.05425019637307469,0.9659632402995235
1139,0.05425019637307469,0.9663036078965282
1140,0.05426727229261296,0.9663036078965282
1141,0.05426727229261296,0.966643975493533
1142,0.055052764591373246,0.966643975493533
1143,0.055052764591373246,0.9669843430905378
1144,0.05544551074075339,0.9669843430905378
1145,0.05544551074075339,0.9673247106875426
1146,0.05597486424643967,0.9673247106875426
1147,0.05597486424643967,0.9676650782845473
1148,0.05599194016597794,0.9676650782845473
1149,0.05599194016597794,0.9680054458815521
1150,0.056623749188893825,0.9680054458815521
1151,0.056623749188893825,0.9683458134785569
1152,0.05686281206242956,0.9683458134785569
1153,0.05686281206242956,0.9690265486725663
1154,0.05780198763703425,0.9690265486725663
1155,0.05780198763703425,0.9693669162695712
1156,0.0581947337864144,0.9693669162695712
1157,0.0581947337864144,0.9697072838665759
1158,0.058570404016256274,0.9697072838665759
1159,0.058570404016256274,0.9700476514635806
1160,0.05892899832655989,0.9700476514635806
1161,0.05892899832655989,0.9703880190605855
1162,0.05920221303917216,0.9703880190605855
1163,0.05920221303917216,0.9707283866575902
1164,0.0594925036713227,0.9707283866575902
1165,0.0594925036713227,0.9710687542545949
1166,0.06022676821146819,0.9710687542545949
1167,0.06022676821146819,0.9714091218515998
1168,0.060260920050544724,0.9714091218515998
1169,0.060260920050544724,0.9717494894486045
1170,0.06082442539530754,0.9717494894486045
1171,0.06082442539530754,0.9720898570456092
1172,0.06154161401591476,0.9720898570456092
1173,0.06154161401591476,0.972430224642614
1174,0.06405177418804002,0.972430224642614
1175,0.06405177418804002,0.9727705922396188
1176,0.06499094976264472,0.9727705922396188
1177,0.06499094976264472,0.9731109598366235
1178,0.06534954407294832,0.9731109598366235
1179,0.06534954407294832,0.9734513274336283
1180,0.06553737918786927,0.9734513274336283
1181,0.06553737918786927,0.9737916950306331
1182,0.06563983470509888,0.9737916950306331
1183,0.06563983470509888,0.9741320626276379
1184,0.06586182165909635,0.9741320626276379
1185,0.06586182165909635,0.9744724302246426
1186,0.06623749188893822,0.9744724302246426
1187,0.06623749188893822,0.9748127978216474
1188,0.06656193436016529,0.9748127978216474
1189,0.06656193436016529,0.9751531654186522
1190,0.06659608619924183,0.9751531654186522
1191,0.06659608619924183,0.9754935330156569
1192,0.06688637683139237,0.9754935330156569
1193,0.06688637683139237,0.9758339006126616
1194,0.06698883234862198,0.9758339006126616
1195,0.06698883234862198,0.9761742682096665
1196,0.06731327481984904,0.9761742682096665
1197,0.06731327481984904,0.9765146358066712
1198,0.06736450257846385,0.9765146358066712
1199,0.06736450257846385,0.9768550034036759
1200,0.06803046344045627,0.9768550034036759
1201,0.06803046344045627,0.9771953710006808
1202,0.06835490591168335,0.9771953710006808
1203,0.06835490591168335,0.9775357385976855
1204,0.06845736142891294,0.9775357385976855
1205,0.06845736142891294,0.9778761061946902
1206,0.06934530924490284,0.9778761061946902
1207,0.06934530924490284,0.9782164737916951
1208,0.06953314435982377,0.9782164737916951
1209,0.06953314435982377,0.9785568413886998
1210,0.06982343499197431,0.9785568413886998
1211,0.06982343499197431,0.9788972089857045
1212,0.07077968648611728,0.9788972089857045
1213,0.07077968648611728,0.9792375765827094
1214,0.07132611591134183,0.9792375765827094
1215,0.07132611591134183,0.9795779441797141
1216,0.07224821556640824,0.9795779441797141
1217,0.07224821556640824,0.9799183117767188
1218,0.0738362760834671,0.9799183117767188
1219,0.0738362760834671,0.9802586793737236
1220,0.07421194631330898,0.9802586793737236
1221,0.07421194631330898,0.9805990469707284
1222,0.0744510091868447,0.9805990469707284
1223,0.0744510091868447,0.9809394145677331
1224,0.07470714797991872,0.9809394145677331
1225,0.07470714797991872,0.9812797821647379
1226,0.07549264027867901,0.9812797821647379
1227,0.07549264027867901,0.9816201497617427
1228,0.07607322154298009,0.9816201497617427
1229,0.07607322154298009,0.9819605173587475
1230,0.07626105665790103,0.9819605173587475
1231,0.07626105665790103,0.9823008849557522
1232,0.07665380280728117,0.9823008849557522
1233,0.07665380280728117,0.982641252552757
1234,0.07697824527850824,0.982641252552757
1235,0.07697824527850824,0.9829816201497618
1236,0.07726853591065878,0.9829816201497618
1237,0.07726853591065878,0.9833219877467665
1238,0.0776271302209624,0.9833219877467665
1239,0.0776271302209624,0.9836623553437712
1240,0.07800280045080428,0.9836623553437712
1241,0.0780369522898808,0.9836623553437712
1242,0.0780369522898808,0.9840027229407761
1243,0.07858338171510536,0.9840027229407761
1244,0.07858338171510536,0.9843430905377808
1245,0.07909565930125337,0.9843430905377808
1246,0.07912981114032991,0.9843430905377808
1247,0.07984699976093712,0.9843430905377808
1248,0.07984699976093712,0.9846834581347855
1249,0.08025682182985554,0.9846834581347855
1250,0.08025682182985554,0.9850238257317904
1251,0.08054711246200608,0.9850238257317904
1252,0.08054711246200608,0.9853641933287951
1253,0.08160581947337864,0.9853641933287951
1254,0.08160581947337864,0.9857045609257998
1255,0.08315972815136095,0.9857045609257998
1256,0.08315972815136095,0.9860449285228047
1257,0.08790683378299921,0.9860449285228047
1258,0.08790683378299921,0.9863852961198094
1259,0.08891431303575698,0.9863852961198094
1260,0.08891431303575698,0.9867256637168141
1261,0.09198797855264507,0.9867256637168141
1262,0.09198797855264507,0.9870660313138189
1263,0.09205628223079813,0.9870660313138189
1264,0.09205628223079813,0.9874063989108237
1265,0.09258563573648441,0.9874063989108237
1266,0.09258563573648441,0.9877467665078284
1267,0.09434445544892592,0.9877467665078284
1268,0.09434445544892592,0.9880871341048332
1269,0.09531778286260716,0.9880871341048332
1270,0.09531778286260716,0.988427501701838
1271,0.0955568457361429,0.988427501701838
1272,0.0955568457361429,0.9887678692988427
1273,0.09801577814965336,0.9887678692988427
1274,0.0980499299887299,0.9887678692988427
1275,0.09890372596564324,0.9887678692988427
1276,0.09890372596564324,0.9891082368958475
1277,0.09951845906902086,0.9891082368958475
1278,0.09951845906902086,0.9894486044928523
1279,0.09965506642532701,0.9894486044928523
1280,0.09965506642532701,0.989788972089857
1281,0.10301902257436563,0.989788972089857
1282,0.10301902257436563,0.9901293396868618
1283,0.10353130016051364,0.9901293396868618
1284,0.10353130016051364,0.9904697072838666
1285,0.10535842355110822,0.9904697072838666
1286,0.10535842355110822,0.9908100748808714
1287,0.10715139510262628,0.9908100748808714
1288,0.10715139510262628,0.9911504424778761
1289,0.11007137734366995,0.9911504424778761
1290,0.11007137734366995,0.9914908100748808
1291,0.11042997165397357,0.9914908100748808
1292,0.11042997165397357,0.9918311776718857
1293,0.11278644855025444,0.9918311776718857
1294,0.11278644855025444,0.9921715452688904
1295,0.12067552337693385,0.9921715452688904
1296,0.12070967521601038,0.9921715452688904
1297,0.12072675113554865,0.9921715452688904
1298,0.12072675113554865,0.9925119128658951
1299,0.12289539291690857,0.9925119128658951
1300,0.12289539291690857,0.9928522804629
1301,0.1239711758478194,0.9928522804629
1302,0.1239711758478194,0.9931926480599047
1303,0.12598613435333492,0.9931926480599047
1304,0.12602028619241146,0.9931926480599047
1305,0.12665209521532733,0.9931926480599047
1306,0.12665209521532733,0.9935330156569094
1307,0.14379631843174756,0.9935330156569094
1308,0.14383047027082407,0.9935330156569094
1309,0.14495748096034972,0.9935330156569094
1310,0.14495748096034972,0.9938733832539143
1311,0.14499163279942626,0.9938733832539143
1312,0.14499163279942626,0.994213750850919
1313,0.14541853078788292,0.994213750850919
1314,0.14545268262695946,0.994213750850919
1315,0.14726273009801577,0.994213750850919
1316,0.14726273009801577,0.9945541184479237
1317,0.14903862572999557,0.9945541184479237
1318,0.14907277756907208,0.9945541184479237
1319,0.15241965779857244,0.9945541184479237
1320,0.15241965779857244,0.9948944860449285
1321,0.15564700659130495,0.9948944860449285
1322,0.15568115843038147,0.9948944860449285
1323,0.164150814521362,0.9948944860449285
1324,0.164150814521362,0.9952348536419333
1325,0.1671049486014822,0.9952348536419333
1326,0.1671391004405587,0.9952348536419333
1327,0.16999077900344933,0.9952348536419333
1328,0.16999077900344933,0.995575221238938
1329,0.1708958027389775,0.995575221238938
1330,0.1708958027389775,0.9959155888359428
1331,0.17164714319866126,0.9959155888359428
1332,0.17164714319866126,0.9962559564329476
1333,0.17444759400293705,0.9962559564329476
1334,0.17444759400293705,0.9965963240299524
1335,0.17613811003722551,0.9965963240299524
1336,0.17617226187630203,0.9965963240299524
1337,0.1778457019910522,0.9965963240299524
1338,0.1778457019910522,0.9969366916269571
1339,0.18013387520918,0.9969366916269571
1340,0.18016802704825655,0.9969366916269571
1341,0.184351627335132,0.9969366916269571
1342,0.18438577917420854,0.9969366916269571
1343,0.21233905945835183,0.9969366916269571
1344,0.21233905945835183,0.9972770592239619
1345,0.2132953109524948,0.9972770592239619
1346,0.2132953109524948,0.9976174268209667
1347,0.21753013899798504,0.9976174268209667
1348,0.21756429083706158,0.9976174268209667
1349,0.2201598306068782,0.9976174268209667
1350,0.22019398244595473,0.9976174268209667
1351,0.22195280215839622,0.9976174268209667
1352,0.22195280215839622,0.9979577944179714
1353,0.22912468836446842,0.9979577944179714
1354,0.22915884020354496,0.9979577944179714
1355,0.2595198251425839,0.9979577944179714
1356,0.25955397698166044,0.9979577944179714
1357,0.2663843447969673,0.9979577944179714
1358,0.2663843447969673,0.9982981620149761
1359,0.26827977186571494,0.9982981620149761
1360,0.26827977186571494,0.998638529611981
1361,0.27075578019876373,0.998638529611981
1362,0.27075578019876373,0.9989788972089857
1363,0.27285611830197054,0.9989788972089857
1364,0.2728902701410471,0.9989788972089857
1365,0.2828626071513951,0.9989788972089857
1366,0.2828967589904716,0.9989788972089857
1367,0.30094600594242,0.9989788972089857
1368,0.30098015778149656,0.9989788972089857
1369,0.3016290427239507,0.9989788972089857
1370,0.3016631945630272,0.9989788972089857
1371,0.3028585089307059,0.9989788972089857
1372,0.30289266076978244,0.9989788972089857
1373,0.30589802260851745,0.9989788972089857
1374,0.305932174447594,0.9989788972089857
1375,0.308169119907107,0.9989788972089857
1376,0.308169119907107,0.9993192648059904
1377,0.3114989242170691,0.9993192648059904
1378,0.3115330760561456,0.9993192648059904
1379,0.32799426249103514,0.9993192648059904
1380,0.32802841433011165,0.9993192648059904
1381,0.3362248557084799,0.9993192648059904
1382,0.33625900754755644,0.9993192648059904
1383,0.3471875960520474,0.9993192648059904
1384,0.3472217478911239,0.9993192648059904
1385,0.36045558553328094,0.9993192648059904
1386,0.36045558553328094,0.9996596324029953
1387,0.3715378573136163,0.9996596324029953
1388,0.3715720091526929,0.9996596324029953
1389,0.38133943512858165,0.9996596324029953
1390,0.3813735869676582,0.9996596324029953
1391,0.3943171339776647,0.9996596324029953
1392,0.3943512858167412,0.9996596324029953
1393,0.4038284211604795,0.9996596324029953
1394,0.403862572999556,0.9996596324029953
1395,0.4074997438612069,0.9996596324029953
1396,0.4075338957002835,0.9996596324029953
1397,0.4171817902394044,0.9996596324029953
1398,0.41721594207848095,0.9996596324029953
1399,0.424763498514395,0.9996596324029953
1400,0.42479765035347156,0.9996596324029953
1401,0.4318500051227759,0.9996596324029953
1402,0.4318841569618524,0.9996596324029953
1403,0.4353164167890441,0.9996596324029953
1404,0.4353505686281206,0.9996596324029953
1405,0.44696219391414227,0.9996596324029953
1406,0.44699634575321884,0.9996596324029953
1407,0.4477989139715174,0.9996596324029953
1408,0.4478330658105939,0.9996596324029953
1409,0.4623134455790444,0.9996596324029953
1410,0.462347597418121,0.9996596324029953
1411,0.4624329770158123,0.9996596324029953
1412,0.46246712885488883,0.9996596324029953
1413,0.4727297564973874,0.9996596324029953
1414,0.4727639083364639,0.9996596324029953
1415,0.48849083023120793,0.9996596324029953
1416,0.4885249820702845,0.9996596324029953
1417,0.5039445374133397,0.9996596324029953
1418,0.5039786892524163,0.9996596324029953
1419,0.5074451009186844,0.9996596324029953
1420,0.507479252757761,0.9996596324029953
1421,0.5124824971824733,0.9996596324029953
1422,0.5125166490215498,0.9996596324029953
1423,0.5131826098835423,0.9996596324029953
1424,0.5132167617226188,0.9996596324029953
1425,0.5165636419521191,0.9996596324029953
1426,0.5165977937911956,0.9996596324029953
1427,0.5183736894231754,0.9996596324029953
1428,0.5184078412622519,0.9996596324029953
1429,0.5189542706874766,0.9996596324029953
1430,0.5189884225265531,0.9996596324029953
1431,0.5262969160889314,0.9996596324029953
1432,0.5263310679280079,0.9996596324029953
1433,0.5501348997643523,0.9996596324029953
1434,0.5501690516034289,0.9996596324029953
1435,0.5656056828660223,0.9996596324029953
1436,0.5656398347050988,0.9996596324029953
1437,0.5688501075782931,0.9996596324029953
1438,0.5688842594173696,0.9996596324029953
1439,0.583740309415662,0.9996596324029953
1440,0.5837744612547385,0.9996596324029953
1441,0.6062463713670981,0.9996596324029953
1442,0.6062805232061746,0.9996596324029953
1443,0.610771490044739,0.9996596324029953
1444,0.6108056418838155,0.9996596324029953
1445,0.6235955056179775,0.9996596324029953
1446,0.623629657457054,0.9996596324029953
1447,0.6314333526860422,0.9996596324029953
1448,0.6314675045251187,0.9996596324029953
1449,0.6316894914791161,0.9996596324029953
1450,0.6317236433181926,0.9996596324029953
1451,0.6341142720535501,0.9996596324029953
1452,0.6341484238926266,0.9996596324029953
1453,0.6351388272258461,0.9996596324029953
1454,0.6351729790649226,0.9996596324029953
1455,0.6585669888323487,0.9996596324029953
1456,0.6586011406714252,0.9996596324029953
1457,0.660120897510331,0.9996596324029953
1458,0.6601550493494075,0.9996596324029953
1459,0.6838905775075987,0.9996596324029953
1460,0.6839247293466754,0.9996596324029953
1461,0.6867251801509511,0.9996596324029953
1462,0.6867593319900277,0.9996596324029953
1463,0.7016153819883201,0.9996596324029953
1464,0.7016495338273966,0.9996596324029953
1465,0.7023667224480038,0.9996596324029953
1466,0.7024008742870803,0.9996596324029953
1467,0.7140808032512551,0.9996596324029953
1468,0.7141149550903316,0.9996596324029953
1469,0.7173252279635258,0.9996596324029953
1470,0.7173593798026023,0.9996596324029953
1471,0.7325569481916602,0.9996596324029953
1472,0.7325911000307367,0.9996596324029953
1473,0.7345036030190226,0.9996596324029953
1474,0.7345377548580991,0.9996596324029953
1475,0.7380383183634439,0.9996596324029953
1476,0.7380724702025204,0.9996596324029953
1477,0.7386530514668215,0.9996596324029953
1478,0.7386530514668215,1.0
1479,0.7534749496260373,1.0
1480,0.7535091014651139,1.0
1481,0.7612274170964106,1.0
1482,0.7612615689354871,1.0
1483,0.7706704006010724,1.0
1484,0.7707045524401489,1.0
1485,0.7843994399098392,1.0
1486,0.7844335917489157,1.0
1487,0.7873877258290359,1.0
1488,0.7874218776681124,1.0
1489,0.8048734674362215,1.0
1490,0.804907619275298,1.0
1491,0.8068713500221987,1.0
1492,0.8069055018612752,1.0
1493,0.8102523820907755,1.0
1494,0.8102865339298522,1.0
1495,0.8203442505378915,1.0
1496,0.820378402376968,1.0
1497,0.8217786277791059,1.0
1498,0.8218127796181824,1.0
1499,0.8224104368020217,1.0
1500,0.8224445886410984,1.0
1501,0.8225470441583279,1.0
1502,0.8225811959974044,1.0
1503,0.8272941497899662,1.0
1504,0.8273283016290427,1.0
1505,0.8326218366859055,1.0
1506,0.832655988524982,1.0
1507,0.8330487346743622,1.0
1508,0.8330828865134388,1.0
1509,0.8514736518561524,1.0
1510,0.8515078036952289,1.0
1511,0.8539667361087394,1.0
1512,0.854000887947816,1.0
1513,0.8725624124859124,1.0
1514,0.8725965643249889,1.0
1515,0.8940097674259759,1.0
1516,0.8940439192650524,1.0
1517,0.8952563095522694,1.0
1518,0.8952904613913459,1.0
1519,0.9015573238618899,1.0
1520,0.9015914757009665,1.0
1521,0.9287763396058878,1.0
1522,0.9288104914449643,1.0
1523,0.9406270277654452,1.0
1524,0.9406611796045217,1.0
1525,0.9437348451214098,1.0
1526,0.9437689969604863,1.0
1527,1.0,1.0
