,fpr,tpr
0,0.0,0.0
1,1.6191159303197268e-06,0.0
2,1.6191159303197268e-06,2.6674491184080665e-05
3,6.476463721278907e-06,2.6674491184080665e-05
4,6.476463721278907e-06,5.334898236816133e-05
5,8.095579651598635e-06,5.334898236816133e-05
6,8.095579651598635e-06,8.002347355224199e-05
7,9.71469558191836e-06,8.002347355224199e-05
8,9.71469558191836e-06,0.00010669796473632266
9,1.1333811512238087e-05,0.00010669796473632266
10,1.1333811512238087e-05,0.00013337245592040333
11,1.2952927442557815e-05,0.00013337245592040333
12,1.2952927442557815e-05,0.00016004694710448398
13,1.4572043372877542e-05,0.00016004694710448398
14,1.4572043372877542e-05,0.00018672143828856464
15,1.619115930319727e-05,0.00018672143828856464
16,1.619115930319727e-05,0.00021339592947264532
17,1.7810275233516995e-05,0.00021339592947264532
18,1.7810275233516995e-05,0.00026674491184080666
19,2.104850709415645e-05,0.00026674491184080666
20,2.4286738954795904e-05,0.00026674491184080666
21,3.076320267607481e-05,0.00026674491184080666
22,3.076320267607481e-05,0.0002934194030248873
23,3.7239666397353715e-05,0.0002934194030248873
24,3.7239666397353715e-05,0.00032009389420896797
25,3.885878232767344e-05,0.00032009389420896797
26,3.885878232767344e-05,0.00034676838539304865
27,4.857347790959181e-05,0.00034676838539304865
28,4.857347790959181e-05,0.0003734428765771293
29,5.019259383991153e-05,0.0003734428765771293
30,5.019259383991153e-05,0.00040011736776120996
31,5.181170977023126e-05,0.00040011736776120996
32,5.181170977023126e-05,0.00042679185894529064
33,5.504994163087071e-05,0.00042679185894529064
34,5.504994163087071e-05,0.00045346635012937127
35,6.152640535214963e-05,0.00045346635012937127
36,6.152640535214963e-05,0.0005068153324975326
37,6.314552128246934e-05,0.0005068153324975326
38,6.314552128246934e-05,0.0005334898236816133
39,6.476463721278908e-05,0.0005334898236816133
40,6.476463721278908e-05,0.0005601643148656939
41,6.63837531431088e-05,0.0005601643148656939
42,6.63837531431088e-05,0.0006135132972338553
43,6.800286907342853e-05,0.0006135132972338553
44,6.800286907342853e-05,0.0006401877884179359
45,6.962198500374825e-05,0.0006401877884179359
46,6.962198500374825e-05,0.0006935367707860973
47,7.286021686438771e-05,0.0006935367707860973
48,7.286021686438771e-05,0.0007202112619701779
49,7.609844872502716e-05,0.0007202112619701779
50,7.609844872502716e-05,0.0007735602443383392
51,8.257491244630607e-05,0.0007735602443383392
52,8.257491244630607e-05,0.0009069327002587425
53,8.581314430694552e-05,0.0009069327002587425
54,8.581314430694552e-05,0.0009336071914428232
55,8.905137616758498e-05,0.0009336071914428232
56,8.905137616758498e-05,0.0009602816826269039
57,9.06704920979047e-05,0.0009602816826269039
58,9.06704920979047e-05,0.0010136306649950653
59,9.228960802822443e-05,0.0010136306649950653
60,9.228960802822443e-05,0.0010669796473632266
61,9.714695581918362e-05,0.0010669796473632266
62,9.714695581918362e-05,0.0011203286297313878
63,0.00010362341954046252,0.0011203286297313878
64,0.00010362341954046252,0.0011736776120995491
65,0.0001084807673314217,0.0011736776120995491
66,0.0001084807673314217,0.00120035210328363
67,0.0001149572310527006,0.00120035210328363
68,0.0001149572310527006,0.0012270265944677105
69,0.00011819546291334005,0.0012270265944677105
70,0.00011819546291334005,0.0012803755768358719
71,0.0001214336947739795,0.0012803755768358719
72,0.0001214336947739795,0.0013870735415721946
73,0.00012305281070429925,0.0013870735415721946
74,0.00012305281070429925,0.0014137480327562752
75,0.00012467192663461897,0.0014137480327562752
76,0.00012467192663461897,0.0014670970151244365
77,0.00012952927442557815,0.0014670970151244365
78,0.00012952927442557815,0.0015737949798607593
79,0.0001327675062862176,0.0015737949798607593
80,0.0001327675062862176,0.0016271439622289204
81,0.00013600573814685706,0.0016271439622289204
82,0.00013600573814685706,0.0016804929445970818
83,0.00013762485407717678,0.0016804929445970818
84,0.00013762485407717678,0.0017071674357811626
85,0.0001392439700074965,0.0017071674357811626
86,0.0001392439700074965,0.0017871909093334045
87,0.00014572043372877542,0.0017871909093334045
88,0.00014572043372877542,0.0018405398917015659
89,0.00014733954965909514,0.0018405398917015659
90,0.00014733954965909514,0.0018938888740697272
91,0.00014895866558941486,0.0018938888740697272
92,0.00014895866558941486,0.0019472378564378884
93,0.0001505777815197346,0.0019472378564378884
94,0.0001505777815197346,0.001973912347621969
95,0.00015219689745005433,0.001973912347621969
96,0.00015219689745005433,0.0020272613299901305
97,0.00015543512931069376,0.0020272613299901305
98,0.00015543512931069376,0.0020539358211742113
99,0.00016029247710165295,0.0020539358211742113
100,0.00016029247710165295,0.0021072848035423725
101,0.0001619115930319727,0.0021072848035423725
102,0.0001619115930319727,0.0022673317506468563
103,0.00016514982489261213,0.0022673317506468563
104,0.00016514982489261213,0.002294006241830937
105,0.00016676894082293188,0.002294006241830937
106,0.00016676894082293188,0.00242737869775134
107,0.0001683880567532516,0.00242737869775134
108,0.0001683880567532516,0.002454053188935421
109,0.00017162628861389103,0.002454053188935421
110,0.00017162628861389103,0.0025074021713035826
111,0.00017324540454421078,0.0025074021713035826
112,0.00017324540454421078,0.0025607511536717437
113,0.0001748645204745305,0.0025607511536717437
114,0.0001748645204745305,0.0025874256448558245
115,0.00017648363640485022,0.0025874256448558245
116,0.00017648363640485022,0.002614100136039905
117,0.0001813409841958094,0.002614100136039905
118,0.0001813409841958094,0.0026407746272239857
119,0.00018457921605644886,0.0026407746272239857
120,0.00018457921605644886,0.0027207981007762276
121,0.00018619833198676858,0.0027207981007762276
122,0.00018619833198676858,0.0027474725919603084
123,0.00018943656384740805,0.0027474725919603084
124,0.00018943656384740805,0.002774147083144389
125,0.00019267479570804749,0.002774147083144389
126,0.00019267479570804749,0.0028274960655125503
127,0.0001991512594293264,0.0028274960655125503
128,0.0001991512594293264,0.0029075195390647923
129,0.00020077037535964613,0.0029075195390647923
130,0.00020077037535964613,0.002934194030248873
131,0.00020400860722028557,0.002934194030248873
132,0.00020400860722028557,0.003014217503801115
133,0.00020724683908092504,0.003014217503801115
134,0.00020724683908092504,0.003067566486169276
135,0.0002104850709415645,0.003067566486169276
136,0.0002104850709415645,0.0031209154685374377
137,0.00021210418687188422,0.0031209154685374377
138,0.00021210418687188422,0.003174264450905599
139,0.00021372330280220394,0.003174264450905599
140,0.00021372330280220394,0.0032809624156419216
141,0.0002169615346628434,0.0032809624156419216
142,0.0002169615346628434,0.0033609858891941635
143,0.00022019976652348284,0.0033609858891941635
144,0.00022019976652348284,0.003414334871562325
145,0.00022181888245380259,0.003414334871562325
146,0.00022181888245380259,0.0034410093627464055
147,0.00022667623024476174,0.0034410093627464055
148,0.00022667623024476174,0.0034676838539304863
149,0.0002282953461750815,0.0034676838539304863
150,0.0002282953461750815,0.003574381818666809
151,0.00023153357803572093,0.003574381818666809
152,0.00023153357803572093,0.003654405292219051
153,0.00023315269396604067,0.003654405292219051
154,0.00023315269396604067,0.003734428765771293
155,0.0002347718098963604,0.003734428765771293
156,0.0002347718098963604,0.003814452239323535
157,0.0002363909258266801,0.003814452239323535
158,0.0002363909258266801,0.0038678012216916964
159,0.00023801004175699986,0.0038678012216916964
160,0.00023801004175699986,0.0038944757128757767
161,0.0002412482736176393,0.0038944757128757767
162,0.0002412482736176393,0.00402784816879618
163,0.000242867389547959,0.00402784816879618
164,0.000242867389547959,0.004241244098268825
165,0.0002461056214085985,0.004241244098268825
166,0.0002461056214085985,0.004374616554189229
167,0.0002477247373389182,0.004374616554189229
168,0.0002477247373389182,0.004534663501293713
169,0.00025096296919955766,0.004534663501293713
170,0.00025096296919955766,0.004561337992477794
171,0.00026229678071179575,0.004561337992477794
172,0.00026229678071179575,0.004641361466030036
173,0.00026391589664211546,0.004641361466030036
174,0.00026391589664211546,0.0046947104483981966
175,0.0002655350125724352,0.0046947104483981966
176,0.0002655350125724352,0.0047747339219504385
177,0.0002671541285027549,0.0047747339219504385
178,0.0002671541285027549,0.00480140841313452
179,0.0002703923603633944,0.00480140841313452
180,0.0002703923603633944,0.00485475739550268
181,0.00027363059222403383,0.00485475739550268
182,0.00027363059222403383,0.004881431886686762
183,0.00027524970815435355,0.004881431886686762
184,0.00027524970815435355,0.004908106377870842
185,0.00027686882408467327,0.004908106377870842
186,0.00027686882408467327,0.004961455360239004
187,0.00028010705594531276,0.004961455360239004
188,0.00028010705594531276,0.004988129851423084
189,0.0002817261718756325,0.004988129851423084
190,0.0002817261718756325,0.0050414788337912455
191,0.0002833452878059522,0.0050414788337912455
192,0.0002833452878059522,0.005068153324975326
193,0.00028820263559691135,0.005068153324975326
194,0.00028820263559691135,0.0051215023073434875
195,0.00029305998338787057,0.0051215023073434875
196,0.00029305998338787057,0.005174851289711649
197,0.00029629821524851,0.005174851289711649
198,0.00029629821524851,0.005334898236816133
199,0.0002979173311788297,0.005334898236816133
200,0.0002979173311788297,0.005361572728000213
201,0.00029953644710914944,0.005361572728000213
202,0.00029953644710914944,0.005414921710368375
203,0.0003011555630394692,0.005414921710368375
204,0.0003011555630394692,0.005441596201552455
205,0.00030439379490010865,0.005441596201552455
206,0.00030439379490010865,0.0054682706927365364
207,0.0003076320267607481,0.0054682706927365364
208,0.0003076320267607481,0.005494945183920617
209,0.0003092511426910678,0.005494945183920617
210,0.0003092511426910678,0.005574968657472859
211,0.000314108490482027,0.005574968657472859
212,0.000314108490482027,0.005601643148656939
213,0.0003205849542033059,0.005601643148656939
214,0.0003205849542033059,0.00562831763984102
215,0.0003222040701336256,0.00562831763984102
216,0.0003222040701336256,0.005654992131025101
217,0.0003238231860639454,0.005654992131025101
218,0.0003238231860639454,0.005681666622209181
219,0.0003270614179245848,0.005681666622209181
220,0.0003270614179245848,0.005761690095761423
221,0.00032868053385490454,0.005761690095761423
222,0.00032868053385490454,0.005841713569313666
223,0.00033029964978522426,0.005841713569313666
224,0.00033029964978522426,0.00600176051641815
225,0.000331918765715544,0.00600176051641815
226,0.000331918765715544,0.006081783989970392
227,0.00033353788164586375,0.006081783989970392
228,0.00033353788164586375,0.006108458481154472
229,0.0003367761135065032,0.006108458481154472
230,0.0003367761135065032,0.0061618074635226335
231,0.00034163346129746235,0.0061618074635226335
232,0.00034163346129746235,0.006215156445890794
233,0.00034487169315810184,0.006215156445890794
234,0.00034487169315810184,0.006268505428258956
235,0.00034649080908842156,0.006268505428258956
236,0.00034649080908842156,0.006295179919443037
237,0.0003481099250187413,0.006295179919443037
238,0.0003481099250187413,0.006348528901811198
239,0.000349729040949061,0.006348528901811198
240,0.000349729040949061,0.00642855237536344
241,0.0003513481568793807,0.00642855237536344
242,0.0003513481568793807,0.006455226866547521
243,0.00035296727280970043,0.006455226866547521
244,0.00035296727280970043,0.0065885993224679236
245,0.0003562055046703399,0.0065885993224679236
246,0.0003562055046703399,0.006615273813652005
247,0.00035782462060065964,0.006615273813652005
248,0.00035782462060065964,0.006695297287204247
249,0.00035944373653097936,0.006695297287204247
250,0.00035944373653097936,0.006721971778388327
251,0.0003610628524612991,0.006721971778388327
252,0.0003610628524612991,0.006775320760756489
253,0.00036592020025225824,0.006775320760756489
254,0.00036592020025225824,0.006801995251940569
255,0.00036915843211289773,0.006801995251940569
256,0.00036915843211289773,0.006855344234308731
257,0.0003772540117644964,0.006855344234308731
258,0.0003772540117644964,0.006962042199045053
259,0.0003788731276948161,0.006962042199045053
260,0.0003788731276948161,0.006988716690229134
261,0.00038211135955545553,0.006988716690229134
262,0.00038211135955545553,0.0070153911814132145
263,0.0003869687073464147,0.0070153911814132145
264,0.0003869687073464147,0.007042065672597295
265,0.00038858782327673446,0.007042065672597295
266,0.00038858782327673446,0.007068740163781376
267,0.0003902069392070542,0.007068740163781376
268,0.0003902069392070542,0.007122089146149537
269,0.0003918260551373739,0.007122089146149537
270,0.0003918260551373739,0.00722878711088586
271,0.0003934451710676936,0.00722878711088586
272,0.0003934451710676936,0.007335485075622182
273,0.00039668340292833306,0.007335485075622182
274,0.00039668340292833306,0.0073621595668062634
275,0.00039992163478897255,0.0073621595668062634
276,0.00039992163478897255,0.007442183040358505
277,0.00040154075071929227,0.007442183040358505
278,0.00040154075071929227,0.007575555496278909
279,0.000403159866649612,0.007575555496278909
280,0.000403159866649612,0.00762890447864707
281,0.0004047789825799317,0.00762890447864707
282,0.0004047789825799317,0.007682253461015231
283,0.0004063980985102514,0.007682253461015231
284,0.0004063980985102514,0.007762276934567473
285,0.00040963633037089086,0.007762276934567473
286,0.00040963633037089086,0.0077889514257515535
287,0.00041449367816185007,0.0077889514257515535
288,0.00041449367816185007,0.007815625916935635
289,0.0004177319100224895,0.007815625916935635
290,0.0004177319100224895,0.007868974899303795
291,0.0004225892578134487,0.007868974899303795
292,0.0004225892578134487,0.007895649390487876
293,0.00042420837374376844,0.007895649390487876
294,0.00042420837374376844,0.007975672864040119
295,0.00042582748967408816,0.007975672864040119
296,0.00042582748967408816,0.00802902184640828
297,0.0004339230693256868,0.00802902184640828
298,0.0004339230693256868,0.00805569633759236
299,0.00043716130118632624,0.00805569633759236
300,0.00043716130118632624,0.008109045319960522
301,0.0004403995330469657,0.008109045319960522
302,0.0004403995330469657,0.008135719811144602
303,0.0004420186489772854,0.008135719811144602
304,0.0004420186489772854,0.008215743284696845
305,0.00044363776490760517,0.008215743284696845
306,0.00044363776490760517,0.008295766758249086
307,0.0004452568808379249,0.008295766758249086
308,0.0004452568808379249,0.008322441249433167
309,0.0004468759967682446,0.008322441249433167
310,0.0004468759967682446,0.00840246472298541
311,0.00044849511269856433,0.00840246472298541
312,0.00044849511269856433,0.00842913921416949
313,0.00045011422862888405,0.00842913921416949
314,0.00045011422862888405,0.00845581370535357
315,0.00045173334455920377,0.00845581370535357
316,0.00045173334455920377,0.00848248819653765
317,0.00045497157641984326,0.00848248819653765
318,0.00045497157641984326,0.008535837178905813
319,0.000456590692350163,0.008535837178905813
320,0.000456590692350163,0.008589186161273974
321,0.00046306715607144185,0.008589186161273974
322,0.00046306715607144185,0.008669209634826217
323,0.0004646862720017616,0.008669209634826217
324,0.0004646862720017616,0.008775907599562538
325,0.00046792450386240106,0.008775907599562538
326,0.00046792450386240106,0.008909280055482941
327,0.0004695436197927208,0.008909280055482941
328,0.0004695436197927208,0.008962629037851102
329,0.0004711627357230405,0.008962629037851102
330,0.0004711627357230405,0.009015978020219265
331,0.00047763919944431943,0.009015978020219265
332,0.00047763919944431943,0.009149350476139668
333,0.00047925831537463915,0.009149350476139668
334,0.00047925831537463915,0.009176024967323749
335,0.00048087743130495887,0.009176024967323749
336,0.00048087743130495887,0.009202699458507829
337,0.0004824965472352786,0.009202699458507829
338,0.0004824965472352786,0.00922937394969191
339,0.0004841156631655983,0.00922937394969191
340,0.0004841156631655983,0.009309397423244152
341,0.000485734779095918,0.009309397423244152
342,0.000485734779095918,0.009416095387980473
343,0.0004873538950262378,0.009416095387980473
344,0.0004873538950262378,0.009576142335084959
345,0.0004905921268868772,0.009576142335084959
346,0.0004905921268868772,0.0096561658086372
347,0.0004954494746778364,0.0096561658086372
348,0.0004954494746778364,0.00968284029982128
349,0.0004970685906081562,0.00968284029982128
350,0.0004970685906081562,0.009762863773373523
351,0.0004986877065384759,0.009762863773373523
352,0.0004986877065384759,0.009789538264557604
353,0.0005019259383991153,0.009789538264557604
354,0.0005019259383991153,0.009816212755741684
355,0.000503545054329435,0.009816212755741684
356,0.000503545054329435,0.009842887246925764
357,0.0005051641702597548,0.009842887246925764
358,0.0005051641702597548,0.009869561738109845
359,0.0005067832861900745,0.009869561738109845
360,0.0005067832861900745,0.009976259702846168
361,0.0005084024021203942,0.009976259702846168
362,0.0005084024021203942,0.010002934194030248
363,0.0005116406339810336,0.010002934194030248
364,0.0005116406339810336,0.010082957667582491
365,0.0005132597499113534,0.010082957667582491
366,0.0005132597499113534,0.010162981141134732
367,0.0005148788658416732,0.010162981141134732
368,0.0005148788658416732,0.010189655632318814
369,0.0005164979817719929,0.010189655632318814
370,0.0005164979817719929,0.010216330123502895
371,0.0005181170977023126,0.010216330123502895
372,0.0005181170977023126,0.010243004614686975
373,0.000521355329562952,0.010243004614686975
374,0.000521355329562952,0.010269679105871055
375,0.0005229744454932718,0.010269679105871055
376,0.0005229744454932718,0.010323028088239216
377,0.0005245935614235915,0.010323028088239216
378,0.0005245935614235915,0.010376377070607378
379,0.0005294509092145506,0.010376377070607378
380,0.0005294509092145506,0.01045640054415962
381,0.0005310700251448704,0.01045640054415962
382,0.0005310700251448704,0.010483075035343702
383,0.0005326891410751901,0.010483075035343702
384,0.0005326891410751901,0.010536424017711862
385,0.0005343082570055098,0.010536424017711862
386,0.0005343082570055098,0.010563098508895943
387,0.0005359273729358296,0.010563098508895943
388,0.0005359273729358296,0.010643121982448185
389,0.0005375464888661494,0.010643121982448185
390,0.0005375464888661494,0.010696470964816346
391,0.0005391656047964691,0.010696470964816346
392,0.0005391656047964691,0.010723145456000427
393,0.0005440229525874282,0.010723145456000427
394,0.0005440229525874282,0.010776494438368587
395,0.0005456420685177479,0.010776494438368587
396,0.0005456420685177479,0.01085651791192083
397,0.0005472611844480677,0.01085651791192083
398,0.0005472611844480677,0.010936541385473073
399,0.0005488803003783874,0.010936541385473073
400,0.0005488803003783874,0.010963215876657153
401,0.0005504994163087071,0.010963215876657153
402,0.0005504994163087071,0.011069913841393475
403,0.0005537376481693465,0.011069913841393475
404,0.0005537376481693465,0.011096588332577557
405,0.0005553567640996663,0.011096588332577557
406,0.0005553567640996663,0.011123262823761637
407,0.000556975880029986,0.011123262823761637
408,0.000556975880029986,0.011309984262050201
409,0.0005585949959603058,0.011309984262050201
410,0.0005585949959603058,0.011336658753234282
411,0.0005666905756119044,0.011336658753234282
412,0.0005666905756119044,0.011496705700338766
413,0.0005683096915422241,0.011496705700338766
414,0.0005683096915422241,0.011550054682706928
415,0.0005731670393331833,0.011550054682706928
416,0.0005731670393331833,0.01165675264744325
417,0.000574786155263503,0.01165675264744325
418,0.000574786155263503,0.011710101629811412
419,0.0005780243871241424,0.011710101629811412
420,0.0005780243871241424,0.011736776120995492
421,0.0005796435030544623,0.011736776120995492
422,0.0005796435030544623,0.011816799594547733
423,0.0005828817349151017,0.011816799594547733
424,0.0005828817349151017,0.011843474085731815
425,0.0005845008508454214,0.011843474085731815
426,0.0005845008508454214,0.011950172050468137
427,0.0005861199667757411,0.011950172050468137
428,0.0005861199667757411,0.011976846541652217
429,0.00059259643049702,0.011976846541652217
430,0.00059259643049702,0.01203019552402038
431,0.0005942155464273397,0.01203019552402038
432,0.0005942155464273397,0.012136893488756703
433,0.0005958346623576594,0.012136893488756703
434,0.0005958346623576594,0.012163567979940783
435,0.0005990728942182989,0.012163567979940783
436,0.0005990728942182989,0.012190242471124864
437,0.0006006920101486186,0.012190242471124864
438,0.0006006920101486186,0.012403638400597508
439,0.0006055493579395779,0.012403638400597508
440,0.0006055493579395779,0.01245698738296567
441,0.0006136449375911765,0.01245698738296567
442,0.0006136449375911765,0.012483661874149751
443,0.0006152640535214962,0.012483661874149751
444,0.0006152640535214962,0.012510336365333831
445,0.0006168831694518159,0.012510336365333831
446,0.0006168831694518159,0.012537010856517912
447,0.000621740517242775,0.012537010856517912
448,0.000621740517242775,0.012617034330070154
449,0.0006233596331730949,0.012617034330070154
450,0.0006233596331730949,0.012750406785990558
451,0.000628216980964054,0.012750406785990558
452,0.000628216980964054,0.012830430259542799
453,0.0006298360968943738,0.012830430259542799
454,0.0006298360968943738,0.01285710475072688
455,0.0006346934446853329,0.01285710475072688
456,0.0006346934446853329,0.01288377924191096
457,0.0006411699084066118,0.01288377924191096
458,0.0006411699084066118,0.012963802715463203
459,0.0006427890243369315,0.012963802715463203
460,0.0006427890243369315,0.013017151697831363
461,0.0006444081402672512,0.013017151697831363
462,0.0006444081402672512,0.013043826189015445
463,0.000646027256197571,0.013043826189015445
464,0.000646027256197571,0.013123849662567686
465,0.0006476463721278908,0.013123849662567686
466,0.0006476463721278908,0.01320387313611993
467,0.0006508846039885302,0.01320387313611993
468,0.0006508846039885302,0.013390594574408493
469,0.0006525037199188499,0.013390594574408493
470,0.0006525037199188499,0.013497292539144817
471,0.0006573610677098091,0.013497292539144817
472,0.0006573610677098091,0.013523967030328897
473,0.0006589801836401288,0.013523967030328897
474,0.0006589801836401288,0.013577316012697058
475,0.0006622184155007682,0.013577316012697058
476,0.0006622184155007682,0.0136573394862493
477,0.000663837531431088,0.0136573394862493
478,0.000663837531431088,0.01368401397743338
479,0.0006654566473614077,0.01368401397743338
480,0.0006654566473614077,0.013737362959801542
481,0.0006686948792220472,0.013737362959801542
482,0.0006686948792220472,0.013817386433353784
483,0.0006735522270130064,0.013817386433353784
484,0.0006735522270130064,0.013844060924537865
485,0.0006767904588736458,0.013844060924537865
486,0.0006767904588736458,0.014030782362826429
487,0.0006800286907342853,0.014030782362826429
488,0.0006800286907342853,0.01408413134519459
489,0.000681647806664605,0.01408413134519459
490,0.000681647806664605,0.014110805836378672
491,0.0006848860385252444,0.014110805836378672
492,0.0006848860385252444,0.014137480327562752
493,0.0006865051544555641,0.014137480327562752
494,0.0006865051544555641,0.014164154818746832
495,0.0006881242703858838,0.014164154818746832
496,0.0006881242703858838,0.014217503801114993
497,0.0006897433863162037,0.014217503801114993
498,0.0006897433863162037,0.014244178292299074
499,0.0006913625022465234,0.014244178292299074
500,0.0006913625022465234,0.014297527274667236
501,0.0006929816181768431,0.014297527274667236
502,0.0006929816181768431,0.014324201765851316
503,0.0006946007341071628,0.014324201765851316
504,0.0006946007341071628,0.014377550748219477
505,0.0006962198500374826,0.014377550748219477
506,0.0006962198500374826,0.01440422523940356
507,0.0006978389659678023,0.01440422523940356
508,0.0006978389659678023,0.01443089973058764
509,0.000699458081898122,0.01443089973058764
510,0.000699458081898122,0.01445757422177172
511,0.0007010771978284417,0.01445757422177172
512,0.0007010771978284417,0.014537597695323961
513,0.0007043154296890811,0.014537597695323961
514,0.0007043154296890811,0.014564272186508043
515,0.0007075536615497206,0.014564272186508043
516,0.0007075536615497206,0.014644295660060284
517,0.0007091727774800403,0.014644295660060284
518,0.0007091727774800403,0.014670970151244364
519,0.0007107918934103601,0.014670970151244364
520,0.0007107918934103601,0.014750993624796607
521,0.0007124110093406798,0.014750993624796607
522,0.0007124110093406798,0.014831017098348848
523,0.0007156492412013193,0.014831017098348848
524,0.0007156492412013193,0.014991064045453332
525,0.0007188874730619587,0.014991064045453332
526,0.0007188874730619587,0.015017738536637414
527,0.0007221257049225982,0.015017738536637414
528,0.0007221257049225982,0.015071087519005575
529,0.0007253639367832376,0.015071087519005575
530,0.0007253639367832376,0.015097762010189655
531,0.000728602168643877,0.015097762010189655
532,0.000728602168643877,0.015124436501373736
533,0.0007302212845741968,0.015124436501373736
534,0.0007302212845741968,0.015151110992557818
535,0.0007318404005045165,0.015151110992557818
536,0.0007318404005045165,0.015177785483741898
537,0.0007334595164348363,0.015177785483741898
538,0.0007334595164348363,0.015204459974925979
539,0.000735078632365156,0.015231134466110059
540,0.0007415550960864349,0.015231134466110059
541,0.0007415550960864349,0.015311157939662302
542,0.0007431742120167546,0.015311157939662302
543,0.0007431742120167546,0.015391181413214543
544,0.000746412443877394,0.015391181413214543
545,0.000746412443877394,0.015444530395582703
546,0.0007528889075986729,0.015444530395582703
547,0.0007528889075986729,0.015471204886766786
548,0.0007561271394593125,0.015471204886766786
549,0.0007561271394593125,0.015524553869134946
550,0.0007642227191109111,0.015524553869134946
551,0.0007642227191109111,0.01565792632505535
552,0.0007658418350412308,0.01565792632505535
553,0.0007658418350412308,0.01576462428979167
554,0.0007674609509715505,0.01576462428979167
555,0.0007674609509715505,0.01579129878097575
556,0.0007706991828321899,0.01579129878097575
557,0.0007706991828321899,0.015951345728080237
558,0.0007755565306231491,0.015951345728080237
559,0.0007755565306231491,0.015978020219264318
560,0.0007852712262050675,0.015978020219264318
561,0.0007852712262050675,0.016031369201632478
562,0.0007901285739960267,0.016031369201632478
563,0.0007901285739960267,0.016138067166368803
564,0.0007917476899263464,0.016138067166368803
565,0.0007917476899263464,0.016191416148736964
566,0.0007933668058566661,0.016191416148736964
567,0.0007933668058566661,0.016244765131105125
568,0.0007949859217869858,0.016244765131105125
569,0.0007949859217869858,0.016324788604657366
570,0.0007982241536476254,0.016324788604657366
571,0.0007982241536476254,0.016351463095841446
572,0.0007998432695779451,0.016351463095841446
573,0.0007998432695779451,0.016378137587025526
574,0.0008030815014385845,0.016378137587025526
575,0.0008030815014385845,0.016404812078209607
576,0.0008079388492295437,0.016404812078209607
577,0.0008079388492295437,0.01643148656939369
578,0.0008095579651598634,0.01643148656939369
579,0.0008095579651598634,0.01651151004294593
580,0.0008111770810901831,0.01651151004294593
581,0.0008111770810901831,0.016618208007682253
582,0.0008144153129508226,0.016618208007682253
583,0.0008144153129508226,0.016671556990050414
584,0.0008192726607417817,0.016671556990050414
585,0.0008192726607417817,0.016724905972418574
586,0.0008225108926024213,0.016724905972418574
587,0.0008225108926024213,0.01675158046360266
588,0.0008257491244630607,0.01675158046360266
589,0.0008257491244630607,0.0168316039371549
590,0.0008273682403933804,0.0168316039371549
591,0.0008273682403933804,0.01685827842833898
592,0.0008289873563237001,0.01685827842833898
593,0.0008289873563237001,0.01699165088425938
594,0.0008338447041146593,0.01699165088425938
595,0.0008338447041146593,0.017044999866627546
596,0.0008370829359752987,0.017044999866627546
597,0.0008370829359752987,0.017071674357811626
598,0.0008484167474875369,0.017071674357811626
599,0.0008484167474875369,0.017098348848995706
600,0.0008500358634178566,0.017098348848995706
601,0.0008500358634178566,0.017125023340179787
602,0.0008548932112088158,0.017125023340179787
603,0.0008548932112088158,0.017151697831363867
604,0.0008629887908604143,0.017151697831363867
605,0.0008629887908604143,0.017178372322547947
606,0.0008694652545816933,0.017178372322547947
607,0.0008694652545816933,0.01728507028728427
608,0.0008727034864423328,0.01728507028728427
609,0.0008727034864423328,0.01731174477846835
610,0.0008775608342332919,0.01731174477846835
611,0.0008775608342332919,0.017338419269652433
612,0.0008791799501636116,0.017338419269652433
613,0.0008791799501636116,0.017391768252020594
614,0.0008856564138848906,0.017391768252020594
615,0.0008856564138848906,0.017418442743204674
616,0.0008888946457455301,0.017418442743204674
617,0.0008888946457455301,0.017471791725572835
618,0.0008905137616758498,0.017471791725572835
619,0.0008905137616758498,0.017605164181493237
620,0.0008921328776061695,0.017605164181493237
621,0.0008921328776061695,0.017631838672677317
622,0.0008953711094668089,0.017631838672677317
623,0.0008953711094668089,0.017738536637413642
624,0.0008969902253971287,0.017738536637413642
625,0.0008969902253971287,0.017765211128597722
626,0.0008986093413274484,0.017765211128597722
627,0.0008986093413274484,0.017791885619781803
628,0.0009018475731880878,0.017791885619781803
629,0.0009018475731880878,0.017898583584518124
630,0.0009050858050487273,0.017898583584518124
631,0.0009050858050487273,0.017925258075702204
632,0.0009083240369093668,0.017925258075702204
633,0.0009083240369093668,0.01797860705807037
634,0.0009099431528396865,0.01797860705807037
635,0.0009099431528396865,0.01800528154925445
636,0.0009115622687700062,0.01800528154925445
637,0.0009115622687700062,0.01811197951399077
638,0.000913181384700326,0.01811197951399077
639,0.000913181384700326,0.01813865400517485
640,0.0009148005006306457,0.01813865400517485
641,0.0009148005006306457,0.01819200298754301
642,0.0009164196165609654,0.01819200298754301
643,0.0009164196165609654,0.018352049934647497
644,0.0009180387324912851,0.018352049934647497
645,0.0009180387324912851,0.018378724425831577
646,0.0009212769643519245,0.018378724425831577
647,0.0009212769643519245,0.018432073408199738
648,0.0009228960802822443,0.018432073408199738
649,0.0009228960802822443,0.01845874789938382
650,0.000924515196212564,0.01845874789938382
651,0.000924515196212564,0.018618794846488304
652,0.0009277534280732034,0.018618794846488304
653,0.0009277534280732034,0.018672143828856465
654,0.0009293725440035233,0.018672143828856465
655,0.0009293725440035233,0.018752167302408706
656,0.000930991659933843,0.018752167302408706
657,0.000930991659933843,0.018778841793592786
658,0.0009358490077248021,0.018778841793592786
659,0.0009358490077248021,0.018832190775960947
660,0.0009374681236551218,0.018832190775960947
661,0.0009374681236551218,0.01891221424951319
662,0.0009407063555157613,0.01891221424951319
663,0.0009407063555157613,0.018938888740697272
664,0.000942325471446081,0.018938888740697272
665,0.000942325471446081,0.018965563231881352
666,0.0009439445873764007,0.018965563231881352
667,0.0009439445873764007,0.018992237723065433
668,0.0009504210510976796,0.018992237723065433
669,0.0009504210510976796,0.019018912214249513
670,0.0009520401670279994,0.019018912214249513
671,0.0009520401670279994,0.019072261196617674
672,0.0009552783988886389,0.019072261196617674
673,0.0009552783988886389,0.019125610178985834
674,0.0009568975148189586,0.019125610178985834
675,0.0009568975148189586,0.019178959161354
676,0.000960135746679598,0.019178959161354
677,0.000960135746679598,0.01923230814372216
678,0.0009649930944705572,0.01923230814372216
679,0.0009649930944705572,0.01925898263490624
680,0.0009747077900524756,0.01925898263490624
681,0.0009747077900524756,0.0193123316172744
682,0.000977946021913115,0.0193123316172744
683,0.000977946021913115,0.01933900610845848
684,0.0009795651378434347,0.01933900610845848
685,0.0009795651378434347,0.01939235509082664
686,0.0009811842537737544,0.01939235509082664
687,0.0009811842537737544,0.019472378564378886
688,0.000984422485634394,0.019472378564378886
689,0.000984422485634394,0.019525727546747047
690,0.0009876607174950335,0.019525727546747047
691,0.0009876607174950335,0.019765797967403773
692,0.000989279833425353,0.019765797967403773
693,0.000989279833425353,0.019819146949771934
694,0.0009941371812163123,0.019819146949771934
695,0.0009941371812163123,0.019872495932140095
696,0.000995756297146632,0.019872495932140095
697,0.000995756297146632,0.019899170423324175
698,0.0009973754130769518,0.019899170423324175
699,0.0009973754130769518,0.019925844914508255
700,0.0010006136449375912,0.019925844914508255
701,0.0010006136449375912,0.019952519405692336
702,0.0010022327608679108,0.019952519405692336
703,0.0010022327608679108,0.020032542879244577
704,0.0010038518767982306,0.020032542879244577
705,0.0010038518767982306,0.020192589826349062
706,0.00100709010865887,0.020192589826349062
707,0.00100709010865887,0.020299287791085384
708,0.00100870922458919,0.020299287791085384
709,0.00100870922458919,0.02045933473818987
710,0.0010103283405195095,0.02045933473818987
711,0.0010103283405195095,0.02048600922937395
712,0.0010151856883104688,0.02048600922937395
713,0.0010151856883104688,0.02061938168529435
714,0.0010184239201711082,0.02061938168529435
715,0.0010184239201711082,0.020726079650030677
716,0.0010200430361014278,0.020726079650030677
717,0.0010200430361014278,0.020752754141214757
718,0.0010232812679620673,0.020752754141214757
719,0.0010232812679620673,0.020779428632398837
720,0.001024900383892387,0.020779428632398837
721,0.001024900383892387,0.020832777614766998
722,0.0010265194998227067,0.020832777614766998
723,0.0010265194998227067,0.020992824561871484
724,0.0010281386157530265,0.020992824561871484
725,0.0010281386157530265,0.021152871508975966
726,0.0010297577316833464,0.021152871508975966
727,0.0010297577316833464,0.021206220491344126
728,0.0010362341954046252,0.021206220491344126
729,0.0010362341954046252,0.021232894982528207
730,0.0010378533113349448,0.021232894982528207
731,0.0010378533113349448,0.021446290912000853
732,0.0010410915431955843,0.021446290912000853
733,0.0010410915431955843,0.021472965403184933
734,0.0010443297750562237,0.021472965403184933
735,0.0010443297750562237,0.02160633785910534
736,0.0010475680069168632,0.02160633785910534
737,0.0010475680069168632,0.02176638480620982
738,0.001049187122847183,0.02176638480620982
739,0.001049187122847183,0.0217930592973939
740,0.0010524253547078224,0.0217930592973939
741,0.0010524253547078224,0.021846408279762062
742,0.0010556635865684619,0.021846408279762062
743,0.0010556635865684619,0.021873082770946146
744,0.0010605209343594211,0.021873082770946146
745,0.0010605209343594211,0.021899757262130226
746,0.0010621400502897407,0.021899757262130226
747,0.0010621400502897407,0.021953106244498387
748,0.0010637591662200606,0.021953106244498387
749,0.0010637591662200606,0.022006455226866548
750,0.0010653782821503802,0.022006455226866548
751,0.0010653782821503802,0.02208647870041879
752,0.0010669973980807,0.02208647870041879
753,0.0010669973980807,0.022193176665155114
754,0.0010686165140110196,0.022193176665155114
755,0.0010686165140110196,0.022219851156339194
756,0.0010702356299413394,0.022219851156339194
757,0.0010702356299413394,0.022246525647523274
758,0.0010734738618019789,0.022246525647523274
759,0.0010734738618019789,0.022299874629891435
760,0.0010767120936626183,0.022299874629891435
761,0.0010767120936626183,0.022353223612259596
762,0.0010815694414535776,0.022353223612259596
763,0.0010815694414535776,0.022406572594627756
764,0.0010831885573838972,0.022406572594627756
765,0.0010831885573838972,0.022433247085811837
766,0.001089665021105176,0.022433247085811837
767,0.001089665021105176,0.022459921576995917
768,0.0010912841370354959,0.022459921576995917
769,0.0010912841370354959,0.02253994505054816
770,0.0010929032529658155,0.02253994505054816
771,0.0010929032529658155,0.022566619541732242
772,0.0010945223688961353,0.022566619541732242
773,0.0010945223688961353,0.022619968524100403
774,0.0010961414848264552,0.022619968524100403
775,0.0010961414848264552,0.022646643015284483
776,0.0010993797166870946,0.022646643015284483
777,0.0010993797166870946,0.022673317506468563
778,0.0011042370644780536,0.022673317506468563
779,0.0011042370644780536,0.02280668996238897
780,0.0011058561804083735,0.02280668996238897
781,0.0011058561804083735,0.02283336445357305
782,0.001107475296338693,0.02283336445357305
783,0.001107475296338693,0.02296673690949345
784,0.001109094412269013,0.02296673690949345
785,0.001109094412269013,0.02299341140067753
786,0.0011107135281993325,0.02299341140067753
787,0.0011107135281993325,0.02302008589186161
788,0.001120428223781251,0.02302008589186161
789,0.001120428223781251,0.023073434874229776
790,0.0011220473397115707,0.023073434874229776
791,0.0011220473397115707,0.023100109365413856
792,0.0011236664556418905,0.023100109365413856
793,0.0011236664556418905,0.023126783856597936
794,0.00112528557157221,0.023126783856597936
795,0.00112528557157221,0.023180132838966097
796,0.0011285238034328495,0.023180132838966097
797,0.0011285238034328495,0.023260156312518338
798,0.001131762035293489,0.023260156312518338
799,0.001131762035293489,0.02328683080370242
800,0.0011333811512238088,0.02328683080370242
801,0.0011333811512238088,0.0233135052948865
802,0.0011350002671541284,0.0233135052948865
803,0.0011350002671541284,0.023366854277254663
804,0.0011366193830844482,0.023366854277254663
805,0.0011366193830844482,0.023473552241990985
806,0.001138238499014768,0.023473552241990985
807,0.001138238499014768,0.023500226733175065
808,0.0011398576149450877,0.023500226733175065
809,0.0011398576149450877,0.023526901224359145
810,0.0011414767308754075,0.023526901224359145
811,0.0011414767308754075,0.023580250206727306
812,0.001144714962736047,0.023580250206727306
813,0.001144714962736047,0.023606924697911386
814,0.0011463340786663665,0.023606924697911386
815,0.0011463340786663665,0.023633599189095467
816,0.0011528105423876454,0.023633599189095467
817,0.0011528105423876454,0.023660273680279547
818,0.0011576678901786047,0.023660273680279547
819,0.0011576678901786047,0.02371362266264771
820,0.0011609061220392441,0.02371362266264771
821,0.0011609061220392441,0.023820320627384033
822,0.0011641443538998836,0.023820320627384033
823,0.0011641443538998836,0.023927018592120354
824,0.0011657634698302034,0.023927018592120354
825,0.0011657634698302034,0.023953693083304434
826,0.001167382585760523,0.023953693083304434
827,0.001167382585760523,0.0240070420656726
828,0.0011690017016908428,0.0240070420656726
829,0.0011690017016908428,0.02416708901277708
830,0.0011722399335514823,0.02416708901277708
831,0.0011722399335514823,0.02419376350396116
832,0.0011738590494818019,0.02419376350396116
833,0.0011738590494818019,0.024380484942249727
834,0.0011754781654121217,0.024380484942249727
835,0.0011754781654121217,0.02454053188935421
836,0.0011835737450637204,0.02454053188935421
837,0.0011835737450637204,0.024620555362906454
838,0.00118519286099404,0.024620555362906454
839,0.00118519286099404,0.024673904345274614
840,0.0011884310928546795,0.024673904345274614
841,0.0011884310928546795,0.024780602310010936
842,0.0011916693247153189,0.024780602310010936
843,0.0011916693247153189,0.024807276801195016
844,0.0011932884406456387,0.024807276801195016
845,0.0011932884406456387,0.024833951292379097
846,0.0011965266725062782,0.024833951292379097
847,0.0011965266725062782,0.02488730027474726
848,0.0011997649043669176,0.02488730027474726
849,0.0011997649043669176,0.02491397476593134
850,0.0012013840202972372,0.02491397476593134
851,0.0012013840202972372,0.024967323748299502
852,0.0012046222521578769,0.024967323748299502
853,0.0012046222521578769,0.025047347221851743
854,0.0012078604840185163,0.025047347221851743
855,0.0012078604840185163,0.025100696204219904
856,0.001209479599948836,0.025100696204219904
857,0.001209479599948836,0.025127370695403984
858,0.0012110987158791557,0.025127370695403984
859,0.0012110987158791557,0.025180719677772148
860,0.0012143369477397952,0.025180719677772148
861,0.0012143369477397952,0.02526074315132439
862,0.0012175751796004346,0.02526074315132439
863,0.0012175751796004346,0.02536744111606071
864,0.0012240516433217135,0.02536744111606071
865,0.0012240516433217135,0.025474139080797032
866,0.001227289875182353,0.025474139080797032
867,0.001227289875182353,0.025527488063165196
868,0.0012289089911126727,0.025527488063165196
869,0.0012289089911126727,0.025554162554349277
870,0.0012321472229733122,0.025554162554349277
871,0.0012321472229733122,0.025580837045533357
872,0.0012353854548339516,0.025580837045533357
873,0.0012353854548339516,0.025607511536717437
874,0.001238623686694591,0.025607511536717437
875,0.001238623686694591,0.025634186027901518
876,0.00124348103448555,0.025634186027901518
877,0.00124348103448555,0.025660860519085598
878,0.00124510015041587,0.025660860519085598
879,0.00124510015041587,0.02571420950145376
880,0.0012515766141371488,0.02571420950145376
881,0.0012515766141371488,0.02576755848382192
882,0.0012580530778584277,0.02576755848382192
883,0.0012580530778584277,0.025874256448558244
884,0.001262910425649387,0.025874256448558244
885,0.001262910425649387,0.025927605430926405
886,0.0012693868893706658,0.025927605430926405
887,0.0012693868893706658,0.026007628904478646
888,0.0012710060053009857,0.026007628904478646
889,0.0012710060053009857,0.02608765237803089
890,0.001274244237161625,0.02608765237803089
891,0.001274244237161625,0.02614100136039905
892,0.0012758633530919447,0.02614100136039905
893,0.0012758633530919447,0.026167675851583132
894,0.0012774824690222645,0.026167675851583132
895,0.0012774824690222645,0.026194350342767212
896,0.001280720700882904,0.026194350342767212
897,0.001280720700882904,0.026247699325135373
898,0.0012839589327435434,0.026247699325135373
899,0.0012839589327435434,0.026274373816319453
900,0.0012904353964648223,0.026274373816319453
901,0.0012904353964648223,0.026354397289871694
902,0.001292054512395142,0.026354397289871694
903,0.001292054512395142,0.02640774627223986
904,0.0012936736283254617,0.02640774627223986
905,0.0012936736283254617,0.02646109525460802
906,0.0012969118601861012,0.02646109525460802
907,0.0012969118601861012,0.0264877697457921
908,0.001298530976116421,0.0264877697457921
909,0.001298530976116421,0.026674491184080662
910,0.0013050074398376999,0.026674491184080662
911,0.0013050074398376999,0.026754514657632907
912,0.001309864787628659,0.026754514657632907
913,0.001309864787628659,0.026781189148816987
914,0.0013114839035589787,0.026781189148816987
915,0.0013114839035589787,0.026807863640001067
916,0.0013131030194892986,0.026807863640001067
917,0.0013131030194892986,0.026834538131185148
918,0.0013179603672802576,0.026834538131185148
919,0.0013179603672802576,0.026994585078289633
920,0.0013195794832105774,0.026994585078289633
921,0.0013195794832105774,0.027021259569473714
922,0.001321198599140897,0.027021259569473714
923,0.001321198599140897,0.027047934060657794
924,0.0013228177150712169,0.027047934060657794
925,0.0013228177150712169,0.027261329990130437
926,0.0013244368310015365,0.027261329990130437
927,0.0013244368310015365,0.0273146789724986
928,0.0013292941787924957,0.0273146789724986
929,0.0013292941787924957,0.02734135346368268
930,0.0013309132947228154,0.02734135346368268
931,0.0013309132947228154,0.02736802795486676
932,0.0013406279903047339,0.02736802795486676
933,0.0013406279903047339,0.027394702446050842
934,0.0013422471062350535,0.027394702446050842
935,0.0013422471062350535,0.027501400410787163
936,0.0013438662221653733,0.027501400410787163
937,0.0013438662221653733,0.027581423884339405
938,0.0013471044540260128,0.027581423884339405
939,0.0013471044540260128,0.02763477286670757
940,0.0013487235699563324,0.02763477286670757
941,0.0013487235699563324,0.02776814532262797
942,0.0013503426858866522,0.02776814532262797
943,0.0013503426858866522,0.02779481981381205
944,0.0013535809177472916,0.02779481981381205
945,0.0013535809177472916,0.02784816879618021
946,0.0013552000336776112,0.02784816879618021
947,0.0013552000336776112,0.027928192269732456
948,0.001356819149607931,0.027928192269732456
949,0.001356819149607931,0.027954866760916536
950,0.001358438265538251,0.027954866760916536
951,0.001358438265538251,0.028061564725652858
952,0.0013600573814685705,0.028061564725652858
953,0.0013600573814685705,0.02811491370802102
954,0.00136329561332921,0.02811491370802102
955,0.00136329561332921,0.0281415881992051
956,0.0013649147292595298,0.0281415881992051
957,0.0013649147292595298,0.028194937181573263
958,0.0013681529611201692,0.028194937181573263
959,0.0013681529611201692,0.028248286163941424
960,0.0013697720770504888,0.028248286163941424
961,0.0013697720770504888,0.028301635146309585
962,0.0013730103089111283,0.028301635146309585
963,0.0013730103089111283,0.028328309637493665
964,0.0013778676567020875,0.028328309637493665
965,0.0013778676567020875,0.028354984128677745
966,0.0013843441204233664,0.028354984128677745
967,0.0013843441204233664,0.028381658619861826
968,0.0013859632363536862,0.028381658619861826
969,0.0013859632363536862,0.028488356584598147
970,0.0013892014682143257,0.028488356584598147
971,0.0013892014682143257,0.028595054549334472
972,0.0013940588160052847,0.028595054549334472
973,0.0013940588160052847,0.028675078022886713
974,0.0013956779319356045,0.028675078022886713
975,0.0013956779319356045,0.028701752514070793
976,0.0013972970478659242,0.028701752514070793
977,0.0013972970478659242,0.028728427005254874
978,0.0014005352797265638,0.028728427005254874
979,0.0014005352797265638,0.028755101496438954
980,0.0014070117434478427,0.028755101496438954
981,0.0014070117434478427,0.02902184640827976
982,0.0014086308593781623,0.02902184640827976
983,0.0014086308593781623,0.029128544373016086
984,0.0014102499753084821,0.029128544373016086
985,0.0014102499753084821,0.029181893355384247
986,0.0014118690912388017,0.029181893355384247
987,0.0014118690912388017,0.029235242337752407
988,0.0014134882071691216,0.029235242337752407
989,0.0014134882071691216,0.029261916828936488
990,0.0014151073230994412,0.029261916828936488
991,0.0014151073230994412,0.02931526581130465
992,0.001416726439029761,0.02931526581130465
993,0.001416726439029761,0.02934194030248873
994,0.0014199646708904004,0.02934194030248873
995,0.0014199646708904004,0.02936861479367281
996,0.0014215837868207203,0.02936861479367281
997,0.0014215837868207203,0.029421963776040973
998,0.0014248220186813597,0.029421963776040973
999,0.0014248220186813597,0.029448638267225054
1000,0.0014264411346116793,0.029448638267225054
1001,0.0014264411346116793,0.029528661740777295
1002,0.0014280602505419991,0.029528661740777295
1003,0.0014280602505419991,0.029582010723145456
1004,0.0014296793664723187,0.029582010723145456
1005,0.0014296793664723187,0.029608685214329536
1006,0.0014312984824026386,0.029608685214329536
1007,0.0014312984824026386,0.029662034196697697
1008,0.0014329175983329582,0.029662034196697697
1009,0.0014329175983329582,0.029795406652618102
1010,0.0014361558301935976,0.029795406652618102
1011,0.0014361558301935976,0.029822081143802182
1012,0.001439394062054237,0.029822081143802182
1013,0.001439394062054237,0.029875430126170343
1014,0.0014410131779845569,0.029875430126170343
1015,0.0014410131779845569,0.029902104617354423
1016,0.0014458705257755161,0.029902104617354423
1017,0.0014458705257755161,0.029928779108538504
1018,0.0014474896417058358,0.029928779108538504
1019,0.0014474896417058358,0.029982128090906664
1020,0.0014507278735664752,0.029982128090906664
1021,0.0014507278735664752,0.030008802582090748
1022,0.001452346989496795,0.030008802582090748
1023,0.001452346989496795,0.03008882605564299
1024,0.0014539661054271146,0.03008882605564299
1025,0.0014539661054271146,0.03016884952919523
1026,0.0014555852213574345,0.03016884952919523
1027,0.0014555852213574345,0.030275547493931552
1028,0.001457204337287754,0.030275547493931552
1029,0.001457204337287754,0.030355570967483796
1030,0.001463680801009033,0.030355570967483796
1031,0.001463680801009033,0.030435594441036037
1032,0.0014652999169393528,0.030435594441036037
1033,0.0014652999169393528,0.03051561791458828
1034,0.0014669190328696726,0.03051561791458828
1035,0.0014669190328696726,0.03054229240577236
1036,0.0014685381487999922,0.03054229240577236
1037,0.0014685381487999922,0.030622315879324603
1038,0.0014717763806606316,0.030622315879324603
1039,0.0014717763806606316,0.030729013844060925
1040,0.0014798719603122304,0.030729013844060925
1041,0.0014798719603122304,0.030755688335245005
1042,0.00148149107624255,0.030755688335245005
1043,0.00148149107624255,0.030809037317613166
1044,0.0014831101921728698,0.030809037317613166
1045,0.0014831101921728698,0.030835711808797246
1046,0.0014847293081031894,0.030835711808797246
1047,0.0014847293081031894,0.03094240977353357
1048,0.0014863484240335092,0.03094240977353357
1049,0.0014863484240335092,0.030995758755901732
1050,0.001487967539963829,0.030995758755901732
1051,0.001487967539963829,0.031049107738269893
1052,0.001492824887754788,0.031049107738269893
1053,0.001492824887754788,0.031129131211822134
1054,0.001494444003685108,0.031129131211822134
1055,0.001494444003685108,0.031155805703006214
1056,0.0014960631196154275,0.031155805703006214
1057,0.0014960631196154275,0.031209154685374378
1058,0.0014976822355457474,0.031209154685374378
1059,0.0014976822355457474,0.03126250366774254
1060,0.001499301351476067,0.03126250366774254
1061,0.001499301351476067,0.031289178158926616
1062,0.0015009204674063868,0.031289178158926616
1063,0.0015009204674063868,0.0313158526501107
1064,0.0015057778151973459,0.0313158526501107
1065,0.0015057778151973459,0.031342527141294776
1066,0.0015090160470579855,0.031342527141294776
1067,0.0015090160470579855,0.03142255061484702
1068,0.0015138733948489446,0.03142255061484702
1069,0.0015138733948489446,0.03147589959721518
1070,0.0015203498585702234,0.03147589959721518
1071,0.0015203498585702234,0.031555923070767426
1072,0.0015219689745005433,0.031555923070767426
1073,0.0015219689745005433,0.0315825975619515
1074,0.0015235880904308629,0.0315825975619515
1075,0.0015235880904308629,0.03160927205313559
1076,0.0015252072063611827,0.03160927205313559
1077,0.0015252072063611827,0.03168929552668783
1078,0.0015284454382218221,0.03168929552668783
1079,0.0015284454382218221,0.03171597001787191
1080,0.0015300645541521417,0.03171597001787191
1081,0.0015300645541521417,0.03174264450905599
1082,0.001534921901943101,0.03174264450905599
1083,0.001534921901943101,0.03176931900024007
1084,0.0015365410178734208,0.03176931900024007
1085,0.0015365410178734208,0.03179599349142415
1086,0.0015430174815946997,0.03179599349142415
1087,0.0015430174815946997,0.031849342473792314
1088,0.0015446365975250193,0.031849342473792314
1089,0.0015446365975250193,0.03187601696497639
1090,0.0015462557134553391,0.03187601696497639
1091,0.0015462557134553391,0.031902691456160474
1092,0.0015478748293856588,0.031902691456160474
1093,0.0015478748293856588,0.031956040438528635
1094,0.0015494939453159786,0.031956040438528635
1095,0.0015494939453159786,0.03198271492971272
1096,0.0015511130612462982,0.03198271492971272
1097,0.0015511130612462982,0.03208941289444904
1098,0.0015559704090372575,0.03208941289444904
1099,0.0015559704090372575,0.03211608738563312
1100,0.0015575895249675773,0.03211608738563312
1101,0.0015575895249675773,0.0321427618768172
1102,0.001559208640897897,0.0321427618768172
1103,0.001559208640897897,0.03216943636800128
1104,0.0015608277568282167,0.03216943636800128
1105,0.0015608277568282167,0.03219611085918536
1106,0.0015624468727585363,0.03219611085918536
1107,0.0015624468727585363,0.032276134332737606
1108,0.0015640659886888562,0.032276134332737606
1109,0.0015640659886888562,0.03230280882392168
1110,0.001570542452410135,0.03230280882392168
1111,0.001570542452410135,0.03232948331510577
1112,0.0015786380320617337,0.03232948331510577
1113,0.0015786380320617337,0.032409506788658005
1114,0.0015818762639223732,0.032409506788658005
1115,0.0015818762639223732,0.03243618127984209
1116,0.0015899718435739717,0.03243618127984209
1117,0.0015899718435739717,0.032462855771026165
1118,0.0015915909595042915,0.032462855771026165
1119,0.0015915909595042915,0.03248953026221025
1120,0.001594829191364931,0.03248953026221025
1121,0.001594829191364931,0.032516204753394326
1122,0.0016013056550862098,0.032516204753394326
1123,0.0016013056550862098,0.03254287924457841
1124,0.0016029247710165296,0.03254287924457841
1125,0.0016029247710165296,0.03264957720931473
1126,0.001606163002877169,0.03264957720931473
1127,0.001606163002877169,0.03270292619168289
1128,0.0016094012347378085,0.03270292619168289
1129,0.0016094012347378085,0.032729600682866976
1130,0.0016110203506681281,0.032729600682866976
1131,0.0016110203506681281,0.03280962415641921
1132,0.001612639466598448,0.03280962415641921
1133,0.001612639466598448,0.03294299661233962
1134,0.0016207350462500466,0.03294299661233962
1135,0.0016207350462500466,0.03304969457707594
1136,0.0016255923940410057,0.03304969457707594
1137,0.0016255923940410057,0.033129718050628185
1138,0.0016288306259016451,0.033129718050628185
1139,0.0016288306259016451,0.03315639254181226
1140,0.0016336879736926044,0.03315639254181226
1141,0.0016336879736926044,0.033183067032996345
1142,0.0016369262055532438,0.033183067032996345
1143,0.0016369262055532438,0.033236416015364506
1144,0.0016466409011351621,0.033236416015364506
1145,0.0016466409011351621,0.03331643948891675
1146,0.001648260017065482,0.03331643948891675
1147,0.001648260017065482,0.03339646296246899
1148,0.0016498791329958016,0.03339646296246899
1149,0.0016498791329958016,0.03347648643602123
1150,0.001653117364856441,0.03347648643602123
1151,0.001653117364856441,0.03352983541838939
1152,0.0016547364807867608,0.03352983541838939
1153,0.0016547364807867608,0.03355650990957348
1154,0.0016563555967170805,0.03355650990957348
1155,0.0016563555967170805,0.0336632078743098
1156,0.0016628320604383596,0.0336632078743098
1157,0.0016628320604383596,0.033743231347862036
1158,0.0016644511763686792,0.033743231347862036
1159,0.0016644511763686792,0.03382325482141428
1160,0.001666070292298999,0.03382325482141428
1161,0.001666070292298999,0.0339299527861506
1162,0.0016676894082293186,0.0339299527861506
1163,0.0016676894082293186,0.03398330176851876
1164,0.001670927640089958,0.03398330176851876
1165,0.001670927640089958,0.03400997625970285
1166,0.0016741658719505975,0.03400997625970285
1167,0.0016741658719505975,0.03406332524207101
1168,0.001677404103811237,0.03406332524207101
1169,0.001677404103811237,0.03408999973325509
1170,0.0016790232197415567,0.03408999973325509
1171,0.0016790232197415567,0.03417002320680733
1172,0.0016806423356718763,0.03417002320680733
1173,0.0016806423356718763,0.034250046680359574
1174,0.0016854996834628356,0.034250046680359574
1175,0.0016854996834628356,0.034303395662727734
1176,0.0016871187993931554,0.034303395662727734
1177,0.0016871187993931554,0.034356744645095895
1178,0.001688737915323475,0.034356744645095895
1179,0.001688737915323475,0.034410093627464056
1180,0.0016935952631144343,0.034410093627464056
1181,0.0016935952631144343,0.034463442609832216
1182,0.0016968334949750738,0.034463442609832216
1183,0.0016968334949750738,0.0344901171010163
1184,0.0017016908427660328,0.0344901171010163
1185,0.0017016908427660328,0.03451679159220038
1186,0.001706548190556992,0.03451679159220038
1187,0.001706548190556992,0.03457014057456854
1188,0.0017097864224176315,0.03457014057456854
1189,0.0017097864224176315,0.03459681506575262
1190,0.001713024654278271,0.03459681506575262
1191,0.001713024654278271,0.03465016404812078
1192,0.0017195011179995498,0.03465016404812078
1193,0.0017195011179995498,0.03473018752167303
1194,0.0017227393498601893,0.03473018752167303
1195,0.0017227393498601893,0.03478353650404119
1196,0.001724358465790509,0.03478353650404119
1197,0.001724358465790509,0.034810210995225264
1198,0.0017275966976511485,0.034810210995225264
1199,0.0017275966976511485,0.03483688548640935
1200,0.0017292158135814683,0.03483688548640935
1201,0.0017292158135814683,0.034863559977593425
1202,0.0017340731613724274,0.034863559977593425
1203,0.0017340731613724274,0.03497025794232975
1204,0.0017356922773027472,0.03497025794232975
1205,0.0017356922773027472,0.03499693243351383
1206,0.0017405496250937063,0.03499693243351383
1207,0.0017405496250937063,0.035023606924697914
1208,0.0017437878569543457,0.035023606924697914
1209,0.0017437878569543457,0.035076955907066075
1210,0.0017454069728846655,0.035076955907066075
1211,0.0017454069728846655,0.03515697938061831
1212,0.0017535025525362642,0.03515697938061831
1213,0.0017535025525362642,0.03521032836298647
1214,0.0017551216684665838,0.03521032836298647
1215,0.0017551216684665838,0.03523700285417056
1216,0.0017583599003272233,0.03523700285417056
1217,0.0017583599003272233,0.03529035183653872
1218,0.0017599790162575431,0.03529035183653872
1219,0.0017599790162575431,0.03537037531009096
1220,0.0017615981321878627,0.03537037531009096
1221,0.0017615981321878627,0.03542372429245912
1222,0.0017632172481181825,0.03542372429245912
1223,0.0017632172481181825,0.035477073274827284
1224,0.0017680745959091416,0.035477073274827284
1225,0.0017680745959091416,0.035583771239563605
1226,0.0017761701755607403,0.035583771239563605
1227,0.0017761701755607403,0.03566379471311585
1228,0.0017794084074213797,0.03566379471311585
1229,0.0017794084074213797,0.03577049267785217
1230,0.001784265755212339,0.03577049267785217
1231,0.001784265755212339,0.03585051615140441
1232,0.0017858848711426586,0.03585051615140441
1233,0.0017858848711426586,0.035903865133772576
1234,0.001789123103003298,0.035903865133772576
1235,0.001789123103003298,0.03593053962495665
1236,0.0017907422189336179,0.03593053962495665
1237,0.0017907422189336179,0.035983888607324814
1238,0.0017955995667245771,0.035983888607324814
1239,0.0017955995667245771,0.0360105630985089
1240,0.0017972186826548968,0.0360105630985089
1241,0.0017972186826548968,0.036090586572061135
1242,0.0017988377985852166,0.036090586572061135
1243,0.0017988377985852166,0.03611726106324522
1244,0.0018101716100974545,0.03611726106324522
1245,0.0018101716100974545,0.036143935554429296
1246,0.0018117907260277743,0.036143935554429296
1247,0.0018117907260277743,0.03617061004561338
1248,0.001813409841958094,0.03617061004561338
1249,0.001813409841958094,0.036197284536797464
1250,0.0018166480738187336,0.036197284536797464
1251,0.0018166480738187336,0.03622395902798154
1252,0.0018182671897490532,0.03622395902798154
1253,0.0018182671897490532,0.0362773080103497
1254,0.001819886305679373,0.0362773080103497
1255,0.001819886305679373,0.03633065699271786
1256,0.001819886305679373,0.036357331483901946
1257,0.0018215054216096926,0.036357331483901946
1258,0.0018215054216096926,0.036437354957454184
1259,0.0018231245375400125,0.036437354957454184
1260,0.0018231245375400125,0.03646402944863827
1261,0.001824743653470332,0.03646402944863827
1262,0.001824743653470332,0.03649070393982235
1263,0.0018279818853309715,0.03649070393982235
1264,0.0018279818853309715,0.03651737843100643
1265,0.0018296010012612913,0.03651737843100643
1266,0.0018296010012612913,0.03654405292219051
1267,0.0018328392331219308,0.03654405292219051
1268,0.0018328392331219308,0.03657072741337459
1269,0.0018360774649825702,0.03657072741337459
1270,0.0018360774649825702,0.03662407639574275
1271,0.00183769658091289,0.03662407639574275
1272,0.00183769658091289,0.03665075088692683
1273,0.0018393156968432097,0.03665075088692683
1274,0.0018393156968432097,0.03667742537811091
1275,0.001844173044634169,0.03667742537811091
1276,0.001844173044634169,0.036757448851663155
1277,0.0018457921605644885,0.036757448851663155
1278,0.0018457921605644885,0.036810797834031316
1279,0.0018474112764948084,0.036810797834031316
1280,0.0018474112764948084,0.0368374723252154
1281,0.001849030392425128,0.0368374723252154
1282,0.001849030392425128,0.03691749579876764
1283,0.0018506495083554478,0.03691749579876764
1284,0.0018506495083554478,0.03694417028995172
1285,0.0018538877402160872,0.03694417028995172
1286,0.0018538877402160872,0.03699751927231988
1287,0.0018555068561464068,0.03699751927231988
1288,0.0018555068561464068,0.03702419376350396
1289,0.0018603642039373661,0.03702419376350396
1290,0.0018603642039373661,0.03705086825468804
1291,0.0018636024357980055,0.03705086825468804
1292,0.0018636024357980055,0.037264264184160685
1293,0.0018700788995192844,0.037264264184160685
1294,0.0018700788995192844,0.037317613166528846
1295,0.0018716980154496043,0.037317613166528846
1296,0.0018716980154496043,0.037370962148897006
1297,0.0018749362473102437,0.037370962148897006
1298,0.0018749362473102437,0.037424311131265174
1299,0.0018830318269618424,0.037424311131265174
1300,0.0018830318269618424,0.03745098562244925
1301,0.001884650942892162,0.03745098562244925
1302,0.001884650942892162,0.037477660113633335
1303,0.0018878891747528014,0.037477660113633335
1304,0.0018878891747528014,0.037531009096001496
1305,0.0018895082906831213,0.037531009096001496
1306,0.0018895082906831213,0.037584358078369656
1307,0.0018911274066134409,0.037584358078369656
1308,0.0018911274066134409,0.03763770706073782
1309,0.0018927465225437607,0.03763770706073782
1310,0.0018927465225437607,0.03769105604310598
1311,0.0018943656384740803,0.03769105604310598
1312,0.0018943656384740803,0.03774440502547414
1313,0.0018976038703347198,0.03774440502547414
1314,0.0018976038703347198,0.0377977540078423
1315,0.0018992229862650396,0.0377977540078423
1316,0.0018992229862650396,0.03782442849902638
1317,0.0019040803340559988,0.03782442849902638
1318,0.0019040803340559988,0.03795780095494678
1319,0.001908937681846958,0.03795780095494678
1320,0.001908937681846958,0.038037824428499026
1321,0.0019154141455682368,0.038037824428499026
1322,0.0019154141455682368,0.03811784790205127
1323,0.0019170332614985566,0.03811784790205127
1324,0.0019170332614985566,0.03819787137560351
1325,0.001920271493359196,0.03819787137560351
1326,0.001920271493359196,0.03822454586678759
1327,0.0019218906092895156,0.03822454586678759
1328,0.0019218906092895156,0.03825122035797167
1329,0.0019235097252198355,0.03825122035797167
1330,0.0019235097252198355,0.03827789484915575
1331,0.0019251288411501553,0.03827789484915575
1332,0.0019251288411501553,0.038304569340339836
1333,0.0019299861889411143,0.038304569340339836
1334,0.0019299861889411143,0.03833124383152391
1335,0.0019332244208017538,0.03833124383152391
1336,0.0019332244208017538,0.038357918322708
1337,0.0019348435367320736,0.038357918322708
1338,0.0019348435367320736,0.038384592813892074
1339,0.0019397008845230327,0.038384592813892074
1340,0.0019397008845230327,0.03841126730507616
1341,0.001942939116383672,0.03841126730507616
1342,0.001942939116383672,0.038544639760996556
1343,0.0019510346960352708,0.038544639760996556
1344,0.0019510346960352708,0.038597988743364724
1345,0.0019591302756868695,0.038597988743364724
1346,0.0019591302756868695,0.0386246632345488
1347,0.0019623685075475087,0.0386246632345488
1348,0.0019623685075475087,0.03873136119928512
1349,0.0019704640871991076,0.03873136119928512
1350,0.0019704640871991076,0.03878471018165328
1351,0.0019720832031294273,0.03878471018165328
1352,0.0019720832031294273,0.03889140814638961
1353,0.001975321434990067,0.03889140814638961
1354,0.001975321434990067,0.03891808263757369
1355,0.001978559666850706,0.03891808263757369
1356,0.001978559666850706,0.03894475712875777
1357,0.0019817978987113458,0.03894475712875777
1358,0.0019817978987113458,0.03897143161994185
1359,0.0019834170146416654,0.03897143161994185
1360,0.0019834170146416654,0.03899810611112593
1361,0.001985036130571985,0.03899810611112593
1362,0.001985036130571985,0.03902478060231001
1363,0.0019882743624326247,0.03902478060231001
1364,0.0019882743624326247,0.03907812958467817
1365,0.0019898934783629443,0.03907812958467817
1366,0.0019898934783629443,0.039104804075862254
1367,0.0019947508261539035,0.039104804075862254
1368,0.0019947508261539035,0.03918482754941449
1369,0.001996369942084223,0.03918482754941449
1370,0.001996369942084223,0.03923817653178266
1371,0.0020012272898751824,0.03923817653178266
1372,0.0020012272898751824,0.03929152551415082
1373,0.0020044655217358216,0.03929152551415082
1374,0.0020044655217358216,0.03937154898770306
1375,0.0020077037535964613,0.03937154898770306
1376,0.0020077037535964613,0.03939822347888714
1377,0.0020109419854571005,0.03939822347888714
1378,0.0020109419854571005,0.03942489797007122
1379,0.0020157993332480598,0.03942489797007122
1380,0.0020157993332480598,0.039611619408359784
1381,0.00201741844917838,0.039611619408359784
1382,0.00201741844917838,0.03969164288191203
1383,0.002020656681039019,0.03969164288191203
1384,0.002020656681039019,0.039771666355464266
1385,0.0020222757969693386,0.039771666355464266
1386,0.0020222757969693386,0.03985168982901651
1387,0.0020238949128996587,0.03985168982901651
1388,0.0020238949128996587,0.039931713302568755
1389,0.0020255140288299783,0.039931713302568755
1390,0.0020255140288299783,0.04003841126730508
1391,0.0020287522606906175,0.04003841126730508
1392,0.0020287522606906175,0.04011843474085732
1393,0.0020303713766209376,0.04011843474085732
1394,0.0020303713766209376,0.04017178372322548
1395,0.002031990492551257,0.04017178372322548
1396,0.002031990492551257,0.04022513270559364
1397,0.0020336096084815768,0.04022513270559364
1398,0.0020336096084815768,0.04035850516151404
1399,0.002035228724411897,0.04035850516151404
1400,0.002035228724411897,0.04054522659980261
1401,0.0020368478403422164,0.04054522659980261
1402,0.0020368478403422164,0.04065192456453893
1403,0.002038466956272536,0.04065192456453893
1404,0.002038466956272536,0.04067859905572301
1405,0.0020400860722028557,0.04067859905572301
1406,0.0020400860722028557,0.040705273546907096
1407,0.002044943419993815,0.040705273546907096
1408,0.002044943419993815,0.04075862252927526
1409,0.0020465625359241345,0.04075862252927526
1410,0.0020465625359241345,0.04081197151164342
1411,0.002051419883715094,0.04081197151164342
1412,0.002051419883715094,0.040838646002827494
1413,0.002056277231506053,0.040838646002827494
1414,0.002056277231506053,0.04086532049401158
1415,0.002067611043018291,0.04086532049401158
1416,0.002067611043018291,0.04091866947637974
1417,0.0020708492748789304,0.04091866947637974
1418,0.0020708492748789304,0.0409720184587479
1419,0.0020724683908092505,0.0409720184587479
1420,0.0020724683908092505,0.041052041932300144
1421,0.0020757066226698897,0.041052041932300144
1422,0.0020757066226698897,0.04107871642348422
1423,0.0020789448545305293,0.04107871642348422
1424,0.0020789448545305293,0.041105390914668305
1425,0.0020821830863911686,0.041105390914668305
1426,0.0020821830863911686,0.04113206540585238
1427,0.0020838022023214886,0.04113206540585238
1428,0.0020838022023214886,0.04126543786177279
1429,0.002085421318251808,0.04126543786177279
1430,0.002085421318251808,0.04131878684414095
1431,0.002091897781973087,0.04131878684414095
1432,0.002091897781973087,0.04134546133532503
1433,0.0020951360138337263,0.04134546133532503
1434,0.0020951360138337263,0.04147883379124543
1435,0.0020967551297640464,0.04147883379124543
1436,0.0020967551297640464,0.04153218277361359
1437,0.0020999933616246856,0.04153218277361359
1438,0.0020999933616246856,0.041612206247165835
1439,0.0021064698253459645,0.041612206247165835
1440,0.0021064698253459645,0.04174557870308624
1441,0.0021080889412762845,0.04174557870308624
1442,0.0021080889412762845,0.04177225319427032
1443,0.002109708057206604,0.04177225319427032
1444,0.002109708057206604,0.04187895115900664
1445,0.0021113271731369237,0.04187895115900664
1446,0.0021113271731369237,0.041932300141374806
1447,0.0021129462890672433,0.041932300141374806
1448,0.0021129462890672433,0.04195897463255888
1449,0.0021145654049975634,0.04195897463255888
1450,0.0021145654049975634,0.04209234708847929
1451,0.002116184520927883,0.04209234708847929
1452,0.002116184520927883,0.042119021579663365
1453,0.0021178036368582026,0.042119021579663365
1454,0.0021178036368582026,0.04214569607084745
1455,0.002122660984649162,0.04214569607084745
1456,0.002122660984649162,0.042225719544399694
1457,0.0021242801005794815,0.042225719544399694
1458,0.0021242801005794815,0.04225239403558377
1459,0.002127518332440121,0.04225239403558377
1460,0.002127518332440121,0.042279068526767855
1461,0.0021291374483704407,0.04230574301795193
1462,0.0021339947961614,0.04230574301795193
1463,0.0021339947961614,0.04235909200032009
1464,0.0021372330280220392,0.04235909200032009
1465,0.0021372330280220392,0.042385766491504176
1466,0.002140471259882679,0.042385766491504176
1467,0.002140471259882679,0.04251913894742458
1468,0.0021420903758129985,0.04251913894742458
1469,0.0021420903758129985,0.04254581343860866
1470,0.0021485668395342774,0.04254581343860866
1471,0.0021485668395342774,0.04257248792979274
1472,0.0021501859554645974,0.04257248792979274
1473,0.0021501859554645974,0.0426258369121609
1474,0.002151805071394917,0.0426258369121609
1475,0.002151805071394917,0.04265251140334498
1476,0.0021534241873252366,0.04265251140334498
1477,0.0021534241873252366,0.04270586038571314
1478,0.0021550433032555562,0.04270586038571314
1479,0.0021550433032555562,0.042732534876897224
1480,0.0021566624191858763,0.042732534876897224
1481,0.0021566624191858763,0.042785883859265385
1482,0.002158281535116196,0.042785883859265385
1483,0.002158281535116196,0.042839232841633546
1484,0.002161519766976835,0.042839232841633546
1485,0.002161519766976835,0.04286590733281763
1486,0.002163138882907155,0.04286590733281763
1487,0.002163138882907155,0.042892581824001706
1488,0.0021647579988374748,0.042892581824001706
1489,0.0021647579988374748,0.04291925631518579
1490,0.002169615346628434,0.04291925631518579
1491,0.002169615346628434,0.04294593080636987
1492,0.0021712344625587536,0.04294593080636987
1493,0.0021712344625587536,0.04297260529755395
1494,0.0021744726944193933,0.04297260529755395
1495,0.0021744726944193933,0.04305262877110619
1496,0.002180949158140672,0.04305262877110619
1497,0.002180949158140672,0.04307930326229027
1498,0.0021825682740709918,0.04307930326229027
1499,0.0021825682740709918,0.04310597775347435
1500,0.0021841873900013114,0.04310597775347435
1501,0.0021841873900013114,0.043292699191762915
1502,0.002185806505931631,0.043292699191762915
1503,0.002185806505931631,0.043319373682947
1504,0.0021890447377922707,0.043319373682947
1505,0.0021890447377922707,0.043506095121235565
1506,0.0021922829696529103,0.043506095121235565
1507,0.0021922829696529103,0.0435861185947878
1508,0.002198759433374189,0.0435861185947878
1509,0.002198759433374189,0.043612793085971886
1510,0.002200378549304509,0.043612793085971886
1511,0.002200378549304509,0.04366614206834005
1512,0.002203616781165148,0.04366614206834005
1513,0.002203616781165148,0.04382618901544453
1514,0.002205235897095468,0.04382618901544453
1515,0.002205235897095468,0.04387953799781269
1516,0.002211712360816747,0.04387953799781269
1517,0.002211712360816747,0.043906212488996774
1518,0.0022133314767470665,0.043906212488996774
1519,0.0022133314767470665,0.04393288698018085
1520,0.002216569708607706,0.04393288698018085
1521,0.002216569708607706,0.04398623596254901
1522,0.0022198079404683454,0.04398623596254901
1523,0.0022198079404683454,0.04403958494491718
1524,0.002223046172328985,0.04403958494491718
1525,0.002223046172328985,0.044066259436101256
1526,0.0022246652882593047,0.044066259436101256
1527,0.0022246652882593047,0.044119608418469416
1528,0.0022311417519805836,0.044119608418469416
1529,0.0022311417519805836,0.04417295740083758
1530,0.0022440946794231413,0.04417295740083758
1531,0.0022440946794231413,0.04419963189202166
1532,0.002247332911283781,0.04419963189202166
1533,0.002247332911283781,0.04422630638320574
1534,0.00225380937500506,0.04422630638320574
1535,0.00225380937500506,0.04435967883912614
1536,0.002258666722796019,0.04435967883912614
1537,0.002258666722796019,0.04443970231267839
1538,0.0022602858387263387,0.04443970231267839
1539,0.0022602858387263387,0.04454640027741471
1540,0.0022667623024476176,0.04454640027741471
1541,0.0022667623024476176,0.044626423750966954
1542,0.002268381418377937,0.044626423750966954
1543,0.002268381418377937,0.044786470698071436
1544,0.002270000534308257,0.044786470698071436
1545,0.002270000534308257,0.04481314518925551
1546,0.0022732387661688965,0.04481314518925551
1547,0.0022732387661688965,0.04489316866280776
1548,0.002274857882099216,0.04489316866280776
1549,0.002274857882099216,0.04494651764517592
1550,0.002281334345820495,0.04494651764517592
1551,0.002281334345820495,0.04497319213636
1552,0.002282953461750815,0.04497319213636
1553,0.002282953461750815,0.04502654111872816
1554,0.0022845725776811346,0.04502654111872816
1555,0.0022845725776811346,0.04505321560991224
1556,0.002287810809541774,0.04505321560991224
1557,0.002287810809541774,0.0451065645922804
1558,0.002289429925472094,0.0451065645922804
1559,0.002289429925472094,0.045239937048200805
1560,0.0022910490414024135,0.045239937048200805
1561,0.0022910490414024135,0.04526661153938489
1562,0.002292668157332733,0.04526661153938489
1563,0.002292668157332733,0.04531996052175305
1564,0.0022942872732630527,0.04531996052175305
1565,0.0022942872732630527,0.04537330950412121
1566,0.0022959063891933727,0.04537330950412121
1567,0.0022959063891933727,0.04539998399530529
1568,0.0022975255051236924,0.04539998399530529
1569,0.0022975255051236924,0.04545333297767345
1570,0.002299144621054012,0.04545333297767345
1571,0.002299144621054012,0.04548000746885753
1572,0.002300763736984332,0.04548000746885753
1573,0.002300763736984332,0.04550668196004161
1574,0.0023023828529146516,0.04550668196004161
1575,0.0023023828529146516,0.04553335645122569
1576,0.002305621084775291,0.04553335645122569
1577,0.002305621084775291,0.04556003094240978
1578,0.002307240200705611,0.04556003094240978
1579,0.002307240200705611,0.04558670543359385
1580,0.00231047843256625,0.04558670543359385
1581,0.00231047843256625,0.04561337992477794
1582,0.0023120975484965697,0.04561337992477794
1583,0.0023120975484965697,0.045640054415962014
1584,0.002316954896287529,0.045640054415962014
1585,0.002316954896287529,0.045746752380698336
1586,0.002318574012217849,0.045746752380698336
1587,0.002318574012217849,0.045800101363066496
1588,0.0023201931281481686,0.045800101363066496
1589,0.0023201931281481686,0.045853450345434664
1590,0.002323431360008808,0.045853450345434664
1591,0.002323431360008808,0.045960148310170985
1592,0.002325050475939128,0.045960148310170985
1593,0.002325050475939128,0.04604017178372322
1594,0.0023266695918694475,0.04604017178372322
1595,0.0023266695918694475,0.04606684627490731
1596,0.002328288707799767,0.04606684627490731
1597,0.002328288707799767,0.046093520766091384
1598,0.0023299078237300867,0.046093520766091384
1599,0.0023299078237300867,0.04625356771319587
1600,0.0023331460555907264,0.04625356771319587
1601,0.0023331460555907264,0.04628024220437995
1602,0.002334765171521046,0.04628024220437995
1603,0.002334765171521046,0.04633359118674811
1604,0.0023380034033816856,0.04633359118674811
1605,0.0023380034033816856,0.046360265677932194
1606,0.002341241635242325,0.046360265677932194
1607,0.002341241635242325,0.04638694016911627
1608,0.0023444798671029645,0.04638694016911627
1609,0.0023444798671029645,0.046413614660300355
1610,0.002352575446754563,0.046413614660300355
1611,0.002352575446754563,0.046466963642668516
1612,0.0023558136786152027,0.046466963642668516
1613,0.0023558136786152027,0.0464936381338526
1614,0.0023574327945455223,0.0464936381338526
1615,0.0023574327945455223,0.046520312625036676
1616,0.0023606710264061615,0.046520312625036676
1617,0.0023606710264061615,0.04654698711622076
1618,0.0023687666060577604,0.04654698711622076
1619,0.0023687666060577604,0.04657366160740484
1620,0.00237038572198808,0.04657366160740484
1621,0.00237038572198808,0.04665368508095708
1622,0.0023752430697790393,0.04665368508095708
1623,0.0023752430697790393,0.04668035957214116
1624,0.002376862185709359,0.04668035957214116
1625,0.002376862185709359,0.046733708554509326
1626,0.0023784813016396785,0.046733708554509326
1627,0.0023784813016396785,0.04678705753687749
1628,0.002381719533500318,0.04678705753687749
1629,0.002381719533500318,0.04684040651924565
1630,0.0023833386494306378,0.04684040651924565
1631,0.0023833386494306378,0.046867081010429724
1632,0.002384957765360958,0.046867081010429724
1633,0.002384957765360958,0.04702712795753421
1634,0.0023865768812912774,0.04702712795753421
1635,0.0023865768812912774,0.04705380244871829
1636,0.0023914342290822367,0.04705380244871829
1637,0.0023914342290822367,0.047080476939902374
1638,0.0023930533450125563,0.047080476939902374
1639,0.0023930533450125563,0.04710715143108645
1640,0.0023962915768731955,0.04710715143108645
1641,0.0023962915768731955,0.047133825922270535
1642,0.002399529808733835,0.047133825922270535
1643,0.002399529808733835,0.047187174904638696
1644,0.002401148924664155,0.047187174904638696
1645,0.002401148924664155,0.04721384939582277
1646,0.0024043871565247944,0.04721384939582277
1647,0.0024043871565247944,0.04729387286937502
1648,0.0024076253883854337,0.04729387286937502
1649,0.0024076253883854337,0.04734722185174318
1650,0.0024092445043157537,0.04734722185174318
1651,0.0024092445043157537,0.04742724532529542
1652,0.0024108636202460733,0.04742724532529542
1653,0.0024108636202460733,0.0474539198164795
1654,0.0024141018521067125,0.0474539198164795
1655,0.0024141018521067125,0.047533943290031744
1656,0.0024205783158279914,0.047533943290031744
1657,0.0024205783158279914,0.04756061778121582
1658,0.002423816547688631,0.04756061778121582
1659,0.002423816547688631,0.04761396676358398
1660,0.0024254356636189507,0.04761396676358398
1661,0.0024254356636189507,0.047693990237136226
1662,0.0024254356636189507,0.04774733921950439
1663,0.0024270547795492703,0.04774733921950439
1664,0.0024270547795492703,0.04780068820187255
1665,0.0024286738954795903,0.04780068820187255
1666,0.0024286738954795903,0.04782736269305663
1667,0.00243029301140991,0.04782736269305663
1668,0.00243029301140991,0.04785403718424071
1669,0.0024319121273402296,0.04785403718424071
1670,0.0024319121273402296,0.04788071167542479
1671,0.0024383885910615084,0.04788071167542479
1672,0.0024383885910615084,0.04798740964016111
1673,0.0024400077069918285,0.04798740964016111
1674,0.0024400077069918285,0.0480140841313452
1675,0.002441626822922148,0.0480140841313452
1676,0.002441626822922148,0.048040758622529274
1677,0.0024432459388524677,0.048040758622529274
1678,0.0024432459388524677,0.04806743311371336
1679,0.0024464841707131074,0.04806743311371336
1680,0.0024464841707131074,0.048094107604897435
1681,0.002448103286643427,0.048094107604897435
1682,0.002448103286643427,0.048200805569633756
1683,0.0024513415185040666,0.048200805569633756
1684,0.0024513415185040666,0.04822748006081784
1685,0.0024529606344343862,0.04822748006081784
1686,0.0024529606344343862,0.048254154552001924
1687,0.0024561988662950254,0.048254154552001924
1688,0.0024561988662950254,0.048307503534370085
1689,0.002459437098155665,0.048307503534370085
1690,0.002459437098155665,0.04846755048147457
1691,0.0024610562140859847,0.04846755048147457
1692,0.0024610562140859847,0.048494224972658644
1693,0.0024626753300163043,0.048494224972658644
1694,0.0024626753300163043,0.04854757395502681
1695,0.0024642944459466244,0.04854757395502681
1696,0.0024642944459466244,0.04857424844621089
1697,0.002465913561876944,0.04860092293739497
1698,0.0024675326778072636,0.04860092293739497
1699,0.0024675326778072636,0.04862759742857905
1700,0.0024740091415285425,0.04862759742857905
1701,0.0024740091415285425,0.04868094641094721
1702,0.0024756282574588625,0.04868094641094721
1703,0.0024756282574588625,0.04873429539331537
1704,0.002477247373389182,0.04873429539331537
1705,0.002477247373389182,0.04878764437568353
1706,0.0024788664893195017,0.04878764437568353
1707,0.0024788664893195017,0.048814318866867615
1708,0.0024821047211801414,0.048814318866867615
1709,0.0024821047211801414,0.0488409933580517
1710,0.0024869620689711,0.0488409933580517
1711,0.0024869620689711,0.04889434234041986
1712,0.0024885811849014203,0.04889434234041986
1713,0.0024885811849014203,0.048921016831603936
1714,0.0024934385326923795,0.048921016831603936
1715,0.0024934385326923795,0.0489743658139721
1716,0.0024966767645530187,0.0489743658139721
1717,0.0024966767645530187,0.04908106377870842
1718,0.0024982958804833384,0.04908106377870842
1719,0.0024982958804833384,0.04913441276107658
1720,0.0024999149964136584,0.04913441276107658
1721,0.0024999149964136584,0.04916108725226066
1722,0.002501534112343978,0.04916108725226066
1723,0.002501534112343978,0.04918776174344475
1724,0.0025063914601349373,0.04918776174344475
1725,0.0025063914601349373,0.049214436234628824
1726,0.002511248807925896,0.049214436234628824
1727,0.002511248807925896,0.049267785216996984
1728,0.0025144870397865358,0.049267785216996984
1729,0.0025144870397865358,0.04934780869054923
1730,0.0025161061557168554,0.04934780869054923
1731,0.0025161061557168554,0.04940115767291739
1732,0.0025177252716471754,0.04940115767291739
1733,0.0025177252716471754,0.049427832164101466
1734,0.002519344387577495,0.049427832164101466
1735,0.002519344387577495,0.04945450665528555
1736,0.0025209635035078146,0.04945450665528555
1737,0.0025209635035078146,0.049481181146469634
1738,0.0025242017353684543,0.049481181146469634
1739,0.0025242017353684543,0.04961455360239003
1740,0.0025274399672290935,0.04961455360239003
1741,0.0025274399672290935,0.04977460054949452
1742,0.002529059083159413,0.04977460054949452
1743,0.002529059083159413,0.04982794953186268
1744,0.002530678199089733,0.04982794953186268
1745,0.002530678199089733,0.04985462402304676
1746,0.0025322973150200528,0.04985462402304676
1747,0.0025322973150200528,0.04990797300541492
1748,0.0025339164309503724,0.04990797300541492
1749,0.0025339164309503724,0.04996132198778308
1750,0.002535535546880692,0.04996132198778308
1751,0.002535535546880692,0.050041345461335325
1752,0.002537154662811012,0.050041345461335325
1753,0.002537154662811012,0.05006801995251941
1754,0.0025420120106019713,0.05006801995251941
1755,0.0025420120106019713,0.05012136893488757
1756,0.00254848847432325,0.05012136893488757
1757,0.00254848847432325,0.05017471791725573
1758,0.0025517267061838894,0.05017471791725573
1759,0.0025517267061838894,0.05028141588199205
1760,0.0025565840539748487,0.05028141588199205
1761,0.0025565840539748487,0.05030809037317613
1762,0.0025598222858354883,0.05030809037317613
1763,0.0025598222858354883,0.050361439355544296
1764,0.0025630605176961275,0.050361439355544296
1765,0.0025630605176961275,0.05038811384672837
1766,0.002567917865487087,0.05038811384672837
1767,0.002567917865487087,0.05041478833791246
1768,0.0025695369814174064,0.05041478833791246
1769,0.0025695369814174064,0.050441462829096534
1770,0.002571156097347726,0.050441462829096534
1771,0.002571156097347726,0.05052148630264878
1772,0.002572775213278046,0.05052148630264878
1773,0.002572775213278046,0.050601509776201016
1774,0.0025743943292083657,0.050601509776201016
1775,0.0025743943292083657,0.0506281842673851
1776,0.0025760134451386853,0.0506281842673851
1777,0.0025760134451386853,0.050654858758569184
1778,0.002579251676999325,0.050654858758569184
1779,0.002579251676999325,0.050708207740937344
1780,0.0025808707929296446,0.050708207740937344
1781,0.0025808707929296446,0.05073488223212142
1782,0.002582489908859964,0.05073488223212142
1783,0.002582489908859964,0.05078823121448958
1784,0.002588966372581243,0.05078823121448958
1785,0.002588966372581243,0.050814905705673666
1786,0.0025922046044418827,0.050814905705673666
1787,0.0025922046044418827,0.05086825468804183
1788,0.002597061952232842,0.05086825468804183
1789,0.002597061952232842,0.05097495265277815
1790,0.0025986810681631616,0.05097495265277815
1791,0.0025986810681631616,0.05100162714396223
1792,0.002600300184093481,0.05100162714396223
1793,0.002600300184093481,0.05102830163514631
1794,0.0026116339956057193,0.05102830163514631
1795,0.0026116339956057193,0.05105497612633039
1796,0.002613253111536039,0.05105497612633039
1797,0.002613253111536039,0.05108165061751447
1798,0.002614872227466359,0.05108165061751447
1799,0.002614872227466359,0.05110832510869855
1800,0.0026164913433966786,0.05110832510869855
1801,0.0026164913433966786,0.05113499959988263
1802,0.002619729575257318,0.05113499959988263
1803,0.002619729575257318,0.05124169756461895
1804,0.002621348691187638,0.05124169756461895
1805,0.002621348691187638,0.051268372055803035
1806,0.0026229678071179575,0.051268372055803035
1807,0.0026229678071179575,0.05140174451172344
1808,0.002624586923048277,0.05140174451172344
1809,0.002624586923048277,0.0514550934940916
1810,0.0026278251549089167,0.0514550934940916
1811,0.0026278251549089167,0.05150844247645976
1812,0.002632682502699876,0.05150844247645976
1813,0.002632682502699876,0.05153511696764384
1814,0.0026343016186301956,0.05153511696764384
1815,0.0026343016186301956,0.05158846595001201
1816,0.0026407780823514745,0.05158846595001201
1817,0.0026407780823514745,0.05161514044119608
1818,0.0026521118938637126,0.05161514044119608
1819,0.0026521118938637126,0.051668489423564244
1820,0.0026537310097940322,0.051668489423564244
1821,0.0026537310097940322,0.05169516391474833
1822,0.002655350125724352,0.05169516391474833
1823,0.002655350125724352,0.051881885353036894
1824,0.002656969241654672,0.051881885353036894
1825,0.002656969241654672,0.051988583317773215
1826,0.0026618265894456307,0.051988583317773215
1827,0.0026618265894456307,0.05206860679132545
1828,0.0026634457053759508,0.05206860679132545
1829,0.0026634457053759508,0.05209528128250954
1830,0.0026650648213062704,0.05209528128250954
1831,0.0026650648213062704,0.0521486302648777
1832,0.00266668393723659,0.0521486302648777
1833,0.00266668393723659,0.05217530475606178
1834,0.00266830305316691,0.05217530475606178
1835,0.00266830305316691,0.05222865373842994
1836,0.0026715412850275492,0.05222865373842994
1837,0.0026715412850275492,0.05225532822961402
1838,0.002673160400957869,0.05225532822961402
1839,0.002673160400957869,0.052335351703166264
1840,0.0026763986328185085,0.052335351703166264
1841,0.0026763986328185085,0.05236202619435034
1842,0.002678017748748828,0.05236202619435034
1843,0.002678017748748828,0.0524153751767185
1844,0.0026796368646791477,0.0524153751767185
1845,0.0026796368646791477,0.052442049667902585
1846,0.0026812559806094678,0.052442049667902585
1847,0.0026812559806094678,0.052548747632638906
1848,0.0026828750965397874,0.052548747632638906
1849,0.0026828750965397874,0.05257542212382299
1850,0.002684494212470107,0.05257542212382299
1851,0.002684494212470107,0.05265544559737523
1852,0.0026861133284004266,0.05265544559737523
1853,0.0026861133284004266,0.05268212008855931
1854,0.0026877324443307466,0.05268212008855931
1855,0.0026877324443307466,0.05270879457974339
1856,0.002692589792121706,0.05270879457974339
1857,0.002692589792121706,0.05278881805329563
1858,0.0026942089080520255,0.05278881805329563
1859,0.0026942089080520255,0.052842167035663794
1860,0.002695828023982345,0.052842167035663794
1861,0.002695828023982345,0.05286884152684788
1862,0.0026974471399126647,0.05286884152684788
1863,0.0026974471399126647,0.052895516018031954
1864,0.002702304487703624,0.052895516018031954
1865,0.002702304487703624,0.052948865000400115
1866,0.002708780951424903,0.052948865000400115
1867,0.002708780951424903,0.0529755394915842
1868,0.0027120191832855425,0.0529755394915842
1869,0.0027120191832855425,0.053108911947504604
1870,0.0027249721107281003,0.053108911947504604
1871,0.0027249721107281003,0.053162260929872765
1872,0.0027282103425887395,0.053162260929872765
1873,0.0027282103425887395,0.05318893542105684
1874,0.0027298294585190595,0.05318893542105684
1875,0.0027298294585190595,0.053215609912240926
1876,0.002731448574449379,0.053215609912240926
1877,0.002731448574449379,0.053242284403425
1878,0.002734686806310019,0.053242284403425
1879,0.002734686806310019,0.05329563338579316
1880,0.0027363059222403384,0.05329563338579316
1881,0.0027363059222403384,0.053348982368161324
1882,0.002737925038170658,0.053348982368161324
1883,0.002737925038170658,0.05337565685934541
1884,0.0027460206178222565,0.05337565685934541
1885,0.0027460206178222565,0.05340233135052949
1886,0.002749258849682896,0.05340233135052949
1887,0.002749258849682896,0.05345568033289765
1888,0.0027541161974738554,0.05345568033289765
1889,0.0027541161974738554,0.05348235482408173
1890,0.002755735313404175,0.05348235482408173
1891,0.002755735313404175,0.05350902931526581
1892,0.0027589735452648147,0.05350902931526581
1893,0.0027589735452648147,0.05353570380644989
1894,0.0027654500089860936,0.05353570380644989
1895,0.0027654500089860936,0.053562378297633974
1896,0.002767069124916413,0.053562378297633974
1897,0.002767069124916413,0.05377577422710662
1898,0.002768688240846733,0.05377577422710662
1899,0.002768688240846733,0.05388247219184294
1900,0.0027719264727073725,0.05388247219184294
1901,0.0027719264727073725,0.0539358211742111
1902,0.002773545588637692,0.0539358211742111
1903,0.002773545588637692,0.05396249566539518
1904,0.0027784029364286513,0.05396249566539518
1905,0.0027784029364286513,0.054069193630131504
1906,0.0027881176320105694,0.054069193630131504
1907,0.0027881176320105694,0.05409586812131559
1908,0.0027897367479408895,0.05409586812131559
1909,0.0027897367479408895,0.05414921710368375
1910,0.002791355863871209,0.05414921710368375
1911,0.002791355863871209,0.054175891594867825
1912,0.0027962132116621683,0.054175891594867825
1913,0.0027962132116621683,0.054282589559604154
1914,0.0027994514435228076,0.054282589559604154
1915,0.0027994514435228076,0.05430926405078823
1916,0.0028010705594531276,0.05430926405078823
1917,0.0028010705594531276,0.05436261303315639
1918,0.0028026896753834472,0.05436261303315639
1919,0.0028026896753834472,0.05446931099789271
1920,0.002804308791313767,0.05446931099789271
1921,0.002804308791313767,0.05454933447144496
1922,0.0028059279072440864,0.05454933447144496
1923,0.0028059279072440864,0.05465603243618128
1924,0.0028075470231744065,0.05465603243618128
1925,0.0028075470231744065,0.05468270692736536
1926,0.0028140234868956854,0.05468270692736536
1927,0.0028140234868956854,0.054789404892101684
1928,0.002815642602826005,0.054789404892101684
1929,0.002815642602826005,0.05486942836565393
1930,0.0028172617187563246,0.05486942836565393
1931,0.0028172617187563246,0.054896102856838006
1932,0.002818880834686644,0.054896102856838006
1933,0.002818880834686644,0.05492277734802209
1934,0.002822119066547284,0.05492277734802209
1935,0.002822119066547284,0.054949451839206166
1936,0.0028285955302685627,0.054949451839206166
1937,0.0028285955302685627,0.05502947531275841
1938,0.0028318337621292024,0.05502947531275841
1939,0.0028318337621292024,0.05508282429512657
1940,0.002833452878059522,0.05508282429512657
1941,0.002833452878059522,0.05510949878631065
1942,0.0028350719939898416,0.05510949878631065
1943,0.0028350719939898416,0.05521619675104698
1944,0.0028383102258504813,0.05521619675104698
1945,0.0028383102258504813,0.05526954573341514
1946,0.002839929341780801,0.05526954573341514
1947,0.002839929341780801,0.05537624369815146
1948,0.0028415484577111205,0.05537624369815146
1949,0.0028415484577111205,0.055402918189335536
1950,0.0028480249214323993,0.055402918189335536
1951,0.0028480249214323993,0.055509616154071864
1952,0.0028496440373627194,0.055509616154071864
1953,0.0028496440373627194,0.05553629064525594
1954,0.002851263153293039,0.05553629064525594
1955,0.002851263153293039,0.0555896396276241
1956,0.0028528822692233586,0.0555896396276241
1957,0.0028528822692233586,0.05569633759236042
1958,0.0028545013851536782,0.05569633759236042
1959,0.0028545013851536782,0.05572301208354451
1960,0.0028561205010839983,0.05572301208354451
1961,0.0028561205010839983,0.055749686574728584
1962,0.0028593587329446375,0.055749686574728584
1963,0.0028593587329446375,0.05577636106591267
1964,0.002860977848874957,0.05577636106591267
1965,0.002860977848874957,0.05580303555709675
1966,0.0028642160807355968,0.05580303555709675
1967,0.0028642160807355968,0.05582971004828083
1968,0.002878788124108474,0.05582971004828083
1969,0.002878788124108474,0.05585638453946491
1970,0.002880407240038794,0.05585638453946491
1971,0.002880407240038794,0.05593640801301715
1972,0.0028820263559691138,0.05593640801301715
1973,0.0028820263559691138,0.055963082504201234
1974,0.0028836454718994334,0.055963082504201234
1975,0.0028836454718994334,0.05604310597775347
1976,0.0028901219356207123,0.05604310597775347
1977,0.0028901219356207123,0.056069780468937555
1978,0.0028949792834116715,0.056069780468937555
1979,0.0028949792834116715,0.05609645496012164
1980,0.002896598399341991,0.05609645496012164
1981,0.002896598399341991,0.056123129451305716
1982,0.002898217515272311,0.056123129451305716
1983,0.002898217515272311,0.0562831763984102
1984,0.0029079322108542293,0.0562831763984102
1985,0.0029079322108542293,0.05633652538077836
1986,0.0029095513267845493,0.05633652538077836
1987,0.0029095513267845493,0.05636319987196244
1988,0.002911170442714869,0.05636319987196244
1989,0.002911170442714869,0.056389874363146526
1990,0.0029127895586451885,0.056389874363146526
1991,0.0029127895586451885,0.0564165488543306
1992,0.002914408674575508,0.0564165488543306
1993,0.002914408674575508,0.05644322334551469
1994,0.002916027790505828,0.05644322334551469
1995,0.002916027790505828,0.05649657232788285
1996,0.002917646906436148,0.05649657232788285
1997,0.002917646906436148,0.056629944783803246
1998,0.0029192660223664674,0.056629944783803246
1999,0.0029192660223664674,0.05665661927498733
2000,0.0029241233701574267,0.05665661927498733
2001,0.0029241233701574267,0.05670996825735549
2002,0.0029257424860877463,0.05670996825735549
2003,0.0029257424860877463,0.056789991730907735
2004,0.002927361602018066,0.056789991730907735
2005,0.002927361602018066,0.05681666622209181
2006,0.002928980717948386,0.05681666622209181
2007,0.002928980717948386,0.05687001520445997
2008,0.002933838065739345,0.05687001520445997
2009,0.002933838065739345,0.05703006215156446
2010,0.0029370762975999844,0.05703006215156446
2011,0.0029370762975999844,0.05705673664274854
2012,0.002940314529460624,0.05705673664274854
2013,0.002940314529460624,0.0571100856251167
2014,0.0029435527613212633,0.0571100856251167
2015,0.0029435527613212633,0.05716343460748486
2016,0.002945171877251583,0.05716343460748486
2017,0.002945171877251583,0.057190109098668944
2018,0.002946790993181903,0.057190109098668944
2019,0.002946790993181903,0.057296807063405265
2020,0.0029516483409728618,0.057296807063405265
2021,0.0029516483409728618,0.05732348155458935
2022,0.002953267456903182,0.05732348155458935
2023,0.002953267456903182,0.05737683053695751
2024,0.0029548865728335014,0.05737683053695751
2025,0.0029548865728335014,0.05753687748406199
2026,0.002956505688763821,0.05753687748406199
2027,0.002956505688763821,0.05756355197524607
2028,0.002958124804694141,0.05756355197524607
2029,0.002958124804694141,0.05761690095761424
2030,0.0029613630365547803,0.05761690095761424
2031,0.0029613630365547803,0.0576702499399824
2032,0.00296460126841542,0.0576702499399824
2033,0.00296460126841542,0.057803622395902796
2034,0.0029662203843457396,0.057803622395902796
2035,0.0029662203843457396,0.05783029688708688
2036,0.002967839500276059,0.05783029688708688
2037,0.002967839500276059,0.057856971378270956
2038,0.002975935079927658,0.057856971378270956
2039,0.002975935079927658,0.057910320360639124
2040,0.0029791733117882973,0.057910320360639124
2041,0.0029791733117882973,0.0579369948518232
2042,0.002980792427718617,0.0579369948518232
2043,0.002980792427718617,0.058017018325375445
2044,0.002985649775509576,0.058017018325375445
2045,0.002985649775509576,0.05804369281655952
2046,0.002992126239230855,0.05804369281655952
2047,0.002992126239230855,0.058070367307743606
2048,0.0029953644710914947,0.058070367307743606
2049,0.0029953644710914947,0.05812371629011177
2050,0.0029969835870218143,0.05812371629011177
2051,0.0029969835870218143,0.058150390781295844
2052,0.002998602702952134,0.058150390781295844
2053,0.002998602702952134,0.05831043772840033
2054,0.003005079166673413,0.05831043772840033
2055,0.003005079166673413,0.05833711221958441
2056,0.003009936514464372,0.05833711221958441
2057,0.003009936514464372,0.058363786710768494
2058,0.0030115556303946917,0.058363786710768494
2059,0.0030115556303946917,0.05839046120195257
2060,0.0030147938622553314,0.05839046120195257
2061,0.0030147938622553314,0.058417135693136654
2062,0.003018032094115971,0.058417135693136654
2063,0.003018032094115971,0.05844381018432073
2064,0.00302288944190693,0.05844381018432073
2065,0.00302288944190693,0.058523833657872976
2066,0.00302450855783725,0.058523833657872976
2067,0.00302450855783725,0.05855050814905706
2068,0.0030261276737675695,0.05855050814905706
2069,0.0030261276737675695,0.058577182640241136
2070,0.0030293659056282087,0.058577182640241136
2071,0.0030293659056282087,0.05865720611379338
2072,0.0030309850215585288,0.05865720611379338
2073,0.0030309850215585288,0.05868388060497746
2074,0.0030358423693494876,0.05868388060497746
2075,0.0030358423693494876,0.05871055509616154
2076,0.0030374614852798076,0.05871055509616154
2077,0.0030374614852798076,0.05873722958734562
2078,0.003040699717140447,0.05873722958734562
2079,0.003040699717140447,0.0587639040785297
2080,0.003052033528652685,0.0587639040785297
2081,0.003052033528652685,0.058790578569713786
2082,0.0030552717605133247,0.058790578569713786
2083,0.0030552717605133247,0.058870602043266024
2084,0.003063367340164923,0.058870602043266024
2085,0.003063367340164923,0.05889727653445011
2086,0.0030649864560952427,0.05889727653445011
2087,0.0030649864560952427,0.058923951025634184
2088,0.0030730820357468417,0.058923951025634184
2089,0.0030730820357468417,0.058977300008002345
2090,0.0030747011516771613,0.058977300008002345
2091,0.0030747011516771613,0.05900397449918643
2092,0.003076320267607481,0.05900397449918643
2093,0.003076320267607481,0.059030648990370506
2094,0.0030779393835378005,0.059030648990370506
2095,0.0030779393835378005,0.05905732348155459
2096,0.00308117761539844,0.05905732348155459
2097,0.00308117761539844,0.059137346955106834
2098,0.0030827967313287598,0.059137346955106834
2099,0.0030827967313287598,0.05921737042865907
2100,0.00308441584725908,0.05921737042865907
2101,0.00308441584725908,0.059244044919843156
2102,0.0030892731950500386,0.059244044919843156
2103,0.0030892731950500386,0.05932406839339539
2104,0.003094130542840998,0.05932406839339539
2105,0.003094130542840998,0.05935074288457948
2106,0.003098987890631957,0.05935074288457948
2107,0.003098987890631957,0.05943076635813172
2108,0.0031006070065622768,0.05943076635813172
2109,0.0031006070065622768,0.05956413881405212
2110,0.0031070834702835557,0.05956413881405212
2111,0.0031070834702835557,0.05967083677878844
2112,0.0031135599340048345,0.05967083677878844
2113,0.0031135599340048345,0.059697511269972525
2114,0.0031151790499351546,0.059697511269972525
2115,0.0031151790499351546,0.05972418576115661
2116,0.003116798165865474,0.05972418576115661
2117,0.003116798165865474,0.05977753474352477
2118,0.0031216555136564334,0.05977753474352477
2119,0.0031216555136564334,0.05983088372589293
2120,0.0031248937455170727,0.05983088372589293
2121,0.0031248937455170727,0.05988423270826109
2122,0.0031265128614473923,0.05988423270826109
2123,0.0031265128614473923,0.05993758169062925
2124,0.0031281319773777123,0.05993758169062925
2125,0.0031281319773777123,0.05999093067299741
2126,0.003129751093308032,0.05999093067299741
2127,0.003129751093308032,0.060017605164181496
2128,0.003136227557029311,0.060017605164181496
2129,0.003136227557029311,0.06004427965536557
2130,0.0031394657888899505,0.06004427965536557
2131,0.0031394657888899505,0.060097628637733734
2132,0.0031507996004021886,0.060097628637733734
2133,0.0031507996004021886,0.060204326602470055
2134,0.003152418716332508,0.060204326602470055
2135,0.003152418716332508,0.060257675584838216
2136,0.003154037832262828,0.060257675584838216
2137,0.003154037832262828,0.0602843500760223
2138,0.0031572760641234675,0.0602843500760223
2139,0.0031572760641234675,0.060311024567206384
2140,0.0031605142959841067,0.060311024567206384
2141,0.0031605142959841067,0.06033769905839046
2142,0.0031621334119144263,0.06033769905839046
2143,0.0031621334119144263,0.060364373549574545
2144,0.0031637525278447464,0.060364373549574545
2145,0.0031637525278447464,0.06044439702312678
2146,0.0031669907597053856,0.06044439702312678
2147,0.0031669907597053856,0.06052442049667903
2148,0.003168609875635705,0.06052442049667903
2149,0.003168609875635705,0.06063111846141535
2150,0.0031702289915660252,0.06063111846141535
2151,0.0031702289915660252,0.06068446744378351
2152,0.003171848107496345,0.06068446744378351
2153,0.003171848107496345,0.06076449091733575
2154,0.0031750863393569845,0.06076449091733575
2155,0.0031750863393569845,0.06079116540851983
2156,0.0031783245712176237,0.06079116540851983
2157,0.0031783245712176237,0.06089786337325615
2158,0.0031799436871479433,0.06089786337325615
2159,0.0031799436871479433,0.060924537864440236
2160,0.003183181919008583,0.060924537864440236
2161,0.003183181919008583,0.06095121235562432
2162,0.0031848010349389026,0.06095121235562432
2163,0.0031848010349389026,0.060977886846808396
2164,0.0031912774986601815,0.060977886846808396
2165,0.0031912774986601815,0.06100456133799248
2166,0.0031928966145905015,0.06100456133799248
2167,0.0031928966145905015,0.06105791032036064
2168,0.003194515730520821,0.06105791032036064
2169,0.003194515730520821,0.0611112593027288
2170,0.0031961348464511407,0.0611112593027288
2171,0.0031961348464511407,0.06113793379391288
2172,0.0031977539623814603,0.06113793379391288
2173,0.0031977539623814603,0.06116460828509696
2174,0.003204230426102739,0.06116460828509696
2175,0.003204230426102739,0.06119128277628104
2176,0.0032058495420330593,0.06119128277628104
2177,0.0032058495420330593,0.06121795726746512
2178,0.003207468657963379,0.06121795726746512
2179,0.003207468657963379,0.061271306249833284
2180,0.003210706889824018,0.061271306249833284
2181,0.003210706889824018,0.061324655232201444
2182,0.0032139451216846577,0.061324655232201444
2183,0.0032139451216846577,0.061378004214569605
2184,0.0032155642376149774,0.061378004214569605
2185,0.0032155642376149774,0.06140467870575369
2186,0.0032171833535452974,0.06140467870575369
2187,0.0032171833535452974,0.061484702179305926
2188,0.003225278933196896,0.061484702179305926
2189,0.003225278933196896,0.06151137667049001
2190,0.003228517165057535,0.06151137667049001
2191,0.003228517165057535,0.061591400144042255
2192,0.0032317553969181748,0.061591400144042255
2193,0.0032317553969181748,0.061644749126410416
2194,0.003234993628778814,0.061644749126410416
2195,0.003234993628778814,0.061698098108778576
2196,0.0032398509765697732,0.061698098108778576
2197,0.0032398509765697732,0.0618047960735149
2198,0.003246327440291052,0.0618047960735149
2199,0.003246327440291052,0.06183147056469898
2200,0.003254423019942651,0.06183147056469898
2201,0.003254423019942651,0.06188481954706714
2202,0.0032560421358729707,0.06188481954706714
2203,0.0032560421358729707,0.06196484302061938
2204,0.0032625185995942495,0.06196484302061938
2205,0.0032625185995942495,0.06201819200298754
2206,0.003264137715524569,0.06201819200298754
2207,0.003264137715524569,0.062044866494171624
2208,0.003265756831454889,0.062044866494171624
2209,0.003265756831454889,0.062098215476539785
2210,0.0032689950633155284,0.062098215476539785
2211,0.0032689950633155284,0.06212488996772387
2212,0.003278709758897447,0.06212488996772387
2213,0.003278709758897447,0.062204913441276107
2214,0.003281947990758086,0.062204913441276107
2215,0.003281947990758086,0.06228493691482835
2216,0.0032868053385490454,0.06228493691482835
2217,0.0032868053385490454,0.06231161140601243
2218,0.003288424454479365,0.06231161140601243
2219,0.003288424454479365,0.06239163487956467
2220,0.003290043570409685,0.06239163487956467
2221,0.003290043570409685,0.062498332844300994
2222,0.0032916626863400047,0.062498332844300994
2223,0.0032916626863400047,0.06252500733548508
2224,0.0032932818022703243,0.06252500733548508
2225,0.0032932818022703243,0.06257835631785323
2226,0.003296520034130964,0.06257835631785323
2227,0.003296520034130964,0.06260503080903732
2228,0.0032981391500612836,0.06260503080903732
2229,0.0032981391500612836,0.06265837979140548
2230,0.003299758265991603,0.06265837979140548
2231,0.003299758265991603,0.0627650777561418
2232,0.003307853845643202,0.0627650777561418
2233,0.003307853845643202,0.06287177572087813
2234,0.0033110920775038413,0.06287177572087813
2235,0.0033110920775038413,0.06289845021206221
2236,0.003312711193434161,0.06289845021206221
2237,0.003312711193434161,0.06295179919443036
2238,0.003314330309364481,0.06295179919443036
2239,0.003314330309364481,0.06300514817679853
2240,0.00331918765715544,0.06300514817679853
2241,0.00331918765715544,0.06303182266798261
2242,0.0033224258890160794,0.06303182266798261
2243,0.0033224258890160794,0.06313852063271894
2244,0.003324045004946399,0.06313852063271894
2245,0.003324045004946399,0.063165195123903
2246,0.0033272832368070387,0.063165195123903
2247,0.0033272832368070387,0.06321854410627117
2248,0.003330521468667678,0.06321854410627117
2249,0.003330521468667678,0.06324521859745526
2250,0.003335378816458637,0.06324521859745526
2251,0.003335378816458637,0.06327189308863933
2252,0.003336997932388957,0.06327189308863933
2253,0.003336997932388957,0.06340526554455973
2254,0.003338617048319277,0.06340526554455973
2255,0.003338617048319277,0.0634586145269279
2256,0.003341855280179916,0.0634586145269279
2257,0.003341855280179916,0.06353863800048014
2258,0.0033434743961102357,0.06353863800048014
2259,0.0033434743961102357,0.0635919869828483
2260,0.0033467126279708753,0.0635919869828483
2261,0.0033467126279708753,0.06361866147403239
2262,0.0033629037872740727,0.06361866147403239
2263,0.0033629037872740727,0.06372535943876871
2264,0.0033645229032043924,0.06372535943876871
2265,0.0033645229032043924,0.06380538291232095
2266,0.003366142019134712,0.06380538291232095
2267,0.003366142019134712,0.06388540638587319
2268,0.003367761135065032,0.06388540638587319
2269,0.003367761135065032,0.06399210435060951
2270,0.0033709993669256712,0.06399210435060951
2271,0.0033709993669256712,0.06401877884179359
2272,0.003372618482855991,0.06401877884179359
2273,0.003372618482855991,0.06404545333297768
2274,0.0033758567147166305,0.06404545333297768
2275,0.0033758567147166305,0.06412547680652991
2276,0.00337747583064695,0.06412547680652991
2277,0.00337747583064695,0.06425884926245032
2278,0.0033790949465772697,0.06425884926245032
2279,0.0033790949465772697,0.0642855237536344
2280,0.0033807140625075898,0.0642855237536344
2281,0.0033807140625075898,0.06433887273600256
2282,0.0033823331784379094,0.06433887273600256
2283,0.0033823331784379094,0.06436554722718664
2284,0.003392047874019828,0.06436554722718664
2285,0.003392047874019828,0.06439222171837072
2286,0.0033936669899501475,0.06439222171837072
2287,0.0033936669899501475,0.06441889620955481
2288,0.003395286105880467,0.06441889620955481
2289,0.003395286105880467,0.06447224519192296
2290,0.0033969052218107867,0.06447224519192296
2291,0.0033969052218107867,0.06452559417429113
2292,0.0034033816855320656,0.06452559417429113
2293,0.0034033816855320656,0.06455226866547521
2294,0.0034050008014623856,0.06455226866547521
2295,0.0034050008014623856,0.06457894315665928
2296,0.0034066199173927053,0.06457894315665928
2297,0.0034066199173927053,0.06460561764784337
2298,0.0034098581492533445,0.06460561764784337
2299,0.0034098581492533445,0.0646856411213956
2300,0.003413096381113984,0.0646856411213956
2301,0.003413096381113984,0.06471231561257969
2302,0.0034147154970443037,0.06471231561257969
2303,0.003419572844835263,0.06471231561257969
2304,0.003419572844835263,0.06476566459494786
2305,0.0034244301926262223,0.06476566459494786
2306,0.0034244301926262223,0.06481901357731601
2307,0.0034276684244868615,0.06481901357731601
2308,0.0034276684244868615,0.06484568806850009
2309,0.0034357640041384604,0.06484568806850009
2310,0.0034357640041384604,0.06487236255968418
2311,0.0034390022359990996,0.06487236255968418
2312,0.0034390022359990996,0.06495238603323641
2313,0.0034406213519294197,0.06495238603323641
2314,0.0034406213519294197,0.0649790605244205
2315,0.003443859583790059,0.0649790605244205
2316,0.003443859583790059,0.06503240950678865
2317,0.0034470978156506986,0.06503240950678865
2318,0.0034470978156506986,0.06505908399797274
2319,0.0034503360475113378,0.06505908399797274
2320,0.0034503360475113378,0.0651124329803409
2321,0.0034535742793719774,0.0651124329803409
2322,0.0034535742793719774,0.06516578196270906
2323,0.003455193395302297,0.06516578196270906
2324,0.003455193395302297,0.06521913094507722
2325,0.0034600507430932563,0.06521913094507722
2326,0.0034600507430932563,0.06524580543626131
2327,0.003461669859023576,0.06524580543626131
2328,0.003461669859023576,0.06529915441862946
2329,0.003466527206814535,0.06529915441862946
2330,0.003466527206814535,0.06535250340099763
2331,0.0034713845546054944,0.06535250340099763
2332,0.0034713845546054944,0.0653791778921817
2333,0.003473003670535814,0.0653791778921817
2334,0.003473003670535814,0.06545920136573395
2335,0.0034746227864661337,0.06545920136573395
2336,0.0034746227864661337,0.06553922483928619
2337,0.0034778610183267733,0.06553922483928619
2338,0.0034778610183267733,0.06559257382165436
2339,0.0034810992501874125,0.06559257382165436
2340,0.0034810992501874125,0.0656725972952066
2341,0.003484337482048052,0.0656725972952066
2342,0.003484337482048052,0.06569927178639068
2343,0.003485956597978372,0.06569927178639068
2344,0.003485956597978372,0.06577929525994292
2345,0.0034891948298390115,0.06577929525994292
2346,0.0034891948298390115,0.065805969751127
2347,0.003490813945769331,0.065805969751127
2348,0.003490813945769331,0.06583264424231108
2349,0.0034940521776299703,0.06583264424231108
2350,0.0034940521776299703,0.06599269118941556
2351,0.0034956712935602903,0.06599269118941556
2352,0.0034956712935602903,0.06604604017178373
2353,0.003502147757281569,0.06604604017178373
2354,0.003502147757281569,0.06607271466296781
2355,0.0035053859891422084,0.06607271466296781
2356,0.0035053859891422084,0.06609938915415188
2357,0.0035102433369331677,0.06609938915415188
2358,0.0035102433369331677,0.06612606364533596
2359,0.0035199580325150862,0.06612606364533596
2360,0.0035199580325150862,0.06617941262770413
2361,0.003521577148445406,0.06617941262770413
2362,0.003521577148445406,0.0662060871188882
2363,0.0035280536121666847,0.0662060871188882
2364,0.0035280536121666847,0.06628611059244045
2365,0.003532910959957644,0.06628611059244045
2366,0.003532910959957644,0.06631278508362452
2367,0.0035377683077486032,0.06631278508362452
2368,0.0035377683077486032,0.06636613406599269
2369,0.0035426256555395625,0.06636613406599269
2370,0.0035426256555395625,0.06641948304836086
2371,0.003544244771469882,0.06641948304836086
2372,0.003544244771469882,0.0664995065219131
2373,0.0035474830033305213,0.0664995065219131
2374,0.0035474830033305213,0.06655285550428125
2375,0.0035491021192608414,0.06655285550428125
2376,0.0035491021192608414,0.06660620448664942
2377,0.00355719769891244,0.06660620448664942
2378,0.00355719769891244,0.0666328789778335
2379,0.0035588168148427595,0.0666328789778335
2380,0.0035588168148427595,0.06665955346901759
2381,0.003560435930773079,0.06665955346901759
2382,0.003560435930773079,0.06679292592493798
2383,0.003562055046703399,0.06679292592493798
2384,0.003562055046703399,0.06681960041612206
2385,0.0035733888582156373,0.06681960041612206
2386,0.0035733888582156373,0.06684627490730614
2387,0.003578246206006596,0.06684627490730614
2388,0.003578246206006596,0.06695297287204247
2389,0.0035831035537975554,0.06695297287204247
2390,0.0035831035537975554,0.0670329963455947
2391,0.003584722669727875,0.0670329963455947
2392,0.003584722669727875,0.06705967083677879
2393,0.003586341785658195,0.06705967083677879
2394,0.003586341785658195,0.06713969431033102
2395,0.0035879609015885146,0.06713969431033102
2396,0.0035879609015885146,0.06716636880151511
2397,0.0035895800175188342,0.06716636880151511
2398,0.0035895800175188342,0.06719304329269919
2399,0.0035911991334491543,0.06719304329269919
2400,0.0035911991334491543,0.06721971778388328
2401,0.003592818249379474,0.06721971778388328
2402,0.003592818249379474,0.06724639227506736
2403,0.0035944373653097935,0.06724639227506736
2404,0.0035944373653097935,0.06727306676625143
2405,0.003602532944961392,0.06727306676625143
2406,0.003602532944961392,0.06729974125743551
2407,0.0036057711768220316,0.06729974125743551
2408,0.0036057711768220316,0.06735309023980368
2409,0.0036073902927523513,0.06735309023980368
2410,0.0036073902927523513,0.06740643922217184
2411,0.0036090094086826713,0.06740643922217184
2412,0.0036090094086826713,0.06748646269572407
2413,0.003610628524612991,0.06748646269572407
2414,0.003610628524612991,0.06751313718690816
2415,0.00361710498833427,0.06751313718690816
2416,0.00361710498833427,0.06753981167809224
2417,0.0036187241042645894,0.06753981167809224
2418,0.0036187241042645894,0.06756648616927632
2419,0.003620343220194909,0.06756648616927632
2420,0.003620343220194909,0.06759316066046041
2421,0.0036252005679858683,0.06759316066046041
2422,0.0036252005679858683,0.06761983515164448
2423,0.003626819683916188,0.06761983515164448
2424,0.003626819683916188,0.06764650964282856
2425,0.003631677031707147,0.06764650964282856
2426,0.003631677031707147,0.06767318413401265
2427,0.003634915263567787,0.06767318413401265
2428,0.003634915263567787,0.06777988209874897
2429,0.0036365343794981064,0.06777988209874897
2430,0.0036365343794981064,0.06780655658993305
2431,0.003639772611358746,0.06780655658993305
2432,0.003639772611358746,0.06783323108111713
2433,0.0036430108432193853,0.06783323108111713
2434,0.0036430108432193853,0.0678599055723012
2435,0.0036478681910103446,0.0678599055723012
2436,0.0036478681910103446,0.06791325455466937
2437,0.003652725538801304,0.06791325455466937
2438,0.003652725538801304,0.06793992904585346
2439,0.0036543446547316234,0.06793992904585346
2440,0.0036543446547316234,0.06796660353703753
2441,0.003655963770661943,0.06796660353703753
2442,0.003655963770661943,0.06799327802822161
2443,0.003657582886592263,0.06799327802822161
2444,0.003657582886592263,0.06823334844887834
2445,0.0036592020025225827,0.06823334844887834
2446,0.0036592020025225827,0.06834004641361466
2447,0.0036608211184529023,0.06834004641361466
2448,0.0036608211184529023,0.06847341886953506
2449,0.003662440234383222,0.06847341886953506
2450,0.003662440234383222,0.06850009336071915
2451,0.003664059350313542,0.06850009336071915
2452,0.003664059350313542,0.06852676785190323
2453,0.003670535814034821,0.06852676785190323
2454,0.003670535814034821,0.0685534423430873
2455,0.0036721549299651404,0.0685534423430873
2456,0.0036721549299651404,0.06858011683427138
2457,0.00367539316182578,0.06858011683427138
2458,0.00367539316182578,0.06860679132545547
2459,0.0036770122777560997,0.06860679132545547
2460,0.0036770122777560997,0.06863346581663955
2461,0.003680250509616739,0.06863346581663955
2462,0.003680250509616739,0.06866014030782362
2463,0.003681869625547059,0.06866014030782362
2464,0.003681869625547059,0.06871348929019179
2465,0.0036834887414773786,0.06871348929019179
2466,0.0036834887414773786,0.06879351276374403
2467,0.003685107857407698,0.06879351276374403
2468,0.003685107857407698,0.06887353623729628
2469,0.003686726973338018,0.06887353623729628
2470,0.003686726973338018,0.06895355971084852
2471,0.003688346089268338,0.06895355971084852
2472,0.003688346089268338,0.0689802342020326
2473,0.0036899652051986575,0.0689802342020326
2474,0.0036899652051986575,0.06903358318440075
2475,0.003691584321128977,0.06903358318440075
2476,0.003691584321128977,0.06914028114913708
2477,0.0036964416689199363,0.06914028114913708
2478,0.0036964416689199363,0.06922030462268933
2479,0.0037012990167108956,0.06922030462268933
2480,0.0037012990167108956,0.06943370055216197
2481,0.003704537248571535,0.06943370055216197
2482,0.003704537248571535,0.06946037504334605
2483,0.003709394596362494,0.06946037504334605
2484,0.003709394596362494,0.06951372402571421
2485,0.0037126328282231337,0.06951372402571421
2486,0.0037126328282231337,0.06954039851689829
2487,0.0037142519441534533,0.06954039851689829
2488,0.0037142519441534533,0.06956707300808238
2489,0.0037191092919444126,0.06956707300808238
2490,0.0037191092919444126,0.06964709648163461
2491,0.003727204871596011,0.06964709648163461
2492,0.003727204871596011,0.06970044546400278
2493,0.0037304431034566508,0.06970044546400278
2494,0.0037304431034566508,0.06972711995518685
2495,0.0037320622193869704,0.06972711995518685
2496,0.0037320622193869704,0.06975379444637093
2497,0.00373368133531729,0.06975379444637093
2498,0.00373368133531729,0.0698071434287391
2499,0.0037353004512476096,0.0698071434287391
2500,0.0037353004512476096,0.06986049241110726
2501,0.0037369195671779296,0.06986049241110726
2502,0.0037369195671779296,0.06991384139347542
2503,0.003740157799038569,0.06991384139347542
2504,0.003740157799038569,0.06996719037584358
2505,0.003745015146829528,0.06996719037584358
2506,0.003745015146829528,0.06999386486702766
2507,0.0037482533786901678,0.06999386486702766
2508,0.0037482533786901678,0.07002053935821174
2509,0.0037498724946204874,0.07002053935821174
2510,0.0037498724946204874,0.07004721384939583
2511,0.003751491610550807,0.07004721384939583
2512,0.003751491610550807,0.0700738883405799
2513,0.0037531107264811266,0.0700738883405799
2514,0.0037531107264811266,0.07012723732294807
2515,0.0037563489583417663,0.07012723732294807
2516,0.0037563489583417663,0.07015391181413215
2517,0.003757968074272086,0.07015391181413215
2518,0.003757968074272086,0.07018058630531622
2519,0.0037595871902024055,0.07018058630531622
2520,0.0037595871902024055,0.0702072607965003
2521,0.0037612063061327255,0.0702072607965003
2522,0.0037612063061327255,0.07031395876123663
2523,0.0037660636539236848,0.07031395876123663
2524,0.0037660636539236848,0.07034063325242071
2525,0.0037741592335752833,0.07034063325242071
2526,0.0037741592335752833,0.07036730774360479
2527,0.003783873929157202,0.07036730774360479
2528,0.003783873929157202,0.07039398223478888
2529,0.0037854930450875214,0.07039398223478888
2530,0.0037854930450875214,0.07042065672597295
2531,0.003787112161017841,0.07042065672597295
2532,0.003787112161017841,0.07044733121715703
2533,0.0037919695088088003,0.07044733121715703
2534,0.0037919695088088003,0.0705006801995252
2535,0.00379358862473912,0.0705006801995252
2536,0.00379358862473912,0.07052735469070927
2537,0.0038016842043907184,0.07052735469070927
2538,0.0038016842043907184,0.07058070367307744
2539,0.0038033033203210384,0.07058070367307744
2540,0.0038033033203210384,0.07060737816426152
2541,0.0038065415521816776,0.07060737816426152
2542,0.0038065415521816776,0.0706340526554456
2543,0.0038130180159029565,0.0706340526554456
2544,0.0038130180159029565,0.070767425111366
2545,0.0038146371318332766,0.070767425111366
2546,0.0038146371318332766,0.07079409960255008
2547,0.003817875363693916,0.07079409960255008
2548,0.003817875363693916,0.07092747205847048
2549,0.0038211135955545554,0.07092747205847048
2550,0.0038211135955545554,0.07095414654965457
2551,0.0038243518274151947,0.07095414654965457
2552,0.0038243518274151947,0.07106084451439089
2553,0.0038259709433455143,0.07106084451439089
2554,0.0038259709433455143,0.07108751900557497
2555,0.003834066522997113,0.07108751900557497
2556,0.003834066522997113,0.07114086798794313
2557,0.003835685638927433,0.07114086798794313
2558,0.003835685638927433,0.0711942169703113
2559,0.0038437812185790313,0.0711942169703113
2560,0.0038437812185790313,0.07122089146149538
2561,0.003847019450439671,0.07122089146149538
2562,0.003847019450439671,0.0713275894262317
2563,0.0038486385663699905,0.0713275894262317
2564,0.0038486385663699905,0.07140761289978394
