,fpr,tpr
0,0.0,0.0
1,0.0,9.150805270863836e-05
2,0.0,0.002470717423133236
3,0.0,0.0026537335285505125
4,0.0,0.012719619326500732
5,0.0,0.01290263543191801
6,0.0,0.039714494875549046
7,0.0,0.039897510980966326
8,0.0,0.059937774524158126
9,5.037732617303604e-06,0.059937774524158126
10,5.037732617303604e-06,0.0715592972181552
11,5.037732617303604e-06,0.07174231332357248
12,5.037732617303604e-06,0.07485358711566618
13,5.037732617303604e-06,0.07503660322108345
14,5.037732617303604e-06,0.08857979502196194
15,5.037732617303604e-06,0.08876281112737922
16,5.037732617303604e-06,0.10560029282576867
17,1.0075465234607208e-05,0.10560029282576867
18,1.0075465234607208e-05,0.17038799414348463
19,1.5113197851910811e-05,0.17038799414348463
20,1.5113197851910811e-05,0.18118594436310395
21,1.5113197851910811e-05,0.18136896046852122
22,1.5113197851910811e-05,0.18374816983894582
23,1.5113197851910811e-05,0.1839311859443631
24,1.5113197851910811e-05,0.19143484626647145
25,2.0150930469214415e-05,0.19143484626647145
26,2.0150930469214415e-05,0.2056185944363104
27,2.0150930469214415e-05,0.20580161054172766
28,2.0150930469214415e-05,0.21120058565153735
29,2.0150930469214415e-05,0.21138360175695461
30,2.0150930469214415e-05,0.2318814055636896
31,2.0150930469214415e-05,0.23206442166910687
32,2.0150930469214415e-05,0.23490117130307467
33,2.0150930469214415e-05,0.23508418740849193
34,2.0150930469214415e-05,0.2397510980966325
35,2.518866308651802e-05,0.2397510980966325
36,2.518866308651802e-05,0.255307467057101
37,3.0226395703821623e-05,0.255307467057101
38,3.0226395703821623e-05,0.26720351390922403
39,3.526412832112523e-05,0.26720351390922403
40,3.526412832112523e-05,0.2866032210834553
41,4.030186093842883e-05,0.2866032210834553
42,4.030186093842883e-05,0.28706076134699854
43,4.533959355573244e-05,0.28706076134699854
44,4.533959355573244e-05,0.2963945827232797
45,5.037732617303604e-05,0.2963945827232797
46,5.037732617303604e-05,0.30517935578330896
47,5.037732617303604e-05,0.3053623718887262
48,5.037732617303604e-05,0.3113103953147877
49,5.5415058790339646e-05,0.3113103953147877
50,5.5415058790339646e-05,0.31982064421669104
51,6.0452791407643246e-05,0.31982064421669104
52,6.0452791407643246e-05,0.3203696925329429
53,6.0452791407643246e-05,0.32055270863836016
54,6.0452791407643246e-05,0.3344619326500732
55,6.549052402494685e-05,0.3344619326500732
56,6.549052402494685e-05,0.33784773060029283
57,7.052825664225046e-05,0.33784773060029283
58,7.052825664225046e-05,0.3588945827232797
59,7.556598925955406e-05,0.3588945827232797
60,7.556598925955406e-05,0.3628294289897511
61,8.564145449416126e-05,0.3628294289897511
62,8.564145449416126e-05,0.3635614934114202
63,9.067918711146488e-05,0.3635614934114202
64,9.067918711146488e-05,0.36731332357247437
65,9.571691972876848e-05,0.36731332357247437
66,9.571691972876848e-05,0.3785688140556369
67,0.00010075465234607208,0.3785688140556369
68,0.00010075465234607208,0.39037335285505126
69,0.00010579238496337569,0.39037335285505126
70,0.00010579238496337569,0.3926610541727672
71,0.00011083011758067929,0.3926610541727672
72,0.00011083011758067929,0.3933931185944363
73,0.00011586785019798289,0.3933931185944363
74,0.00011586785019798289,0.39540629575402636
75,0.00012090558281528649,0.39540629575402636
76,0.00012090558281528649,0.3955893118594436
77,0.0001259433154325901,0.3955893118594436
78,0.0001259433154325901,0.40711932650073207
79,0.0001309810480498937,0.40711932650073207
80,0.0001309810480498937,0.4093155197657394
81,0.00013601878066719732,0.4093155197657394
82,0.00013601878066719732,0.41087115666178625
83,0.00014105651328450092,0.41087115666178625
84,0.00014105651328450092,0.4115117130307467
85,0.00014609424590180452,0.4115117130307467
86,0.00014609424590180452,0.411694729136164
87,0.00015113197851910812,0.411694729136164
88,0.00015113197851910812,0.41206076134699854
89,0.00015616971113641172,0.41206076134699854
90,0.00015616971113641172,0.4229502196193265
91,0.00016120744375371532,0.4229502196193265
92,0.00016120744375371532,0.4239568081991215
93,0.00016624517637101892,0.4239568081991215
94,0.00016624517637101892,0.42780014641288433
95,0.00017128290898832252,0.42780014641288433
96,0.00017128290898832252,0.42825768667642755
97,0.00017632064160562615,0.42825768667642755
98,0.00017632064160562615,0.4306368960468521
99,0.00018135837422292975,0.4306368960468521
100,0.00018135837422292975,0.4312774524158126
101,0.00018639610684023335,0.4312774524158126
102,0.00018639610684023335,0.432192532942899
103,0.00019143383945753695,0.432192532942899
104,0.00019143383945753695,0.4340226939970717
105,0.00019647157207484055,0.4340226939970717
106,0.00019647157207484055,0.4356698389458272
107,0.00020150930469214415,0.4356698389458272
108,0.00020150930469214415,0.4362188872620791
109,0.00020654703730944775,0.4362188872620791
110,0.00020654703730944775,0.43695095168374815
111,0.00021158476992675138,0.43695095168374815
112,0.00021158476992675138,0.43768301610541727
113,0.00021662250254405498,0.43768301610541727
114,0.00021662250254405498,0.4382320644216691
115,0.00022166023516135858,0.4382320644216691
116,0.00022166023516135858,0.43859809663250365
117,0.00022669796777866218,0.43859809663250365
118,0.00022669796777866218,0.4387811127379209
119,0.00023173570039596578,0.4387811127379209
120,0.00023173570039596578,0.4396961932650073
121,0.00023677343301326938,0.4396961932650073
122,0.00023677343301326938,0.4400622254758419
123,0.00024181116563057298,0.4400622254758419
124,0.00024181116563057298,0.4403367496339678
125,0.0002468488982478766,0.4403367496339678
126,0.0002468488982478766,0.4404282576866764
127,0.0002518866308651802,0.4404282576866764
128,0.0002518866308651802,0.44079428989751096
129,0.0002569243634824838,0.44079428989751096
130,0.0002569243634824838,0.444088579795022
131,0.0002619620960997874,0.444088579795022
132,0.0002619620960997874,0.44491215226939973
133,0.000266999828717091,0.44491215226939973
134,0.000266999828717091,0.44811493411420206
135,0.00027203756133439464,0.44811493411420206
136,0.00027203756133439464,0.44875549048316254
137,0.0002770752939516982,0.44875549048316254
138,0.0002770752939516982,0.44903001464128844
139,0.00028211302656900184,0.44903001464128844
140,0.00028211302656900184,0.44957906295754024
141,0.0002871507591863054,0.44957906295754024
142,0.0002871507591863054,0.44994509516837483
143,0.00029218849180360904,0.44994509516837483
144,0.00029218849180360904,0.45049414348462663
145,0.0002972262244209126,0.45049414348462663
146,0.0002972262244209126,0.45195827232796487
147,0.00030226395703821624,0.45195827232796487
148,0.00030226395703821624,0.45287335285505126
149,0.0003073016896555198,0.45287335285505126
150,0.0003073016896555198,0.4533308931185944
151,0.00031233942227282344,0.4533308931185944
152,0.00031233942227282344,0.453696925329429
153,0.00031737715489012707,0.453696925329429
154,0.00031737715489012707,0.4541544655929722
155,0.00032241488750743065,0.4541544655929722
156,0.00032241488750743065,0.45479502196193267
157,0.00032745262012473427,0.45479502196193267
158,0.00032745262012473427,0.45525256222547583
159,0.00033249035274203785,0.45525256222547583
160,0.00033249035274203785,0.45689970717423134
161,0.0003375280853593415,0.45689970717423134
162,0.0003375280853593415,0.4575402635431918
163,0.00034256581797664505,0.4575402635431918
164,0.00034256581797664505,0.4594619326500732
165,0.0003526412832112523,0.4594619326500732
166,0.0003526412832112523,0.4608345534407028
167,0.0003576790158285559,0.4608345534407028
168,0.0003576790158285559,0.4621156661786237
169,0.0003627167484458595,0.4621156661786237
170,0.0003627167484458595,0.4624816983894583
171,0.0003677544810631631,0.4624816983894583
172,0.0003677544810631631,0.46257320644216693
173,0.0003727922136804667,0.46257320644216693
174,0.0003727922136804667,0.4640373352855051
175,0.0003778299462977703,0.4640373352855051
176,0.0003778299462977703,0.4663250366032211
177,0.0003828676789150739,0.4663250366032211
178,0.0003828676789150739,0.46696559297218154
179,0.00038790541153237753,0.46696559297218154
180,0.00038790541153237753,0.4670571010248902
181,0.0003929431441496811,0.4670571010248902
182,0.0003929431441496811,0.4671486090775988
183,0.00039798087676698473,0.4671486090775988
184,0.00039798087676698473,0.46724011713030744
185,0.0004030186093842883,0.46724011713030744
186,0.0004030186093842883,0.46733162518301613
187,0.00040805634200159193,0.46733162518301613
188,0.00040805634200159193,0.46769765739385066
189,0.0004130940746188955,0.46769765739385066
190,0.0004130940746188955,0.46961932650073207
191,0.00041813180723619913,0.46961932650073207
192,0.00041813180723619913,0.4716325036603221
193,0.00042316953985350276,0.4716325036603221
194,0.00042316953985350276,0.47218155197657397
195,0.00042820727247080634,0.47218155197657397
196,0.00042820727247080634,0.47263909224011713
197,0.00043324500508810996,0.47263909224011713
198,0.00043324500508810996,0.4734626647144949
199,0.00043828273770541354,0.4734626647144949
200,0.00043828273770541354,0.47483528550512444
201,0.00044332047032271716,0.47483528550512444
202,0.00044332047032271716,0.4754758418740849
203,0.00044835820294002074,0.4754758418740849
204,0.00044835820294002074,0.4761163982430454
205,0.00045339593555732436,0.4761163982430454
206,0.00045339593555732436,0.4765739385065886
207,0.00045843366817462794,0.4765739385065886
208,0.00045843366817462794,0.47767203513909223
209,0.00046347140079193157,0.47767203513909223
210,0.00046347140079193157,0.4814238653001464
211,0.0004685091334092352,0.4814238653001464
212,0.0004685091334092352,0.4830710102489019
213,0.00047354686602653877,0.4830710102489019
214,0.00047354686602653877,0.48462664714494874
215,0.0004785845986438424,0.48462664714494874
216,0.0004785845986438424,0.4864568081991215
217,0.0004886600638784495,0.4864568081991215
218,0.0004886600638784495,0.48700585651537337
219,0.0004936977964957532,0.48700585651537337
220,0.0004936977964957532,0.4873718887262079
221,0.0004987355291130568,0.4873718887262079
222,0.0004987355291130568,0.48965959004392384
223,0.0005037732617303604,0.48965959004392384
224,0.0005037732617303604,0.4912152269399707
225,0.000508810994347664,0.4912152269399707
226,0.000508810994347664,0.4916727672035139
227,0.0005138487269649676,0.4916727672035139
228,0.0005138487269649676,0.4927708638360176
229,0.0005188864595822712,0.4927708638360176
230,0.0005188864595822712,0.4931368960468521
231,0.0005239241921995748,0.4931368960468521
232,0.0005239241921995748,0.4940519765739385
233,0.0005289619248168785,0.4940519765739385
234,0.0005289619248168785,0.494692532942899
235,0.000533999657434182,0.49478404099560763
236,0.000533999657434182,0.4956076134699854
237,0.0005390373900514856,0.4956076134699854
238,0.0005390373900514856,0.4958821376281113
239,0.0005440751226687893,0.4958821376281113
240,0.0005440751226687893,0.4962481698389458
241,0.0005491128552860929,0.4962481698389458
242,0.0005491128552860929,0.49734626647144947
243,0.0005541505879033964,0.49734626647144947
244,0.0005541505879033964,0.4984443631039531
245,0.0005591883205207,0.4984443631039531
246,0.0005591883205207,0.4990849194729136
247,0.0005642260531380037,0.4990849194729136
248,0.0005642260531380037,0.5018301610541728
249,0.0005692637857553073,0.5018301610541728
250,0.0005692637857553073,0.5024707174231332
251,0.0005793392509899145,0.5024707174231332
252,0.0005793392509899145,0.5054904831625183
253,0.0005894147162245217,0.5054904831625183
254,0.0005894147162245217,0.5084187408491947
255,0.0005944524488418252,0.5084187408491947
256,0.0005944524488418252,0.5103404099560761
257,0.0005994901814591289,0.5103404099560761
258,0.0005994901814591289,0.5115300146412884
259,0.0006045279140764325,0.5115300146412884
260,0.0006045279140764325,0.5124450951683748
261,0.0006095656466937361,0.5124450951683748
262,0.0006095656466937361,0.512902635431918
263,0.0006146033793110396,0.512902635431918
264,0.0006146033793110396,0.5133601756954612
265,0.0006196411119283433,0.5133601756954612
266,0.0006196411119283433,0.5145497803806734
267,0.0006246788445456469,0.5145497803806734
268,0.0006246788445456469,0.5161054172767203
269,0.0006297165771629505,0.5161054172767203
270,0.0006297165771629505,0.516196925329429
271,0.0006347543097802541,0.516196925329429
272,0.0006347543097802541,0.517203513909224
273,0.0006448297750148613,0.517203513909224
274,0.0006448297750148613,0.5187591508052709
275,0.0006498675076321649,0.5187591508052709
276,0.0006498675076321649,0.5204978038067349
277,0.0006549052402494685,0.5204978038067349
278,0.0006549052402494685,0.5210468521229868
279,0.0006599429728667721,0.5210468521229868
280,0.0006599429728667721,0.52150439238653
281,0.0006649807054840757,0.52150439238653
282,0.0006649807054840757,0.5220534407027818
283,0.0006700184381013794,0.5220534407027818
284,0.0006700184381013794,0.522785505124451
285,0.000675056170718683,0.522785505124451
286,0.000675056170718683,0.5240666178623719
287,0.0006800939033359865,0.5240666178623719
288,0.0006800939033359865,0.5242496339677891
289,0.0006851316359532901,0.5242496339677891
290,0.0006851316359532901,0.5248901903367497
291,0.0006901693685705938,0.5248901903367497
292,0.0006901693685705938,0.5250732064421669
293,0.0006952071011878973,0.5250732064421669
294,0.0006952071011878973,0.5283674963396779
295,0.0007002448338052009,0.5283674963396779
296,0.0007002448338052009,0.5294655929721815
297,0.0007052825664225046,0.5294655929721815
298,0.0007052825664225046,0.5307467057101025
299,0.0007153580316571118,0.5307467057101025
300,0.0007153580316571118,0.5308382137628112
301,0.0007203957642744153,0.5308382137628112
302,0.0007203957642744153,0.5316617862371888
303,0.0007304712295090226,0.5316617862371888
304,0.0007304712295090226,0.5317532942898975
305,0.0007355089621263262,0.5317532942898975
306,0.0007355089621263262,0.5333089311859444
307,0.0007405466947436298,0.5333089311859444
308,0.0007405466947436298,0.5348645680819912
309,0.0007455844273609334,0.5348645680819912
310,0.0007455844273609334,0.5355966325036603
311,0.000750622159978237,0.5355966325036603
312,0.000750622159978237,0.5369692532942899
313,0.0007556598925955406,0.5369692532942899
314,0.0007556598925955406,0.537701317715959
315,0.0007606976252128442,0.537701317715959
316,0.0007606976252128442,0.5382503660322109
317,0.0007707730904474514,0.5382503660322109
318,0.0007707730904474514,0.53898243045388
319,0.0007758108230647551,0.53898243045388
320,0.0007758108230647551,0.5393484626647145
321,0.0007808485556820586,0.5393484626647145
322,0.0007808485556820586,0.5421852122986823
323,0.0007858862882993622,0.5421852122986823
324,0.0007858862882993622,0.5431918008784773
325,0.0007959617535339695,0.5431918008784773
326,0.0007959617535339695,0.5441068814055637
327,0.000800999486151273,0.5441068814055637
328,0.000800999486151273,0.5441983894582724
329,0.0008060372187685766,0.5441983894582724
330,0.0008060372187685766,0.5454795021961932
331,0.0008161126840031839,0.5454795021961932
332,0.0008161126840031839,0.5455710102489019
333,0.0008211504166204874,0.5455710102489019
334,0.0008211504166204874,0.546303074670571
335,0.000826188149237791,0.546303074670571
336,0.000826188149237791,0.5466691068814056
337,0.0008312258818550947,0.5466691068814056
338,0.0008312258818550947,0.5474011713030746
339,0.0008362636144723983,0.5474011713030746
340,0.0008362636144723983,0.5480417276720352
341,0.0008413013470897018,0.5480417276720352
342,0.0008413013470897018,0.5486822840409956
343,0.0008564145449416127,0.5486822840409956
344,0.0008564145449416127,0.549597364568082
345,0.0008614522775589162,0.549597364568082
346,0.0008614522775589162,0.5501464128843339
347,0.0008715277427935235,0.5501464128843339
348,0.0008715277427935235,0.5504209370424598
349,0.0008765654754108271,0.5504209370424598
350,0.0008765654754108271,0.5508784773060029
351,0.0008816032080281306,0.5508784773060029
352,0.0008816032080281306,0.5515190336749634
353,0.0008866409406454343,0.5515190336749634
354,0.0008866409406454343,0.5517935578330894
355,0.0008916786732627379,0.5517935578330894
356,0.0008916786732627379,0.5527086383601757
357,0.0008967164058800415,0.5527086383601757
358,0.0008967164058800415,0.5538067349926794
359,0.0009017541384973452,0.5538067349926794
360,0.0009017541384973452,0.5541727672035139
361,0.0009067918711146487,0.5541727672035139
362,0.0009067918711146487,0.5549963396778916
363,0.0009118296037319523,0.5549963396778916
364,0.0009118296037319523,0.5551793557833089
365,0.0009168673363492559,0.5551793557833089
366,0.0009168673363492559,0.5562774524158126
367,0.0009219050689665596,0.5562774524158126
368,0.0009219050689665596,0.5580161054172768
369,0.0009269428015838631,0.5580161054172768
370,0.0009269428015838631,0.5584736456808199
371,0.0009319805342011667,0.5584736456808199
372,0.0009319805342011667,0.5588396778916545
373,0.0009370182668184704,0.5588396778916545
374,0.0009370182668184704,0.5589311859443631
375,0.000942055999435774,0.5589311859443631
376,0.000942055999435774,0.5598462664714495
377,0.0009470937320530775,0.5598462664714495
378,0.0009470937320530775,0.5609443631039531
379,0.0009521314646703811,0.5609443631039531
380,0.0009521314646703811,0.5614019033674963
381,0.0009571691972876848,0.5614019033674963
382,0.0009571691972876848,0.5615849194729137
383,0.0009622069299049884,0.5615849194729137
384,0.0009622069299049884,0.5622254758418741
385,0.0009672446625222919,0.5622254758418741
386,0.0009672446625222919,0.5626830161054173
387,0.0009722823951395956,0.5626830161054173
388,0.0009722823951395956,0.5628660322108345
389,0.000977320127756899,0.5628660322108345
390,0.000977320127756899,0.5633235724743777
391,0.0009873955929915064,0.5633235724743777
392,0.0009873955929915064,0.5636896046852123
393,0.00099243332560881,0.5636896046852123
394,0.00099243332560881,0.5643301610541728
395,0.0009974710582261136,0.5643301610541728
396,0.0009974710582261136,0.5646961932650073
397,0.0010025087908434173,0.5646961932650073
398,0.0010025087908434173,0.5648792093704246
399,0.0010075465234607207,0.5648792093704246
400,0.0010075465234607207,0.5652452415812591
401,0.001017621988695328,0.5652452415812591
402,0.001017621988695328,0.5654282576866764
403,0.0010226597213126316,0.5654282576866764
404,0.0010226597213126316,0.5671669106881405
405,0.0010226597213126316,0.5673499267935578
406,0.0010276974539299352,0.5673499267935578
407,0.0010276974539299352,0.5689055636896047
408,0.0010327351865472387,0.5689055636896047
409,0.0010327351865472387,0.5689970717423133
410,0.001042810651781846,0.5689970717423133
411,0.001042810651781846,0.5697291361639825
412,0.0010478483843991495,0.5697291361639825
413,0.0010478483843991495,0.5705527086383602
414,0.0010528861170164532,0.5705527086383602
415,0.0010528861170164532,0.571376281112738
416,0.001057923849633757,0.571376281112738
417,0.001057923849633757,0.5717423133235725
418,0.0010629615822510604,0.5717423133235725
419,0.0010629615822510604,0.5718338213762811
420,0.001067999314868364,0.5718338213762811
421,0.001067999314868364,0.5719253294289898
422,0.0010730370474856677,0.5719253294289898
423,0.0010730370474856677,0.572108345534407
424,0.0010780747801029712,0.572108345534407
425,0.0010780747801029712,0.5728404099560761
426,0.0010831125127202749,0.5728404099560761
427,0.0010831125127202749,0.5742130307467057
428,0.0010881502453375786,0.5742130307467057
429,0.0010881502453375786,0.5743045387994143
430,0.001093187977954882,0.5743045387994143
431,0.001093187977954882,0.5745790629575402
432,0.0010982257105721857,0.5745790629575402
433,0.0010982257105721857,0.5746705710102489
434,0.0011083011758067929,0.5746705710102489
435,0.0011083011758067929,0.5755856515373353
436,0.0011133389084240965,0.5755856515373353
437,0.0011133389084240965,0.5758601756954612
438,0.0011183766410414,0.5758601756954612
439,0.0011183766410414,0.5767752562225475
440,0.0011234143736587037,0.5767752562225475
441,0.0011234143736587037,0.5769582723279648
442,0.0011334898388933108,0.5769582723279648
443,0.0011334898388933108,0.5770497803806734
444,0.0011385275715106145,0.5770497803806734
445,0.0011385275715106145,0.5775073206442167
446,0.0011486030367452217,0.5775073206442167
447,0.0011486030367452217,0.577690336749634
448,0.001158678501979829,0.577690336749634
449,0.001158678501979829,0.5778733528550513
450,0.0011637162345971325,0.5778733528550513
451,0.0011637162345971325,0.5781478770131772
452,0.0011687539672144362,0.5781478770131772
453,0.0011687539672144362,0.5782393850658858
454,0.0011737916998317396,0.5782393850658858
455,0.0011737916998317396,0.5786054172767203
456,0.0011788294324490433,0.5786054172767203
457,0.0011788294324490433,0.5787884333821376
458,0.001183867165066347,0.5787884333821376
459,0.001183867165066347,0.579703513909224
460,0.0011889048976836505,0.579703513909224
461,0.0011889048976836505,0.5804355783308931
462,0.0011939426303009541,0.5804355783308931
463,0.0011939426303009541,0.5809846266471449
464,0.0012040180955355613,0.5809846266471449
465,0.0012040180955355613,0.5812591508052709
466,0.001209055828152865,0.5812591508052709
467,0.001209055828152865,0.5814421669106882
468,0.0012140935607701687,0.5814421669106882
469,0.0012140935607701687,0.5818081991215227
470,0.0012191312933874721,0.5818081991215227
471,0.0012191312933874721,0.5818997071742313
472,0.0012241690260047758,0.5818997071742313
473,0.0012241690260047758,0.58199121522694
474,0.001234244491239383,0.58199121522694
475,0.001234244491239383,0.5823572474377745
476,0.0012392822238566866,0.5823572474377745
477,0.0012392822238566866,0.5828147877013177
478,0.00124431995647399,0.5828147877013177
479,0.00124431995647399,0.5842789165446559
480,0.0012493576890912938,0.5842789165446559
481,0.0012493576890912938,0.5843704245973645
482,0.0012543954217085975,0.5843704245973645
483,0.0012543954217085975,0.5844619326500732
484,0.001259433154325901,0.5844619326500732
485,0.001259433154325901,0.5845534407027818
486,0.0012644708869432046,0.5845534407027818
487,0.0012644708869432046,0.5846449487554904
488,0.0012695086195605083,0.5846449487554904
489,0.0012695086195605083,0.5856515373352855
490,0.0012745463521778118,0.5856515373352855
491,0.0012745463521778118,0.5858345534407028
492,0.0012795840847951154,0.5858345534407028
493,0.0012795840847951154,0.5861090775988287
494,0.0012846218174124191,0.5861090775988287
495,0.0012846218174124191,0.586292093704246
496,0.0012896595500297226,0.586292093704246
497,0.0012896595500297226,0.5871156661786238
498,0.0012946972826470263,0.5871156661786238
499,0.0012946972826470263,0.587298682284041
500,0.0013047727478816334,0.587298682284041
501,0.0013047727478816334,0.5876647144948756
502,0.001309810480498937,0.5876647144948756
503,0.001309810480498937,0.5879392386530015
504,0.0013148482131162406,0.5879392386530015
505,0.0013148482131162406,0.5889458272327965
506,0.001324923678350848,0.5889458272327965
507,0.001324923678350848,0.5893118594436311
508,0.0013299614109681514,0.5893118594436311
509,0.0013299614109681514,0.5894948755490483
510,0.001334999143585455,0.5894948755490483
511,0.001334999143585455,0.5897693997071742
512,0.0013400368762027587,0.5897693997071742
513,0.0013400368762027587,0.5904099560761347
514,0.0013450746088200622,0.5904099560761347
515,0.0013450746088200622,0.5905014641288433
516,0.001350112341437366,0.5905014641288433
517,0.001350112341437366,0.5907759882869692
518,0.0013551500740546696,0.5907759882869692
519,0.0013551500740546696,0.5911420204978038
520,0.001360187806671973,0.5911420204978038
521,0.001360187806671973,0.5921486090775988
522,0.0013652255392892767,0.5921486090775988
523,0.0013652255392892767,0.5922401171303074
524,0.0013702632719065802,0.5922401171303074
525,0.0013702632719065802,0.5924231332357247
526,0.0013753010045238839,0.5924231332357247
527,0.0013753010045238839,0.5931551976573939
528,0.0013803387371411876,0.5931551976573939
529,0.0013803387371411876,0.5934297218155198
530,0.001385376469758491,0.5934297218155198
531,0.001385376469758491,0.5937957540263543
532,0.0013904142023757947,0.5937957540263543
533,0.0013904142023757947,0.5939787701317716
534,0.0014004896676104018,0.5939787701317716
535,0.0014004896676104018,0.594619326500732
536,0.0014055274002277055,0.594619326500732
537,0.0014055274002277055,0.5949853587115667
538,0.0014105651328450092,0.5949853587115667
539,0.0014105651328450092,0.5952598828696926
540,0.0014156028654623127,0.5952598828696926
541,0.0014156028654623127,0.5953513909224012
542,0.0014206405980796164,0.5953513909224012
543,0.0014206405980796164,0.5956259150805271
544,0.00142567833069692,0.5956259150805271
545,0.00142567833069692,0.5959919472913616
546,0.0014307160633142235,0.5959919472913616
547,0.0014307160633142235,0.5964494875549048
548,0.0014357537959315272,0.5964494875549048
549,0.0014357537959315272,0.5967240117130308
550,0.0014407915285488306,0.5967240117130308
551,0.0014407915285488306,0.5969985358711567
552,0.0014559047264007415,0.5969985358711567
553,0.0014559047264007415,0.597181551976574
554,0.0014609424590180452,0.597181551976574
555,0.0014609424590180452,0.5972730600292826
556,0.0014659801916353488,0.5972730600292826
557,0.0014659801916353488,0.5977306002928258
558,0.0014710179242526523,0.5977306002928258
559,0.0014710179242526523,0.597913616398243
560,0.0014810933894872597,0.597913616398243
561,0.0014810933894872597,0.5981881405563689
562,0.0014861311221045631,0.5981881405563689
563,0.0014861311221045631,0.5989202049780381
564,0.0014911688547218668,0.5989202049780381
565,0.0014911688547218668,0.5991032210834554
566,0.0014962065873391703,0.5991032210834554
567,0.0014962065873391703,0.5994692532942899
568,0.001501244319956474,0.5994692532942899
569,0.001501244319956474,0.6008418740849195
570,0.0015062820525737776,0.6008418740849195
571,0.0015062820525737776,0.6015739385065886
572,0.001511319785191081,0.6015739385065886
573,0.001511319785191081,0.6019399707174231
574,0.0015163575178083848,0.6019399707174231
575,0.0015163575178083848,0.6021229868228404
576,0.0015213952504256885,0.6021229868228404
577,0.0015213952504256885,0.6024890190336749
578,0.001526432983042992,0.6024890190336749
579,0.001526432983042992,0.6029465592972182
580,0.0015314707156602956,0.6029465592972182
581,0.0015314707156602956,0.6034040995607614
582,0.0015365084482775993,0.6034040995607614
583,0.0015365084482775993,0.60349560761347
584,0.0015415461808949028,0.60349560761347
585,0.0015415461808949028,0.6035871156661786
586,0.0015516216461295101,0.6035871156661786
587,0.0015516216461295101,0.6036786237188873
588,0.0015566593787468136,0.6036786237188873
589,0.0015566593787468136,0.604776720351391
590,0.0015616971113641173,0.604776720351391
591,0.0015616971113641173,0.6051427525622255
592,0.0015667348439814207,0.6051427525622255
593,0.0015667348439814207,0.6052342606149341
594,0.0015717725765987244,0.6052342606149341
595,0.0015717725765987244,0.6056002928257687
596,0.001576810309216028,0.6056002928257687
597,0.001576810309216028,0.6056918008784773
598,0.0015818480418333316,0.6056918008784773
599,0.0015818480418333316,0.6058748169838946
600,0.001591923507067939,0.6058748169838946
601,0.001591923507067939,0.6061493411420205
602,0.001617112170154457,0.6061493411420205
603,0.001617112170154457,0.606789897510981
604,0.0016322253680063677,0.606789897510981
605,0.0016322253680063677,0.6070644216691069
606,0.0016372631006236712,0.6070644216691069
607,0.0016372631006236712,0.6074304538799414
608,0.001652376298475582,0.6074304538799414
609,0.001652376298475582,0.607796486090776
610,0.0016574140310928857,0.607796486090776
611,0.0016574140310928857,0.6080710102489019
612,0.0016624517637101894,0.6080710102489019
613,0.0016624517637101894,0.6082540263543191
614,0.0016674894963274929,0.6082540263543191
615,0.0016674894963274929,0.6087115666178624
616,0.0016775649615621002,0.6087115666178624
617,0.0016775649615621002,0.608803074670571
618,0.0016826026941794037,0.608803074670571
619,0.0016826026941794037,0.6090775988286969
620,0.0016876404267967074,0.6090775988286969
621,0.0016876404267967074,0.6092606149341142
622,0.001692678159414011,0.6092606149341142
623,0.001692678159414011,0.6101756954612005
624,0.0016977158920313145,0.6101756954612005
625,0.0016977158920313145,0.6104502196193266
626,0.0017027536246486182,0.6104502196193266
627,0.0017027536246486182,0.6116398243045388
628,0.0017077913572659217,0.6116398243045388
629,0.0017077913572659217,0.6122803806734992
630,0.0017128290898832253,0.6122803806734992
631,0.0017128290898832253,0.6125549048316252
632,0.0017229045551178325,0.6125549048316252
633,0.0017229045551178325,0.6126464128843339
634,0.0017279422877351362,0.6126464128843339
635,0.0017279422877351362,0.6130124450951684
636,0.0017329800203524399,0.6130124450951684
637,0.0017329800203524399,0.613103953147877
638,0.0017380177529697433,0.613103953147877
639,0.0017380177529697433,0.6134699853587116
640,0.001743055485587047,0.6134699853587116
641,0.001743055485587047,0.6138360175695461
642,0.0017480932182043507,0.6138360175695461
643,0.0017480932182043507,0.6139275256222547
644,0.0017531309508216541,0.6139275256222547
645,0.0017531309508216541,0.6147510980966325
646,0.0017632064160562613,0.6147510980966325
647,0.0017632064160562613,0.6149341142020498
648,0.001768244148673565,0.6149341142020498
649,0.001768244148673565,0.6151171303074671
650,0.0017732818812908687,0.6151171303074671
651,0.0017732818812908687,0.6152086383601757
652,0.0017783196139081721,0.6152086383601757
653,0.0017783196139081721,0.616398243045388
654,0.0017833573465254758,0.616398243045388
655,0.0017833573465254758,0.6168557833089312
656,0.0017883950791427795,0.6168557833089312
657,0.0017883950791427795,0.6179538799414348
658,0.001793432811760083,0.6179538799414348
659,0.001793432811760083,0.6182284040995608
660,0.0017984705443773866,0.6182284040995608
661,0.0017984705443773866,0.6185029282576867
662,0.0018035082769946903,0.6185029282576867
663,0.0018035082769946903,0.618685944363104
664,0.0018085460096119938,0.618685944363104
665,0.0018085460096119938,0.6188689604685212
666,0.0018135837422292975,0.6188689604685212
667,0.0018135837422292975,0.6192349926793558
668,0.0018186214748466011,0.6192349926793558
669,0.0018186214748466011,0.6196010248901903
670,0.0018337346726985118,0.6196010248901903
671,0.0018337346726985118,0.6196925329428989
672,0.0018488478705504226,0.6196925329428989
673,0.0018488478705504226,0.6197840409956076
674,0.0018538856031677263,0.6197840409956076
675,0.0018538856031677263,0.6198755490483162
676,0.00185892333578503,0.6198755490483162
677,0.00185892333578503,0.6199670571010248
678,0.001868998801019637,0.6199670571010248
679,0.001868998801019637,0.6209736456808199
680,0.0018790742662542442,0.6209736456808199
681,0.0018790742662542442,0.6210651537335286
682,0.0018891497314888516,0.6210651537335286
683,0.0018891497314888516,0.6212481698389458
684,0.001894187464106155,0.6212481698389458
685,0.001894187464106155,0.6213396778916545
686,0.0018992251967234587,0.6213396778916545
687,0.0018992251967234587,0.6235358711566618
688,0.001909300661958066,0.6235358711566618
689,0.001909300661958066,0.6241764275256223
690,0.0019143383945753696,0.6241764275256223
691,0.0019143383945753696,0.6243594436310396
692,0.0019244138598099767,0.6243594436310396
693,0.0019244138598099767,0.6245424597364568
694,0.0019344893250445839,0.6245424597364568
695,0.0019344893250445839,0.6246339677891655
696,0.0019395270576618876,0.6246339677891655
697,0.0019395270576618876,0.6255490483162518
698,0.001959677988131102,0.6255490483162518
699,0.001959677988131102,0.6264641288433382
700,0.0019647157207484055,0.6264641288433382
701,0.0019647157207484055,0.6269216691068814
702,0.0019798289186003164,0.6269216691068814
703,0.0019798289186003164,0.62701317715959
704,0.00198486665121762,0.62701317715959
705,0.00198486665121762,0.6278367496339677
706,0.0019899043838349237,0.6278367496339677
707,0.0019899043838349237,0.6284773060029283
708,0.001994942116452227,0.6284773060029283
709,0.001994942116452227,0.6290263543191801
710,0.0020050175816868345,0.6290263543191801
711,0.0020050175816868345,0.6291178623718887
712,0.002010055314304138,0.6291178623718887
713,0.002010055314304138,0.6299414348462665
714,0.0020201307795387454,0.6299414348462665
715,0.0020201307795387454,0.6302159590043924
716,0.002035243977390656,0.6302159590043924
717,0.002035243977390656,0.6303989751098097
718,0.0020402817100079597,0.6303989751098097
719,0.0020402817100079597,0.6307650073206442
720,0.002045319442625263,0.6307650073206442
721,0.002045319442625263,0.6309480234260615
722,0.002050357175242567,0.6309480234260615
723,0.002050357175242567,0.6311310395314788
724,0.0020553949078598705,0.6311310395314788
725,0.0020553949078598705,0.6314055636896047
726,0.0020654703730944774,0.6314055636896047
727,0.0020654703730944774,0.6316800878477306
728,0.0020805835709463883,0.6316800878477306
729,0.0020805835709463883,0.6318631039531479
730,0.002085621303563692,0.6318631039531479
731,0.002085621303563692,0.632595168374817
732,0.0020906590361809956,0.632595168374817
733,0.0020906590361809956,0.6326866764275256
734,0.002095696768798299,0.6326866764275256
735,0.002095696768798299,0.6335102489019033
736,0.002100734501415603,0.6335102489019033
737,0.002100734501415603,0.6336932650073206
738,0.0021057722340329064,0.6336932650073206
739,0.0021057722340329064,0.6342423133235725
740,0.00211080996665021,0.6342423133235725
741,0.00211080996665021,0.634608345534407
742,0.002115847699267514,0.634608345534407
743,0.002115847699267514,0.6360724743777453
744,0.0021208854318848173,0.6360724743777453
745,0.0021208854318848173,0.6363469985358712
746,0.0021259231645021207,0.6363469985358712
747,0.0021259231645021207,0.6364385065885798
748,0.0021460740949713355,0.6364385065885798
749,0.0021460740949713355,0.6365300146412884
750,0.002151111827588639,0.6365300146412884
751,0.002151111827588639,0.6368045387994143
752,0.0021561495602059424,0.6368045387994143
753,0.0021561495602059424,0.636896046852123
754,0.0021611872928232463,0.636896046852123
755,0.0021611872928232463,0.6372620790629575
756,0.0021662250254405498,0.6372620790629575
757,0.0021662250254405498,0.6373535871156661
758,0.0021712627580578532,0.6373535871156661
759,0.0021712627580578532,0.638177159590044
760,0.002176300490675157,0.638177159590044
761,0.002176300490675157,0.6386346998535871
762,0.0021813382232924606,0.6386346998535871
763,0.0021813382232924606,0.6388177159590044
764,0.002186375955909764,0.6388177159590044
765,0.002186375955909764,0.6392752562225475
766,0.002191413688527068,0.6392752562225475
767,0.002191413688527068,0.6394582723279648
768,0.0021964514211443714,0.6394582723279648
769,0.0021964514211443714,0.6395497803806734
770,0.002201489153761675,0.6395497803806734
771,0.002201489153761675,0.6396412884333821
772,0.0022115646189962822,0.6396412884333821
773,0.0022115646189962822,0.6402818448023426
774,0.0022166023516135857,0.6402818448023426
775,0.0022166023516135857,0.6406478770131772
776,0.002221640084230889,0.6406478770131772
777,0.002221640084230889,0.6408308931185944
778,0.002226677816848193,0.6408308931185944
779,0.002226677816848193,0.6409224011713031
780,0.0022317155494654965,0.6409224011713031
781,0.0022317155494654965,0.6410139092240117
782,0.0022367532820828,0.6410139092240117
783,0.0022367532820828,0.6412884333821376
784,0.002241791014700104,0.6412884333821376
785,0.002241791014700104,0.6415629575402635
786,0.0022468287473174074,0.6415629575402635
787,0.0022468287473174074,0.6421120058565154
788,0.0022569042125520147,0.6421120058565154
789,0.0022569042125520147,0.6437591508052709
790,0.002261941945169318,0.6437591508052709
791,0.002261941945169318,0.6453147877013177
792,0.0022669796777866217,0.6453147877013177
793,0.0022669796777866217,0.645772327964861
794,0.0022720174104039256,0.645772327964861
795,0.0022720174104039256,0.6458638360175696
796,0.002277055143021229,0.6458638360175696
797,0.002277055143021229,0.6459553440702782
798,0.0022820928756385325,0.6459553440702782
799,0.0022820928756385325,0.6460468521229868
800,0.0022871306082558364,0.6460468521229868
801,0.0022871306082558364,0.6469619326500732
802,0.0022972060734904433,0.6469619326500732
803,0.0022972060734904433,0.6470534407027818
804,0.0023022438061077472,0.6470534407027818
805,0.0023022438061077472,0.6473279648609077
806,0.0023072815387250507,0.6473279648609077
807,0.0023072815387250507,0.6475109809663251
808,0.002312319271342354,0.6475109809663251
809,0.002312319271342354,0.647785505124451
810,0.0023223947365769615,0.647785505124451
811,0.0023223947365769615,0.6478770131771596
812,0.002327432469194265,0.6478770131771596
813,0.002327432469194265,0.6479685212298683
814,0.002342545667046176,0.6479685212298683
815,0.002342545667046176,0.6481515373352855
816,0.0023475833996634793,0.6481515373352855
817,0.0023475833996634793,0.6482430453879942
818,0.0023576588648980866,0.6482430453879942
819,0.0023576588648980866,0.6483345534407028
820,0.00236269659751539,0.6483345534407028
821,0.00236269659751539,0.6487005856515373
822,0.002367734330132694,0.6487005856515373
823,0.002367734330132694,0.6491581259150805
824,0.0023727720627499975,0.6491581259150805
825,0.0023727720627499975,0.6494326500732065
826,0.002377809795367301,0.6494326500732065
827,0.002377809795367301,0.6495241581259151
828,0.0023979607258365157,0.6495241581259151
829,0.0023979607258365157,0.649798682284041
830,0.0024080361910711226,0.649798682284041
831,0.0024080361910711226,0.6503477306002928
832,0.0024130739236884265,0.6503477306002928
833,0.0024130739236884265,0.6506222547584187
834,0.00241811165630573,0.6506222547584187
835,0.00241811165630573,0.650805270863836
836,0.0024231493889230334,0.650805270863836
837,0.0024231493889230334,0.6508967789165446
838,0.0024332248541576408,0.6508967789165446
839,0.0024332248541576408,0.6509882869692533
840,0.0024382625867749442,0.6509882869692533
841,0.0024382625867749442,0.6511713030746705
842,0.002443300319392248,0.6511713030746705
843,0.002443300319392248,0.6513543191800878
844,0.0024483380520095516,0.6513543191800878
845,0.0024483380520095516,0.6516288433382138
846,0.002453375784626855,0.6516288433382138
847,0.002453375784626855,0.6518118594436311
848,0.0024584135172441585,0.6518118594436311
849,0.0024584135172441585,0.6519948755490483
850,0.002468488982478766,0.6519948755490483
851,0.002468488982478766,0.6532759882869692
852,0.0024735267150960694,0.6532759882869692
853,0.0024735267150960694,0.6533674963396779
854,0.0024836021803306767,0.6533674963396779
855,0.0024836021803306767,0.6536420204978038
856,0.0024987153781825876,0.6536420204978038
857,0.0024987153781825876,0.6541910688140556
858,0.002503753110799891,0.6541910688140556
859,0.002503753110799891,0.6544655929721815
860,0.002508790843417195,0.6544655929721815
861,0.002508790843417195,0.6547401171303074
862,0.0025138285760344984,0.6547401171303074
863,0.0025138285760344984,0.6549231332357247
864,0.002518866308651802,0.6549231332357247
865,0.002518866308651802,0.655106149341142
866,0.0025239040412691057,0.655106149341142
867,0.0025239040412691057,0.6551976573938506
868,0.002528941773886409,0.6551976573938506
869,0.002528941773886409,0.655380673499268
870,0.0025339795065037127,0.655380673499268
871,0.0025339795065037127,0.6555636896046853
872,0.00254405497173832,0.6555636896046853
873,0.00254405497173832,0.6560212298682284
874,0.0025541304369729274,0.6560212298682284
875,0.0025541304369729274,0.6565702781844802
876,0.002559168169590231,0.6565702781844802
877,0.002559168169590231,0.657119326500732
878,0.0025642059022075343,0.657119326500732
879,0.0025642059022075343,0.6576683748169839
880,0.0025692436348248382,0.6576683748169839
881,0.0025692436348248382,0.6587664714494875
882,0.0025742813674421417,0.6587664714494875
883,0.0025742813674421417,0.6588579795021962
884,0.002579319100059445,0.6588579795021962
885,0.002579319100059445,0.6598645680819912
886,0.002584356832676749,0.6598645680819912
887,0.002584356832676749,0.6601390922401171
888,0.0025893945652940525,0.6601390922401171
889,0.0025893945652940525,0.6606881405563689
890,0.002594432297911356,0.6606881405563689
891,0.002594432297911356,0.6609626647144948
892,0.0025994700305286595,0.6609626647144948
893,0.0025994700305286595,0.6610541727672035
894,0.002609545495763267,0.6610541727672035
895,0.002609545495763267,0.6613286969253295
896,0.0026145832283805703,0.6613286969253295
897,0.0026145832283805703,0.661694729136164
898,0.002619620960997874,0.661694729136164
899,0.002619620960997874,0.6617862371888726
900,0.0026397718914670885,0.6617862371888726
901,0.0026397718914670885,0.6620607613469985
902,0.002644809624084392,0.6620607613469985
903,0.002644809624084392,0.6624267935578331
904,0.0026548850893189993,0.6624267935578331
905,0.0026548850893189993,0.6626098096632503
906,0.0026649605545536067,0.6626098096632503
907,0.0026649605545536067,0.662701317715959
908,0.00266999828717091,0.662701317715959
909,0.00266999828717091,0.6627928257686676
910,0.0026800737524055175,0.6627928257686676
911,0.0026800737524055175,0.6630673499267935
912,0.002685111485022821,0.6630673499267935
913,0.002685111485022821,0.6633418740849195
914,0.0026951869502574283,0.6633418740849195
915,0.0026951869502574283,0.6634333821376281
916,0.002700224682874732,0.6634333821376281
917,0.002700224682874732,0.663707906295754
918,0.0027052624154920353,0.663707906295754
919,0.0027052624154920353,0.6638909224011713
920,0.002710300148109339,0.6638909224011713
921,0.002710300148109339,0.6640739385065886
922,0.0027153378807266426,0.6640739385065886
923,0.0027153378807266426,0.6641654465592972
924,0.0027304510785785534,0.6641654465592972
925,0.0027304510785785534,0.6642569546120058
926,0.0027405265438131604,0.6642569546120058
927,0.0027405265438131604,0.6643484626647145
928,0.0027455642764304643,0.6643484626647145
929,0.0027455642764304643,0.6645314787701317
930,0.002755639741665071,0.6645314787701317
931,0.002755639741665071,0.664714494875549
932,0.002760677474282375,0.664714494875549
933,0.002760677474282375,0.6649890190336749
934,0.0027657152068996786,0.6649890190336749
935,0.0027657152068996786,0.6652635431918009
936,0.002775790672134286,0.6652635431918009
937,0.002775790672134286,0.6654465592972182
938,0.0028009793352208037,0.6654465592972182
939,0.0028009793352208037,0.6659040995607614
940,0.0028060170678381076,0.6659040995607614
941,0.0028060170678381076,0.6660871156661786
942,0.0028160925330727145,0.6660871156661786
943,0.0028160925330727145,0.6661786237188873
944,0.0028211302656900184,0.6661786237188873
945,0.0028211302656900184,0.6664531478770132
946,0.0028312057309246253,0.6664531478770132
947,0.0028312057309246253,0.6665446559297218
948,0.0028362434635419292,0.6665446559297218
949,0.0028362434635419292,0.6666361639824304
950,0.002846318928776536,0.6666361639824304
951,0.002846318928776536,0.667276720351391
952,0.00285135666139384,0.667276720351391
953,0.00285135666139384,0.6675512445095169
954,0.0028563943940111435,0.6675512445095169
955,0.0028563943940111435,0.6677342606149341
956,0.0028664698592457505,0.6677342606149341
957,0.0028664698592457505,0.66800878477306
958,0.0028715075918630544,0.66800878477306
959,0.0028715075918630544,0.6681002928257687
960,0.0028815830570976613,0.6681002928257687
961,0.0028815830570976613,0.6683748169838946
962,0.002886620789714965,0.6683748169838946
963,0.002886620789714965,0.6687408491947291
964,0.0028916585223322687,0.6687408491947291
965,0.0028916585223322687,0.6688323572474377
966,0.002896696254949572,0.6688323572474377
967,0.002896696254949572,0.6689238653001464
968,0.002901733987566876,0.6689238653001464
969,0.002901733987566876,0.6693814055636896
970,0.0029067717201841795,0.6693814055636896
971,0.0029067717201841795,0.6695644216691069
972,0.002911809452801483,0.6695644216691069
973,0.002911809452801483,0.6696559297218155
974,0.0029218849180360903,0.6696559297218155
975,0.0029218849180360903,0.6698389458272328
976,0.0029319603832706977,0.6698389458272328
977,0.0029319603832706977,0.6699304538799414
978,0.002936998115888001,0.6699304538799414
979,0.002936998115888001,0.6700219619326501
980,0.0029571490463572154,0.6700219619326501
981,0.0029571490463572154,0.6702049780380673
982,0.002967224511591823,0.6702049780380673
983,0.002967224511591823,0.6703879941434846
984,0.00297729997682643,0.6703879941434846
985,0.00297729997682643,0.6704795021961932
986,0.0029823377094437336,0.6704795021961932
987,0.0029823377094437336,0.6706625183016105
988,0.002987375442061037,0.6706625183016105
989,0.002987375442061037,0.6710285505124451
990,0.0029974509072956445,0.6710285505124451
991,0.0029974509072956445,0.6715775988286969
992,0.0030075263725302514,0.6715775988286969
993,0.0030075263725302514,0.6716691068814056
994,0.0030176018377648588,0.6716691068814056
995,0.0030176018377648588,0.6722181551976574
996,0.003022639570382162,0.6722181551976574
997,0.003022639570382162,0.672309663250366
998,0.003027677302999466,0.672309663250366
999,0.003027677302999466,0.6727672035139092
1000,0.0030327150356167696,0.6727672035139092
1001,0.0030327150356167696,0.6747803806734992
1002,0.003037752768234073,0.6747803806734992
1003,0.003037752768234073,0.6753294289897511
1004,0.003042790500851377,0.6753294289897511
1005,0.003042790500851377,0.6755124450951684
1006,0.0030478282334686804,0.6755124450951684
1007,0.0030478282334686804,0.6756954612005857
1008,0.003052865966085984,0.6756954612005857
1009,0.003052865966085984,0.6760614934114202
1010,0.0030579036987032878,0.6760614934114202
1011,0.0030579036987032878,0.6764275256222547
1012,0.0030629414313205912,0.6764275256222547
1013,0.0030629414313205912,0.6767020497803806
1014,0.0030679791639378947,0.6767020497803806
1015,0.0030679791639378947,0.6767935578330894
1016,0.0030730168965551986,0.6767935578330894
1017,0.0030730168965551986,0.676885065885798
1018,0.003078054629172502,0.676885065885798
1019,0.003078054629172502,0.6773426061493412
1020,0.0030881300944071094,0.6773426061493412
1021,0.0030881300944071094,0.6775256222547584
1022,0.0030982055596417164,0.6775256222547584
1023,0.0030982055596417164,0.6776171303074671
1024,0.0031082810248763237,0.6776171303074671
1025,0.0031082810248763237,0.6781661786237189
1026,0.003113318757493627,0.6781661786237189
1027,0.003113318757493627,0.6782576866764275
1028,0.003118356490110931,0.6782576866764275
1029,0.003118356490110931,0.6783491947291361
1030,0.0031233942227282346,0.6783491947291361
1031,0.0031233942227282346,0.678623718887262
1032,0.003128431955345538,0.678623718887262
1033,0.003128431955345538,0.6787152269399708
1034,0.0031385074205801454,0.6787152269399708
1035,0.0031385074205801454,0.678898243045388
1036,0.003143545153197449,0.678898243045388
1037,0.003143545153197449,0.6790812591508053
1038,0.0031485828858147523,0.6790812591508053
1039,0.0031485828858147523,0.6791727672035139
1040,0.003153620618432056,0.6791727672035139
1041,0.003153620618432056,0.6792642752562226
1042,0.003168733816283967,0.6792642752562226
1043,0.003168733816283967,0.6799963396778916
1044,0.0031737715489012705,0.6799963396778916
1045,0.0031737715489012705,0.6803623718887262
1046,0.003178809281518574,0.6803623718887262
1047,0.003178809281518574,0.6805453879941434
1048,0.003183847014135878,0.6805453879941434
1049,0.003183847014135878,0.6809114202049781
1050,0.003193922479370485,0.6809114202049781
1051,0.003193922479370485,0.6813689604685212
1052,0.0031989602119877887,0.6813689604685212
1053,0.0031989602119877887,0.6814604685212299
1054,0.003203997944605092,0.6814604685212299
1055,0.003203997944605092,0.6818265007320644
1056,0.0032090356772223956,0.6818265007320644
1057,0.0032090356772223956,0.6821925329428989
1058,0.0032140734098396995,0.6821925329428989
1059,0.0032140734098396995,0.6823755490483162
1060,0.0032241488750743065,0.6823755490483162
1061,0.0032241488750743065,0.6827415812591509
1062,0.0032291866076916103,0.6827415812591509
1063,0.0032291866076916103,0.683199121522694
1064,0.003234224340308914,0.683199121522694
1065,0.003234224340308914,0.6832906295754027
1066,0.0032493375381608246,0.6832906295754027
1067,0.0032493375381608246,0.6833821376281113
1068,0.003254375270778128,0.6833821376281113
1069,0.003254375270778128,0.6834736456808199
1070,0.003269488468630039,0.6834736456808199
1071,0.003269488468630039,0.6838396778916545
1072,0.0032745262012473424,0.6838396778916545
1073,0.0032745262012473424,0.6843887262079063
1074,0.0032795639338646463,0.6843887262079063
1075,0.0032795639338646463,0.6845717423133236
1076,0.0032846016664819498,0.6845717423133236
1077,0.0032846016664819498,0.6852122986822841
1078,0.0032896393990992532,0.6852122986822841
1079,0.0032896393990992532,0.6861273792093704
1080,0.003294677131716557,0.6861273792093704
1081,0.003294677131716557,0.6864019033674963
1082,0.0032997148643338606,0.6864019033674963
1083,0.0032997148643338606,0.6864934114202049
1084,0.0033148280621857714,0.6864934114202049
1085,0.0033148280621857714,0.6866764275256223
1086,0.003319865794803075,0.6866764275256223
1087,0.003319865794803075,0.6875
1088,0.0033349789926549857,0.6875
1089,0.0033349789926549857,0.6875915080527086
1090,0.0033400167252722896,0.6875915080527086
1091,0.0033400167252722896,0.6878660322108345
1092,0.003345054457889593,0.6878660322108345
1093,0.003345054457889593,0.6880490483162518
1094,0.0033551299231242004,0.6880490483162518
1095,0.0033551299231242004,0.6881405563689604
1096,0.003360167655741504,0.6881405563689604
1097,0.003360167655741504,0.6882320644216691
1098,0.0033652053883588074,0.6882320644216691
1099,0.0033652053883588074,0.6886896046852123
1100,0.0033702431209761113,0.6886896046852123
1101,0.0033702431209761113,0.688781112737921
1102,0.0033752808535934147,0.688781112737921
1103,0.0033752808535934147,0.6892386530014641
1104,0.003380318586210718,0.6892386530014641
1105,0.003380318586210718,0.6894216691068814
1106,0.003385356318828022,0.6894216691068814
1107,0.003385356318828022,0.68951317715959
1108,0.003395431784062629,0.68951317715959
1109,0.003395431784062629,0.6896046852122987
1110,0.0034004695166799325,0.6896046852122987
1111,0.0034004695166799325,0.6896961932650073
1112,0.0034055072492972364,0.6896961932650073
1113,0.0034055072492972364,0.6897877013177159
1114,0.00341054498191454,0.6897877013177159
1115,0.00341054498191454,0.6900622254758418
1116,0.0034155827145318433,0.6900622254758418
1117,0.0034155827145318433,0.6902452415812591
1118,0.0034256581797664507,0.6902452415812591
1119,0.0034256581797664507,0.6903367496339677
1120,0.003430695912383754,0.6903367496339677
1121,0.003430695912383754,0.690794289897511
1122,0.0034407713776183615,0.690794289897511
1123,0.0034407713776183615,0.6909773060029283
1124,0.003445809110235665,0.6909773060029283
1125,0.003445809110235665,0.6910688140556369
1126,0.003450846842852969,0.6910688140556369
1127,0.003450846842852969,0.6911603221083455
1128,0.0034558845754702723,0.6911603221083455
1129,0.0034558845754702723,0.6913433382137628
1130,0.003460922308087576,0.6913433382137628
1131,0.003460922308087576,0.6915263543191801
1132,0.0034659600407048797,0.6915263543191801
1133,0.0034659600407048797,0.6916178623718887
1134,0.0034810732385567905,0.6916178623718887
1135,0.0034810732385567905,0.6917093704245973
1136,0.003486110971174094,0.6917093704245973
1137,0.003486110971174094,0.6918923865300146
1138,0.0034911487037913975,0.6918923865300146
1139,0.0034911487037913975,0.6919838945827232
1140,0.0034961864364087014,0.6919838945827232
1141,0.0034961864364087014,0.6924414348462665
1142,0.0035062619016433083,0.6924414348462665
1143,0.0035062619016433083,0.6925329428989752
1144,0.003511299634260612,0.6925329428989752
1145,0.003511299634260612,0.6926244509516838
1146,0.003521375099495219,0.6926244509516838
1147,0.003521375099495219,0.6927159590043924
1148,0.0035264128321125226,0.6927159590043924
1149,0.0035264128321125226,0.693081991215227
1150,0.0035314505647298265,0.693081991215227
1151,0.0035314505647298265,0.6932650073206442
1152,0.0035465637625817373,0.6932650073206442
1153,0.0035465637625817373,0.6933565153733529
1154,0.0035516014951990408,0.6933565153733529
1155,0.0035516014951990408,0.6936310395314788
1156,0.0035566392278163442,0.6936310395314788
1157,0.0035566392278163442,0.6939970717423133
1158,0.003561676960433648,0.6939970717423133
1159,0.003561676960433648,0.6940885797950219
1160,0.0035667146930509516,0.6940885797950219
1161,0.0035667146930509516,0.6941800878477306
1162,0.0035818278909028624,0.6941800878477306
1163,0.0035818278909028624,0.6942715959004392
1164,0.003586865623520166,0.6942715959004392
1165,0.003586865623520166,0.6947291361639825
1166,0.0035969410887547733,0.6947291361639825
1167,0.0035969410887547733,0.6949121522693997
1168,0.0036019788213720767,0.6949121522693997
1169,0.0036019788213720767,0.6950036603221084
1170,0.0036070165539893806,0.6950036603221084
1171,0.0036070165539893806,0.695095168374817
1172,0.003612054286606684,0.695095168374817
1173,0.003612054286606684,0.6951866764275256
1174,0.0036322052170758984,0.6951866764275256
1175,0.0036322052170758984,0.6954612005856515
1176,0.0036422806823105057,0.6954612005856515
1177,0.0036422806823105057,0.6958272327964861
1178,0.003652356147545113,0.6958272327964861
1179,0.003652356147545113,0.696101756954612
1180,0.0036573938801624166,0.696101756954612
1181,0.0036573938801624166,0.6962847730600292
1182,0.0036674693453970235,0.6962847730600292
1183,0.0036674693453970235,0.696376281112738
1184,0.0036725070780143274,0.696376281112738
1185,0.0036725070780143274,0.6967423133235725
1186,0.003677544810631631,0.6967423133235725
1187,0.003677544810631631,0.6968338213762811
1188,0.0036876202758662382,0.6968338213762811
1189,0.0036876202758662382,0.6970168374816984
1190,0.0036926580084835417,0.6970168374816984
1191,0.0036926580084835417,0.6982979502196194
1192,0.003702733473718149,0.6982979502196194
1193,0.003702733473718149,0.698389458272328
1194,0.0037077712063354525,0.698389458272328
1195,0.0037077712063354525,0.6984809663250366
1196,0.00371784667157006,0.6984809663250366
1197,0.00371784667157006,0.6990300146412884
1198,0.0037228844041873634,0.6990300146412884
1199,0.0037228844041873634,0.6993045387994143
1200,0.003727922136804667,0.6993045387994143
1201,0.003727922136804667,0.699396046852123
1202,0.003737997602039274,0.699396046852123
1203,0.003737997602039274,0.6994875549048316
1204,0.0037430353346565776,0.6994875549048316
1205,0.0037430353346565776,0.6997620790629575
1206,0.0037480730672738815,0.6997620790629575
1207,0.0037480730672738815,0.6998535871156661
1208,0.003753110799891185,0.6998535871156661
1209,0.003753110799891185,0.700402635431918
1210,0.003768223997743096,0.700402635431918
1211,0.003768223997743096,0.7007686676427526
1212,0.003778299462977703,0.7007686676427526
1213,0.003778299462977703,0.7010431918008785
1214,0.00378837492821231,0.7010431918008785
1215,0.00378837492821231,0.7012262079062958
1216,0.0037934126608296136,0.7012262079062958
1217,0.0037934126608296136,0.7017752562225475
1218,0.003803488126064221,0.7017752562225475
1219,0.003803488126064221,0.7018667642752562
1220,0.0038085258586815244,0.7018667642752562
1221,0.0038085258586815244,0.7020497803806734
1222,0.003818601323916132,0.7020497803806734
1223,0.003818601323916132,0.7023243045387995
1224,0.0038337145217680426,0.7023243045387995
1225,0.0038337145217680426,0.7029648609077599
1226,0.003838752254385346,0.7029648609077599
1227,0.003838752254385346,0.7031478770131772
1228,0.003858903184854561,0.7031478770131772
1229,0.003858903184854561,0.7034224011713031
1230,0.0038639409174718643,0.7034224011713031
1231,0.0038639409174718643,0.7035139092240117
1232,0.0038689786500891677,0.7035139092240117
1233,0.0038689786500891677,0.7038799414348462
1234,0.003879054115323775,0.7038799414348462
1235,0.003879054115323775,0.7039714494875549
1236,0.0038840918479410786,0.7039714494875549
1237,0.0038840918479410786,0.7042459736456809
1238,0.003894167313175686,0.7042459736456809
1239,0.003894167313175686,0.7043374816983895
1240,0.0039042427784102933,0.7043374816983895
1241,0.0039042427784102933,0.7046120058565154
1242,0.003909280511027596,0.7046120058565154
1243,0.003909280511027596,0.7049780380673499
1244,0.0039143182436449,0.7049780380673499
1245,0.0039143182436449,0.7050695461200586
1246,0.003919355976262204,0.7050695461200586
1247,0.003919355976262204,0.7051610541727672
1248,0.003924393708879507,0.7051610541727672
1249,0.003924393708879507,0.7053440702781845
1250,0.003929431441496811,0.7053440702781845
1251,0.003929431441496811,0.7054355783308931
1252,0.003934469174114115,0.7054355783308931
1253,0.003934469174114115,0.7055270863836017
1254,0.003939506906731418,0.7055270863836017
1255,0.003939506906731418,0.7056185944363104
1256,0.003944544639348722,0.7056185944363104
1257,0.003944544639348722,0.7058931185944363
1258,0.003954620104583329,0.7058931185944363
1259,0.003954620104583329,0.7061676427525623
1260,0.00396973330243524,0.7061676427525623
1261,0.00396973330243524,0.7064421669106882
1262,0.0039747710350525435,0.7064421669106882
1263,0.0039747710350525435,0.7065336749633968
1264,0.0039798087676698474,0.7065336749633968
1265,0.0039798087676698474,0.7066251830161054
1266,0.003989884232904454,0.7066251830161054
1267,0.003989884232904454,0.7068081991215227
1268,0.004004997430756365,0.7068081991215227
1269,0.004004997430756365,0.7071742313323572
1270,0.004020110628608276,0.7071742313323572
1271,0.004020110628608276,0.7072657393850659
1272,0.004030186093842883,0.7072657393850659
1273,0.004030186093842883,0.7075402635431918
1274,0.004040261559077491,0.7075402635431918
1275,0.004040261559077491,0.7076317715959004
1276,0.004045299291694794,0.7076317715959004
1277,0.004045299291694794,0.7079978038067349
1278,0.004055374756929402,0.7079978038067349
1279,0.004055374756929402,0.7080893118594437
1280,0.0040654502221640085,0.7080893118594437
1281,0.0040654502221640085,0.708272327964861
1282,0.0040755256873986154,0.708272327964861
1283,0.0040755256873986154,0.7085468521229868
1284,0.004115827548337045,0.7085468521229868
1285,0.004115827548337045,0.7087298682284041
1286,0.004125903013571652,0.7087298682284041
1287,0.004125903013571652,0.7088213762811127
1288,0.004130940746188955,0.7088213762811127
1289,0.004130940746188955,0.7089128843338214
1290,0.004141016211423563,0.7089128843338214
1291,0.004141016211423563,0.7091874084919473
1292,0.004146053944040866,0.7091874084919473
1293,0.004146053944040866,0.7092789165446559
1294,0.004171242607127384,0.7092789165446559
1295,0.004171242607127384,0.7093704245973645
1296,0.004176280339744687,0.7093704245973645
1297,0.004176280339744687,0.7098279648609077
1298,0.004181318072361991,0.7098279648609077
1299,0.004181318072361991,0.7100109809663251
1300,0.004186355804979295,0.7100109809663251
1301,0.004186355804979295,0.7101939970717424
1302,0.004196431270213902,0.7101939970717424
1303,0.004196431270213902,0.710285505124451
1304,0.004201469002831206,0.710285505124451
1305,0.004201469002831206,0.7108345534407028
1306,0.004206506735448509,0.7108345534407028
1307,0.004206506735448509,0.7109260614934114
1308,0.00422161993330042,0.7109260614934114
1309,0.00422161993330042,0.71101756954612
1310,0.004231695398535028,0.71101756954612
1311,0.004231695398535028,0.711292093704246
1312,0.004236733131152331,0.711292093704246
1313,0.004236733131152331,0.7113836017569546
1314,0.0042417708637696346,0.7113836017569546
1315,0.0042417708637696346,0.7116581259150805
1316,0.0042518463290042415,0.7116581259150805
1317,0.0042518463290042415,0.7119326500732065
1318,0.004266959526856152,0.7119326500732065
1319,0.004266959526856152,0.7122071742313324
1320,0.00427703499209076,0.7122071742313324
1321,0.00427703499209076,0.712298682284041
1322,0.004307261387794582,0.712298682284041
1323,0.004307261387794582,0.7123901903367497
1324,0.004312299120411885,0.7123901903367497
1325,0.004312299120411885,0.7124816983894583
1326,0.004322374585646493,0.7124816983894583
1327,0.004322374585646493,0.7125732064421669
1328,0.004327412318263796,0.7125732064421669
1329,0.004327412318263796,0.7126647144948756
1330,0.0043324500508810995,0.7126647144948756
1331,0.0043324500508810995,0.7127562225475842
1332,0.0043425255161157065,0.7127562225475842
1333,0.0043425255161157065,0.7128477306002928
1334,0.00434756324873301,0.7128477306002928
1335,0.00434756324873301,0.7129392386530015
1336,0.004352600981350314,0.7129392386530015
1337,0.004352600981350314,0.7130307467057101
1338,0.004357638713967617,0.7130307467057101
1339,0.004357638713967617,0.7132137628111274
1340,0.004362676446584921,0.7132137628111274
1341,0.004362676446584921,0.7133967789165446
1342,0.004367714179202225,0.7133967789165446
1343,0.004367714179202225,0.7134882869692533
1344,0.004377789644436832,0.7134882869692533
1345,0.004377789644436832,0.7139458272327965
1346,0.004397940574906046,0.7139458272327965
1347,0.004397940574906046,0.7141288433382138
1348,0.004413053772757957,0.7141288433382138
1349,0.004413053772757957,0.7143118594436311
1350,0.004418091505375261,0.7143118594436311
1351,0.004418091505375261,0.7144033674963397
1352,0.0044281669706098675,0.7144033674963397
1353,0.0044281669706098675,0.715318448023426
1354,0.004433204703227171,0.715318448023426
1355,0.004433204703227171,0.7155929721815519
1356,0.004443280168461778,0.7155929721815519
1357,0.004443280168461778,0.7156844802342606
1358,0.004448317901079082,0.7156844802342606
1359,0.004448317901079082,0.7158674963396779
1360,0.004453355633696386,0.7158674963396779
1361,0.004453355633696386,0.7160505124450952
1362,0.004468468831548297,0.7160505124450952
1363,0.004468468831548297,0.7161420204978038
1364,0.0044735065641656,0.7161420204978038
1365,0.0044735065641656,0.7162335285505125
1366,0.004478544296782904,0.7162335285505125
1367,0.004478544296782904,0.7163250366032211
1368,0.004488619762017511,0.7163250366032211
1369,0.004488619762017511,0.7164165446559297
1370,0.004498695227252119,0.7164165446559297
1371,0.004498695227252119,0.716599560761347
1372,0.004503732959869422,0.716599560761347
1373,0.004503732959869422,0.7166910688140556
1374,0.0045087706924867256,0.7166910688140556
1375,0.0045087706924867256,0.7168740849194729
1376,0.0045138084251040295,0.7168740849194729
1377,0.0045138084251040295,0.7169655929721815
1378,0.0045188461577213325,0.7169655929721815
1379,0.0045188461577213325,0.7173316251830161
1380,0.004523883890338636,0.7173316251830161
1381,0.004523883890338636,0.717880673499268
1382,0.00452892162295594,0.717880673499268
1383,0.00452892162295594,0.7179721815519766
1384,0.004538997088190547,0.7179721815519766
1385,0.004538997088190547,0.7184297218155198
1386,0.004544034820807851,0.7184297218155198
1387,0.004544034820807851,0.7185212298682284
1388,0.004569223483894369,0.7185212298682284
1389,0.004569223483894369,0.7187957540263543
1390,0.004574261216511673,0.7187957540263543
1391,0.004574261216511673,0.718887262079063
1392,0.004594412146980887,0.718887262079063
1393,0.004594412146980887,0.7189787701317716
1394,0.0046044876122154944,0.7189787701317716
1395,0.0046044876122154944,0.7192532942898975
1396,0.004614563077450101,0.7192532942898975
1397,0.004614563077450101,0.7194363103953147
1398,0.004619600810067405,0.7194363103953147
1399,0.004619600810067405,0.719619326500732
1400,0.004624638542684708,0.719619326500732
1401,0.004624638542684708,0.7197108345534406
1402,0.004629676275302012,0.7197108345534406
1403,0.004629676275302012,0.7198023426061494
1404,0.004644789473153923,0.7198023426061494
1405,0.004644789473153923,0.7199853587115667
1406,0.004659902671005834,0.7199853587115667
1407,0.004659902671005834,0.7202598828696926
1408,0.004664940403623137,0.7202598828696926
1409,0.004664940403623137,0.7204428989751098
1410,0.004680053601475048,0.7204428989751098
1411,0.004680053601475048,0.7205344070278185
1412,0.004685091334092352,0.7205344070278185
1413,0.004685091334092352,0.7208089311859444
1414,0.0046951667993269585,0.7208089311859444
1415,0.0046951667993269585,0.7210834553440703
1416,0.004705242264561566,0.7210834553440703
1417,0.004705242264561566,0.7211749633967789
1418,0.004710279997178869,0.7211749633967789
1419,0.004710279997178869,0.7212664714494875
1420,0.00472539319503078,0.7212664714494875
1421,0.00472539319503078,0.7214494875549048
1422,0.004735468660265388,0.7214494875549048
1423,0.004735468660265388,0.7217240117130308
1424,0.004745544125499995,0.7217240117130308
1425,0.004745544125499995,0.7223645680819912
1426,0.004750581858117299,0.7223645680819912
1427,0.004750581858117299,0.7225475841874085
1428,0.00476569505596921,0.7225475841874085
1429,0.00476569505596921,0.7228221083455344
1430,0.004770732788586513,0.7228221083455344
1431,0.004770732788586513,0.722913616398243
1432,0.004775770521203817,0.722913616398243
1433,0.004775770521203817,0.7230051244509517
1434,0.0047808082538211205,0.7230051244509517
1435,0.0047808082538211205,0.7230966325036603
1436,0.0047858459864384235,0.7230966325036603
1437,0.0047858459864384235,0.7231881405563689
1438,0.004795921451673031,0.7231881405563689
1439,0.004795921451673031,0.7232796486090776
1440,0.004805996916907638,0.7232796486090776
1441,0.004805996916907638,0.7233711566617862
1442,0.004816072382142245,0.7233711566617862
1443,0.004816072382142245,0.7234626647144948
1444,0.004821110114759549,0.7234626647144948
1445,0.004821110114759549,0.7243777452415813
1446,0.00483622331261146,0.7243777452415813
1447,0.00483622331261146,0.7244692532942899
1448,0.004841261045228764,0.7244692532942899
1449,0.004841261045228764,0.7247437774524158
1450,0.004846298777846067,0.7247437774524158
1451,0.004846298777846067,0.7248352855051244
1452,0.004851336510463371,0.7248352855051244
1453,0.004851336510463371,0.7251098096632503
1454,0.004856374243080675,0.7251098096632503
1455,0.004856374243080675,0.7254758418740849
1456,0.0048714874409325854,0.7254758418740849
1457,0.0048714874409325854,0.7255673499267935
1458,0.004881562906167192,0.7255673499267935
1459,0.004881562906167192,0.7257503660322109
1460,0.004886600638784496,0.7257503660322109
1461,0.004886600638784496,0.7261163982430454
1462,0.004891638371401799,0.7261163982430454
1463,0.004891638371401799,0.72648243045388
1464,0.004896676104019103,0.72648243045388
1465,0.004896676104019103,0.7270314787701317
1466,0.00490675156925371,0.7270314787701317
1467,0.00490675156925371,0.7271229868228404
1468,0.004911789301871014,0.7271229868228404
1469,0.004911789301871014,0.7273060029282576
1470,0.004916827034488317,0.7273060029282576
1471,0.004916827034488317,0.7273975109809663
1472,0.004921864767105621,0.7273975109809663
1473,0.004921864767105621,0.7278550512445096
1474,0.004926902499722925,0.7278550512445096
1475,0.004926902499722925,0.7280380673499268
1476,0.004936977964957532,0.7280380673499268
1477,0.004936977964957532,0.7284040995607614
1478,0.004942015697574836,0.7284040995607614
1479,0.004942015697574836,0.72849560761347
1480,0.0049571288954267465,0.72849560761347
1481,0.0049571288954267465,0.7285871156661786
1482,0.00497727982589596,0.7285871156661786
1483,0.00497727982589596,0.7289531478770132
1484,0.004982317558513264,0.7289531478770132
1485,0.004982317558513264,0.7290446559297218
1486,0.004987355291130568,0.7290446559297218
1487,0.004987355291130568,0.7293191800878477
1488,0.004992393023747871,0.7293191800878477
1489,0.004992393023747871,0.7294106881405563
1490,0.004997430756365175,0.7294106881405563
1491,0.004997430756365175,0.7295021961932651
1492,0.005002468488982479,0.7295021961932651
1493,0.005002468488982479,0.7296852122986823
1494,0.005007506221599782,0.7296852122986823
1495,0.005007506221599782,0.729776720351391
1496,0.00501758168683439,0.729776720351391
1497,0.00501758168683439,0.7300512445095169
1498,0.005027657152068997,0.7300512445095169
1499,0.005027657152068997,0.7303257686676428
1500,0.005037732617303604,0.7303257686676428
1501,0.005037732617303604,0.7304172767203514
1502,0.0050478080825382115,0.7304172767203514
1503,0.0050478080825382115,0.7306918008784773
1504,0.0050528458151555145,0.7306918008784773
1505,0.0050528458151555145,0.7308748169838946
1506,0.005057883547772818,0.7308748169838946
1507,0.005057883547772818,0.7311493411420205
1508,0.005067959013007425,0.7311493411420205
1509,0.005067959013007425,0.7313323572474377
1510,0.005078034478242033,0.7313323572474377
1511,0.005078034478242033,0.7315153733528551
1512,0.00508810994347664,0.7315153733528551
1513,0.00508810994347664,0.7316068814055637
1514,0.005098185408711247,0.7316068814055637
1515,0.005098185408711247,0.7319729136163983
1516,0.005103223141328551,0.7319729136163983
1517,0.005103223141328551,0.7320644216691069
1518,0.005108260873945855,0.7320644216691069
1519,0.005108260873945855,0.7321559297218155
1520,0.005118336339180462,0.7321559297218155
1521,0.005118336339180462,0.7322474377745242
1522,0.005123374071797766,0.7322474377745242
1523,0.005123374071797766,0.7324304538799414
1524,0.0051384872696496765,0.7324304538799414
1525,0.0051384872696496765,0.7326134699853587
1526,0.0051435250022669795,0.7326134699853587
1527,0.0051435250022669795,0.732796486090776
1528,0.005153600467501587,0.732796486090776
1529,0.005153600467501587,0.7330710102489019
1530,0.00515863820011889,0.7330710102489019
1531,0.00515863820011889,0.7332540263543191
1532,0.005163675932736194,0.7332540263543191
1533,0.005163675932736194,0.7334370424597365
1534,0.005168713665353498,0.7334370424597365
1535,0.005168713665353498,0.7335285505124451
1536,0.005173751397970801,0.7335285505124451
1537,0.005173751397970801,0.7336200585651538
1538,0.005183826863205408,0.7336200585651538
1539,0.005183826863205408,0.7337115666178624
1540,0.005203977793674623,0.7337115666178624
1541,0.005203977793674623,0.7338945827232797
1542,0.005209015526291927,0.7338945827232797
1543,0.005209015526291927,0.7339860907759883
1544,0.0052241287241438375,0.7339860907759883
1545,0.0052241287241438375,0.7341691068814056
1546,0.0052291664567611406,0.7341691068814056
1547,0.0052291664567611406,0.7343521229868228
1548,0.005239241921995748,0.7343521229868228
1549,0.005239241921995748,0.7347181551976574
1550,0.005249317387230355,0.7347181551976574
1551,0.005249317387230355,0.734809663250366
1552,0.005254355119847659,0.734809663250366
1553,0.005254355119847659,0.7349011713030746
1554,0.005259392852464962,0.7349011713030746
1555,0.005259392852464962,0.7349926793557833
1556,0.005264430585082266,0.7349926793557833
1557,0.005264430585082266,0.7351756954612005
1558,0.005289619248168784,0.7351756954612005
1559,0.005289619248168784,0.7352672035139092
1560,0.005294656980786088,0.7352672035139092
1561,0.005294656980786088,0.7353587115666179
1562,0.005299694713403392,0.7353587115666179
1563,0.005299694713403392,0.7354502196193266
1564,0.005309770178637999,0.7354502196193266
1565,0.005309770178637999,0.7355417276720352
1566,0.005329921109107213,0.7355417276720352
1567,0.005329921109107213,0.7356332357247438
1568,0.00533999657434182,0.7356332357247438
1569,0.00533999657434182,0.7357247437774525
1570,0.005345034306959124,0.7357247437774525
1571,0.005345034306959124,0.7358162518301611
1572,0.005365185237428338,0.7358162518301611
1573,0.005365185237428338,0.7359992679355783
1574,0.005370222970045642,0.7359992679355783
1575,0.005370222970045642,0.7362737920937042
1576,0.005380298435280249,0.7362737920937042
1577,0.005380298435280249,0.7365483162518301
1578,0.005385336167897553,0.7365483162518301
1579,0.005385336167897553,0.7367313323572474
1580,0.00539541163313216,0.7367313323572474
1581,0.00539541163313216,0.737097364568082
1582,0.0054054870983667675,0.737097364568082
1583,0.0054054870983667675,0.7371888726207906
1584,0.005420600296218678,0.7371888726207906
1585,0.005420600296218678,0.7372803806734992
1586,0.005425638028835981,0.7372803806734992
1587,0.005425638028835981,0.7375549048316252
1588,0.005450826691922499,0.7375549048316252
1589,0.005450826691922499,0.7376464128843339
1590,0.005460902157157107,0.7376464128843339
1591,0.005460902157157107,0.7377379209370425
1592,0.00546593988977441,0.7377379209370425
1593,0.00546593988977441,0.7379209370424598
1594,0.005486090820243625,0.7379209370424598
1595,0.005486090820243625,0.7380124450951684
1596,0.0054911285528609285,0.7380124450951684
1597,0.0054911285528609285,0.738103953147877
1598,0.005496166285478232,0.738103953147877
1599,0.005496166285478232,0.7382869692532943
1600,0.00552135494856475,0.7382869692532943
1601,0.00552135494856475,0.7383784773060029
1602,0.005526392681182053,0.7383784773060029
1603,0.005526392681182053,0.7390190336749634
1604,0.005531430413799357,0.7390190336749634
1605,0.005531430413799357,0.739110541727672
1606,0.005541505879033964,0.739110541727672
1607,0.005541505879033964,0.7392935578330894
1608,0.005546543611651268,0.7392935578330894
1609,0.005546543611651268,0.7396595900439239
1610,0.005551581344268572,0.7396595900439239
1611,0.005551581344268572,0.741123718887262
1612,0.005556619076885875,0.741123718887262
1613,0.005556619076885875,0.7415812591508053
1614,0.005571732274737786,0.7415812591508053
1615,0.005571732274737786,0.7416727672035139
1616,0.0055818077399723935,0.7416727672035139
1617,0.0055818077399723935,0.7421303074670571
1618,0.005596920937824304,0.7421303074670571
1619,0.005596920937824304,0.742404831625183
1620,0.005601958670441607,0.742404831625183
1621,0.005601958670441607,0.7426793557833089
1622,0.005606996403058911,0.7426793557833089
1623,0.005606996403058911,0.7428623718887262
1624,0.005617071868293518,0.7428623718887262
1625,0.005617071868293518,0.7429538799414348
1626,0.005622109600910822,0.7429538799414348
1627,0.005622109600910822,0.7434114202049781
1628,0.005627147333528126,0.7434114202049781
1629,0.005627147333528126,0.7437774524158126
1630,0.005632185066145429,0.7437774524158126
1631,0.005632185066145429,0.7441434846266471
1632,0.005637222798762733,0.7441434846266471
1633,0.005637222798762733,0.7442349926793558
1634,0.005657373729231948,0.7442349926793558
1635,0.005657373729231948,0.744418008784773
1636,0.005662411461849251,0.744418008784773
1637,0.005662411461849251,0.7447840409956076
1638,0.005667449194466555,0.7447840409956076
1639,0.005667449194466555,0.7448755490483162
1640,0.0056775246597011615,0.7448755490483162
1641,0.0056775246597011615,0.7449670571010248
1642,0.005682562392318465,0.7449670571010248
1643,0.005682562392318465,0.7455161054172768
1644,0.005687600124935769,0.7455161054172768
1645,0.005687600124935769,0.7458821376281113
1646,0.00570271332278768,0.7458821376281113
1647,0.00570271332278768,0.7459736456808199
1648,0.00571782652063959,0.7459736456808199
1649,0.00571782652063959,0.7460651537335286
1650,0.005727901985874198,0.7460651537335286
1651,0.005727901985874198,0.7461566617862372
1652,0.005732939718491501,0.7461566617862372
1653,0.005732939718491501,0.7462481698389458
1654,0.005753090648960716,0.7462481698389458
1655,0.005753090648960716,0.7464311859443631
1656,0.0057581283815780196,0.7464311859443631
1657,0.0057581283815780196,0.7465226939970717
1658,0.005783317044664537,0.7465226939970717
1659,0.005783317044664537,0.7468887262079063
1660,0.005793392509899144,0.7468887262079063
1661,0.005793392509899144,0.7469802342606149
1662,0.005818581172985663,0.7469802342606149
1663,0.005818581172985663,0.7471632503660323
1664,0.005823618905602966,0.7471632503660323
1665,0.005823618905602966,0.7472547584187409
1666,0.005833694370837574,0.7472547584187409
1667,0.005833694370837574,0.7473462664714495
1668,0.005843769836072181,0.7473462664714495
1669,0.005843769836072181,0.7474377745241582
1670,0.0058488075686894845,0.7474377745241582
1671,0.0058488075686894845,0.7475292825768668
1672,0.0058588830339240915,0.7475292825768668
1673,0.0058588830339240915,0.7476207906295754
1674,0.005889109429627913,0.7476207906295754
1675,0.005889109429627913,0.7478038067349927
1676,0.005919335825331735,0.7478038067349927
1677,0.005919335825331735,0.7480783308931186
1678,0.005934449023183646,0.7480783308931186
1679,0.005934449023183646,0.7481698389458272
1680,0.0059445244884182525,0.7481698389458272
1681,0.0059445244884182525,0.7482613469985359
1682,0.005949562221035556,0.7482613469985359
1683,0.005949562221035556,0.7483528550512445
1684,0.005959637686270163,0.7483528550512445
1685,0.005959637686270163,0.7484443631039531
1686,0.005969713151504771,0.7484443631039531
1687,0.005969713151504771,0.7486273792093704
1688,0.005974750884122074,0.7486273792093704
1689,0.005974750884122074,0.7488103953147877
1690,0.005979788616739378,0.7488103953147877
1691,0.005979788616739378,0.7489934114202049
1692,0.005984826349356681,0.7489934114202049
1693,0.005984826349356681,0.7490849194729137
1694,0.005989864081973985,0.7490849194729137
1695,0.005989864081973985,0.7491764275256223
1696,0.005999939547208592,0.7491764275256223
1697,0.005999939547208592,0.7495424597364568
1698,0.0060100150124432,0.7495424597364568
1699,0.0060100150124432,0.7496339677891655
1700,0.006015052745060503,0.7496339677891655
1701,0.006015052745060503,0.7497254758418741
1702,0.006030165942912414,0.7497254758418741
1703,0.006030165942912414,0.7498169838945827
1704,0.0060352036755297175,0.7498169838945827
1705,0.0060352036755297175,0.7504575402635432
1706,0.006040241408147021,0.7504575402635432
1707,0.006040241408147021,0.7510065885797951
1708,0.006045279140764324,0.7510065885797951
1709,0.006045279140764324,0.751281112737921
1710,0.006065430071233539,0.751281112737921
1711,0.006065430071233539,0.7513726207906296
1712,0.006075505536468146,0.7513726207906296
1713,0.006075505536468146,0.7515556368960469
1714,0.00608054326908545,0.7515556368960469
1715,0.00608054326908545,0.7517386530014641
1716,0.006090618734320057,0.7517386530014641
1717,0.006090618734320057,0.7518301610541728
1718,0.006105731932171968,0.7518301610541728
1719,0.006105731932171968,0.7519216691068814
1720,0.0061158073974065755,0.7519216691068814
1721,0.0061158073974065755,0.75201317715959
1722,0.0061258828626411825,0.75201317715959
1723,0.0061258828626411825,0.7521046852122987
1724,0.006130920595258486,0.7521046852122987
1725,0.006130920595258486,0.7521961932650073
1726,0.006135958327875789,0.7521961932650073
1727,0.006135958327875789,0.7527452415812591
1728,0.006156109258345004,0.7527452415812591
1729,0.006156109258345004,0.7528367496339677
1730,0.006181297921431522,0.7528367496339677
1731,0.006181297921431522,0.7530197657393851
1732,0.006186335654048826,0.7530197657393851
1733,0.006186335654048826,0.7531112737920937
1734,0.00619137338666613,0.7531112737920937
1735,0.00619137338666613,0.7532027818448024
1736,0.006196411119283433,0.7532027818448024
1737,0.006196411119283433,0.753294289897511
1738,0.0062115243171353435,0.753294289897511
1739,0.0062115243171353435,0.7533857979502196
1740,0.0062165620497526474,0.7533857979502196
1741,0.0062165620497526474,0.7534773060029283
1742,0.006226637514987254,0.7534773060029283
1743,0.006226637514987254,0.7536603221083455
1744,0.006231675247604558,0.7536603221083455
1745,0.006231675247604558,0.7537518301610542
1746,0.006241750712839165,0.7537518301610542
1747,0.006241750712839165,0.7538433382137628
1748,0.006246788445456469,0.7538433382137628
1749,0.006246788445456469,0.7539348462664714
1750,0.006256863910691076,0.7539348462664714
1751,0.006256863910691076,0.7542093704245973
1752,0.00626190164330838,0.7542093704245973
1753,0.00626190164330838,0.754300878477306
1754,0.006266939375925683,0.754300878477306
1755,0.006266939375925683,0.7545754026354319
1756,0.006282052573777594,0.7545754026354319
1757,0.006282052573777594,0.7546669106881405
1758,0.006292128039012202,0.7546669106881405
1759,0.006292128039012202,0.7547584187408491
1760,0.006297165771629505,0.7547584187408491
1761,0.006297165771629505,0.7548499267935578
1762,0.0063022035042468085,0.7548499267935578
1763,0.0063022035042468085,0.7550329428989752
1764,0.006317316702098719,0.7550329428989752
1765,0.006317316702098719,0.7551244509516838
1766,0.006327392167333326,0.7551244509516838
1767,0.006327392167333326,0.7553074670571011
1768,0.00633242989995063,0.7553074670571011
1769,0.00633242989995063,0.7553989751098097
1770,0.006337467632567934,0.7553989751098097
1771,0.006337467632567934,0.7558565153733529
1772,0.006347543097802541,0.7558565153733529
1773,0.006347543097802541,0.7559480234260615
1774,0.006357618563037148,0.7559480234260615
1775,0.006357618563037148,0.7560395314787701
1776,0.006377769493506363,0.7560395314787701
1777,0.006377769493506363,0.7561310395314788
1778,0.00638784495874097,0.7561310395314788
1779,0.00638784495874097,0.7562225475841874
1780,0.0063928826913582735,0.7562225475841874
1781,0.0063928826913582735,0.756314055636896
1782,0.00640295815659288,0.756314055636896
1783,0.00640295815659288,0.7564970717423133
1784,0.006418071354444791,0.7564970717423133
1785,0.006418071354444791,0.7567715959004392
1786,0.006423109087062095,0.7567715959004392
1787,0.006423109087062095,0.7568631039531479
1788,0.006428146819679399,0.7568631039531479
1789,0.006428146819679399,0.7569546120058566
1790,0.006438222284914006,0.7569546120058566
1791,0.006438222284914006,0.7572291361639825
1792,0.006448297750148613,0.7572291361639825
1793,0.006448297750148613,0.7575036603221084
1794,0.006453335482765917,0.7575036603221084
1795,0.006453335482765917,0.757595168374817
1796,0.006468448680617828,0.757595168374817
1797,0.006468448680617828,0.7576866764275256
1798,0.0064734864132351315,0.7576866764275256
1799,0.0064734864132351315,0.7578696925329429
1800,0.006493637343704345,0.7578696925329429
1801,0.006493637343704345,0.7579612005856515
1802,0.006498675076321649,0.7579612005856515
1803,0.006498675076321649,0.7580527086383602
1804,0.00651378827417356,0.7580527086383602
1805,0.00651378827417356,0.7583272327964861
1806,0.006523863739408167,0.7583272327964861
1807,0.006523863739408167,0.7584187408491947
1808,0.006528901472025471,0.7584187408491947
1809,0.006528901472025471,0.758601756954612
1810,0.006538976937260078,0.758601756954612
1811,0.006538976937260078,0.7586932650073206
1812,0.006554090135111989,0.7586932650073206
1813,0.006554090135111989,0.758876281112738
1814,0.006564165600346596,0.758876281112738
1815,0.006564165600346596,0.7589677891654466
1816,0.0065692033329638995,0.7589677891654466
1817,0.0065692033329638995,0.7593338213762811
1818,0.0065792787981985065,0.7593338213762811
1819,0.0065792787981985065,0.7594253294289898
1820,0.00658431653081581,0.7594253294289898
1821,0.00658431653081581,0.7595168374816984
1822,0.006589354263433114,0.7595168374816984
1823,0.006589354263433114,0.759608345534407
1824,0.006594391996050417,0.759608345534407
1825,0.006594391996050417,0.7596998535871157
1826,0.006619580659136936,0.7596998535871157
1827,0.006619580659136936,0.7598828696925329
1828,0.006624618391754239,0.7598828696925329
1829,0.006624618391754239,0.7600658857979502
1830,0.006629656124371543,0.7600658857979502
1831,0.006629656124371543,0.7605234260614934
1832,0.00663973158960615,0.7605234260614934
1833,0.00663973158960615,0.7607064421669106
1834,0.006649807054840758,0.7607064421669106
1835,0.006649807054840758,0.7609809663250366
1836,0.006674995717927275,0.7609809663250366
1837,0.006674995717927275,0.7610724743777453
1838,0.006680033450544579,0.7610724743777453
1839,0.006680033450544579,0.7613469985358712
1840,0.00669514664839649,0.7613469985358712
1841,0.00669514664839649,0.7614385065885798
1842,0.006700184381013793,0.7614385065885798
1843,0.006700184381013793,0.7615300146412884
1844,0.006705222113631097,0.7615300146412884
1845,0.006705222113631097,0.7616215226939971
1846,0.006710259846248401,0.7616215226939971
1847,0.006710259846248401,0.7618045387994143
1848,0.006715297578865704,0.7618045387994143
1849,0.006715297578865704,0.7620790629575402
1850,0.0067505617071868295,0.7620790629575402
1851,0.0067505617071868295,0.7622620790629575
1852,0.00676567490503874,0.7622620790629575
1853,0.00676567490503874,0.7624450951683748
1854,0.006775750370273347,0.7624450951683748
1855,0.006775750370273347,0.7625366032210834
1856,0.006795901300742562,0.7625366032210834
1857,0.006795901300742562,0.762628111273792
1858,0.00682108996382908,0.762628111273792
1859,0.00682108996382908,0.7628111273792094
1860,0.006826127696446384,0.7628111273792094
1861,0.006826127696446384,0.7630856515373353
1862,0.006861391824767508,0.7630856515373353
1863,0.006861391824767508,0.7635431918008785
1864,0.006866429557384812,0.7635431918008785
1865,0.006866429557384812,0.7637262079062958
1866,0.006881542755236723,0.7637262079062958
1867,0.006881542755236723,0.7638177159590044
1868,0.006886580487854027,0.7638177159590044
1869,0.006886580487854027,0.7640922401171303
1870,0.006901693685705938,0.7640922401171303
1871,0.006901693685705938,0.7641837481698389
1872,0.006906731418323241,0.7641837481698389
1873,0.006906731418323241,0.7642752562225475
1874,0.006911769150940545,0.7642752562225475
1875,0.006911769150940545,0.7644582723279648
1876,0.006921844616175152,0.7644582723279648
1877,0.006921844616175152,0.7648243045387995
1878,0.006931920081409759,0.7648243045387995
1879,0.006931920081409759,0.7649158125915081
1880,0.0069369578140270624,0.7649158125915081
1881,0.0069369578140270624,0.7650073206442167
1882,0.006941995546644366,0.7650073206442167
1883,0.006941995546644366,0.7650988286969254
1884,0.006952071011878973,0.7650988286969254
1885,0.006952071011878973,0.765190336749634
1886,0.006962146477113581,0.765190336749634
1887,0.006962146477113581,0.7653733528550513
1888,0.006967184209730884,0.7653733528550513
1889,0.006967184209730884,0.7654648609077599
1890,0.006972221942348188,0.7654648609077599
1891,0.006972221942348188,0.7656478770131772
1892,0.006982297407582795,0.7656478770131772
1893,0.006982297407582795,0.7657393850658858
1894,0.006987335140200099,0.7657393850658858
1895,0.006987335140200099,0.7658308931185944
1896,0.00700244833805201,0.7658308931185944
1897,0.00700244833805201,0.7661054172767203
1898,0.007012523803286617,0.7661054172767203
1899,0.007012523803286617,0.7665629575402635
1900,0.0070175615359039205,0.7665629575402635
1901,0.0070175615359039205,0.7668374816983895
1902,0.007027637001138527,0.7668374816983895
1903,0.007027637001138527,0.7669289897510981
1904,0.007032674733755831,0.7669289897510981
1905,0.007032674733755831,0.7670204978038068
1906,0.007042750198990438,0.7670204978038068
1907,0.007042750198990438,0.7671120058565154
1908,0.007047787931607742,0.7671120058565154
1909,0.007047787931607742,0.7672950219619327
1910,0.00707297659469426,0.7672950219619327
1911,0.00707297659469426,0.7674780380673499
1912,0.007078014327311564,0.7674780380673499
1913,0.007078014327311564,0.7676610541727672
1914,0.007088089792546171,0.7676610541727672
1915,0.007088089792546171,0.7679355783308931
1916,0.007098165257780778,0.7679355783308931
1917,0.007098165257780778,0.7681185944363104
1918,0.0071032029903980816,0.7681185944363104
1919,0.0071032029903980816,0.7683016105417276
1920,0.007133429386101903,0.7683016105417276
1921,0.007133429386101903,0.7685761346998536
1922,0.007138467118719207,0.7685761346998536
1923,0.007138467118719207,0.7686676427525623
1924,0.00714350485133651,0.7686676427525623
1925,0.00714350485133651,0.7688506588579795
1926,0.007178768979657636,0.7688506588579795
1927,0.007178768979657636,0.7689421669106882
1928,0.007188844444892243,0.7689421669106882
1929,0.007188844444892243,0.7691251830161054
1930,0.007208995375361457,0.7691251830161054
1931,0.007208995375361457,0.7693997071742313
1932,0.007214033107978761,0.7693997071742313
1933,0.007214033107978761,0.7695827232796486
1934,0.007229146305830672,0.7695827232796486
1935,0.007229146305830672,0.7698572474377745
1936,0.007239221771065279,0.7698572474377745
1937,0.007239221771065279,0.770223279648609
1938,0.007244259503682583,0.770223279648609
1939,0.007244259503682583,0.7704062957540263
1940,0.007249297236299886,0.7704062957540263
1941,0.007249297236299886,0.7704978038067349
1942,0.007259372701534494,0.7704978038067349
1943,0.007259372701534494,0.7705893118594437
1944,0.007274485899386405,0.7705893118594437
1945,0.007274485899386405,0.770772327964861
1946,0.007294636829855618,0.770772327964861
1947,0.007294636829855618,0.7708638360175696
1948,0.007309750027707529,0.7708638360175696
1949,0.007309750027707529,0.7710468521229868
1950,0.007329900958176744,0.7710468521229868
1951,0.007329900958176744,0.7711383601756955
1952,0.007334938690794047,0.7711383601756955
1953,0.007334938690794047,0.7712298682284041
1954,0.007339976423411351,0.7712298682284041
1955,0.007339976423411351,0.7716874084919473
1956,0.007350051888645958,0.7716874084919473
1957,0.007350051888645958,0.7717789165446559
1958,0.007355089621263262,0.7717789165446559
1959,0.007355089621263262,0.7718704245973645
1960,0.007370202819115173,0.7718704245973645
1961,0.007370202819115173,0.7719619326500732
1962,0.0073752405517324765,0.7719619326500732
1963,0.0073752405517324765,0.7721449487554904
1964,0.0073802782843497795,0.7721449487554904
1965,0.0073802782843497795,0.7724194729136163
1966,0.007385316016967083,0.7724194729136163
1967,0.007385316016967083,0.7725109809663251
1968,0.007390353749584387,0.7725109809663251
1969,0.007390353749584387,0.7726024890190337
1970,0.00739539148220169,0.7726024890190337
1971,0.00739539148220169,0.7726939970717424
1972,0.007400429214818994,0.7726939970717424
1973,0.007400429214818994,0.772785505124451
1974,0.007420580145288209,0.772785505124451
1975,0.007420580145288209,0.7729685212298683
1976,0.007425617877905512,0.7729685212298683
1977,0.007425617877905512,0.7730600292825769
1978,0.007430655610522816,0.7730600292825769
1979,0.007430655610522816,0.7732430453879942
1980,0.00743569334314012,0.7732430453879942
1981,0.00743569334314012,0.7736090775988287
1982,0.007440731075757423,0.7736090775988287
1983,0.007440731075757423,0.7737005856515373
1984,0.007445768808374727,0.7737005856515373
1985,0.007445768808374727,0.773792093704246
1986,0.007450806540992031,0.773792093704246
1987,0.007450806540992031,0.7738836017569546
1988,0.0074608820062266375,0.7738836017569546
1989,0.0074608820062266375,0.7739751098096632
1990,0.0074659197388439414,0.7739751098096632
1991,0.0074659197388439414,0.7741581259150805
1992,0.0074709574714612445,0.7741581259150805
1993,0.0074709574714612445,0.7743411420204978
1994,0.007481032936695852,0.7743411420204978
1995,0.007481032936695852,0.7747071742313324
1996,0.007501183867165066,0.7747071742313324
1997,0.007501183867165066,0.7749816983894583
1998,0.007511259332399674,0.7749816983894583
1999,0.007511259332399674,0.7750732064421669
2000,0.007531410262868888,0.7750732064421669
2001,0.007531410262868888,0.7752562225475842
2002,0.0075616366585727094,0.7752562225475842
2003,0.0075616366585727094,0.7753477306002928
2004,0.007586825321659227,0.7753477306002928
2005,0.007586825321659227,0.7754392386530015
2006,0.007612013984745746,0.7754392386530015
2007,0.007612013984745746,0.7755307467057101
2008,0.007627127182597657,0.7755307467057101
2009,0.007627127182597657,0.7756222547584187
2010,0.007637202647832264,0.7756222547584187
2011,0.007637202647832264,0.7757137628111274
2012,0.007667429043536085,0.7757137628111274
2013,0.007667429043536085,0.775805270863836
2014,0.0076875799740053,0.775805270863836
2015,0.0076875799740053,0.7761713030746705
2016,0.007702693171857211,0.7761713030746705
2017,0.007702693171857211,0.7762628111273792
2018,0.007707730904474514,0.7762628111273792
2019,0.007707730904474514,0.7765373352855052
2020,0.007722844102326425,0.7765373352855052
2021,0.007722844102326425,0.7767203513909224
2022,0.007742995032795639,0.7767203513909224
2023,0.007742995032795639,0.7768118594436311
2024,0.007748032765412943,0.7768118594436311
2025,0.007748032765412943,0.7769033674963397
2026,0.00775810823064755,0.7769033674963397
2027,0.00775810823064755,0.777086383601757
2028,0.007783296893734068,0.777086383601757
2029,0.007783296893734068,0.7771778916544656
2030,0.007788334626351372,0.7771778916544656
2031,0.007788334626351372,0.7773609077598829
2032,0.007793372358968676,0.7773609077598829
2033,0.007793372358968676,0.7774524158125915
2034,0.007808485556820587,0.7774524158125915
2035,0.007808485556820587,0.7776354319180088
2036,0.007818561022055193,0.7776354319180088
2037,0.007818561022055193,0.7777269399707174
2038,0.007823598754672497,0.7777269399707174
2039,0.007823598754672497,0.777818448023426
2040,0.0078286364872898,0.777818448023426
2041,0.0078286364872898,0.7780014641288433
2042,0.007833674219907103,0.7780014641288433
2043,0.007833674219907103,0.7781844802342606
2044,0.007843749685141711,0.7781844802342606
2045,0.007843749685141711,0.7782759882869692
2046,0.007848787417759014,0.7782759882869692
2047,0.007848787417759014,0.7783674963396779
2048,0.007853825150376319,0.7783674963396779
2049,0.007853825150376319,0.7784590043923866
2050,0.007863900615610925,0.7784590043923866
2051,0.007863900615610925,0.7785505124450952
2052,0.00786893834822823,0.7785505124450952
2053,0.00786893834822823,0.7786420204978038
2054,0.007879013813462836,0.7786420204978038
2055,0.007879013813462836,0.7787335285505125
2056,0.007904202476549355,0.7787335285505125
2057,0.007904202476549355,0.7788250366032211
2058,0.007919315674401265,0.7788250366032211
2059,0.007919315674401265,0.7789165446559297
2060,0.007929391139635873,0.7789165446559297
2061,0.007929391139635873,0.7795571010248902
2062,0.00793946660487048,0.7795571010248902
2063,0.00793946660487048,0.7796486090775988
2064,0.007944504337487784,0.7796486090775988
2065,0.007944504337487784,0.7798316251830161
2066,0.007949542070105087,0.7798316251830161
2067,0.007949542070105087,0.780106149341142
2068,0.00795457980272239,0.780106149341142
2069,0.00795457980272239,0.7802891654465594
2070,0.007959617535339695,0.7802891654465594
2071,0.007959617535339695,0.780380673499268
2072,0.007989843931043517,0.780380673499268
2073,0.007989843931043517,0.7804721815519766
2074,0.00800999486151273,0.7804721815519766
2075,0.00800999486151273,0.7805636896046853
2076,0.008015032594130033,0.7805636896046853
2077,0.008015032594130033,0.7807467057101025
2078,0.008030145791981944,0.7807467057101025
2079,0.008030145791981944,0.7810212298682284
2080,0.008035183524599249,0.7810212298682284
2081,0.008035183524599249,0.781112737920937
2082,0.008055334455068463,0.781112737920937
2083,0.008055334455068463,0.7815702781844802
2084,0.00806540992030307,0.7815702781844802
2085,0.00806540992030307,0.7816617862371888
2086,0.008070447652920374,0.7816617862371888
2087,0.008070447652920374,0.7818448023426061
2088,0.008075485385537677,0.7818448023426061
2089,0.008075485385537677,0.7819363103953147
2090,0.008080523118154982,0.7819363103953147
2091,0.008080523118154982,0.782119326500732
2092,0.008085560850772285,0.782119326500732
2093,0.008085560850772285,0.7823023426061494
2094,0.008090598583389588,0.7823023426061494
2095,0.008090598583389588,0.782393850658858
2096,0.008105711781241498,0.782393850658858
2097,0.008105711781241498,0.7824853587115667
2098,0.008110749513858803,0.7824853587115667
2099,0.008110749513858803,0.7825768667642753
2100,0.00812082497909341,0.7825768667642753
2101,0.00812082497909341,0.7826683748169839
2102,0.00813593817694532,0.7826683748169839
2103,0.00813593817694532,0.7827598828696926
2104,0.008156089107414536,0.7827598828696926
2105,0.008156089107414536,0.7828513909224012
2106,0.008166164572649142,0.7828513909224012
2107,0.008166164572649142,0.7829428989751098
2108,0.00817624003788375,0.7829428989751098
2109,0.00817624003788375,0.7831259150805271
2110,0.008186315503118357,0.7831259150805271
2111,0.008186315503118357,0.783400439238653
2112,0.008206466433587571,0.783400439238653
2113,0.008206466433587571,0.7834919472913616
2114,0.008236692829291393,0.7834919472913616
2115,0.008236692829291393,0.7835834553440703
2116,0.008251806027143304,0.7835834553440703
2117,0.008251806027143304,0.7837664714494875
2118,0.008256843759760607,0.7837664714494875
2119,0.008256843759760607,0.7841325036603221
2120,0.00826188149237791,0.7841325036603221
2121,0.00826188149237791,0.7842240117130308
2122,0.008271956957612518,0.7842240117130308
2123,0.008271956957612518,0.7843155197657394
2124,0.008282032422847125,0.7843155197657394
2125,0.008282032422847125,0.7844070278184481
2126,0.008287070155464428,0.7844070278184481
2127,0.008287070155464428,0.7844985358711567
2128,0.00830218335331634,0.7844985358711567
2129,0.00830218335331634,0.7845900439238653
2130,0.008307221085933642,0.7845900439238653
2131,0.008307221085933642,0.784681551976574
2132,0.00831729655116825,0.784681551976574
2133,0.00831729655116825,0.7847730600292826
2134,0.008327372016402858,0.7847730600292826
2135,0.008327372016402858,0.7848645680819912
2136,0.00833240974902016,0.7848645680819912
2137,0.00833240974902016,0.7851390922401171
2138,0.008347522946872072,0.7851390922401171
2139,0.008347522946872072,0.7852306002928258
2140,0.008362636144723982,0.7852306002928258
2141,0.008362636144723982,0.7853221083455344
2142,0.008382787075193196,0.7853221083455344
2143,0.008382787075193196,0.785413616398243
2144,0.008387824807810501,0.785413616398243
2145,0.008387824807810501,0.7855051244509517
2146,0.008392862540427804,0.7855051244509517
2147,0.008392862540427804,0.7856881405563689
2148,0.008397900273045107,0.7856881405563689
2149,0.008397900273045107,0.7862371888726208
2150,0.008413013470897018,0.7862371888726208
2151,0.008413013470897018,0.7864202049780381
2152,0.008428126668748929,0.7864202049780381
2153,0.008428126668748929,0.7865117130307467
2154,0.008453315331835447,0.7865117130307467
2155,0.008453315331835447,0.7866032210834554
2156,0.00845835306445275,0.7866032210834554
2157,0.00845835306445275,0.786694729136164
2158,0.008468428529687358,0.786694729136164
2159,0.008468428529687358,0.7868777452415813
2160,0.008493617192773877,0.7868777452415813
2161,0.008493617192773877,0.7869692532942899
2162,0.00849865492539118,0.7869692532942899
2163,0.00849865492539118,0.7875183016105417
2164,0.008508730390625788,0.7875183016105417
2165,0.008508730390625788,0.7876098096632503
2166,0.008518805855860394,0.7876098096632503
2167,0.008518805855860394,0.7877928257686676
2168,0.008589334112502645,0.7877928257686676
2169,0.008589334112502645,0.7879758418740849
2170,0.008599409577737253,0.7879758418740849
2171,0.008599409577737253,0.7881588579795022
2172,0.008604447310354556,0.7881588579795022
2173,0.008604447310354556,0.7882503660322109
2174,0.008609485042971859,0.7882503660322109
2175,0.008609485042971859,0.7883418740849195
2176,0.008614522775589164,0.7883418740849195
2177,0.008614522775589164,0.7884333821376281
2178,0.008629635973441074,0.7884333821376281
2179,0.008629635973441074,0.788707906295754
2180,0.008685051032231413,0.788707906295754
2181,0.008685051032231413,0.7887994143484627
2182,0.008705201962700629,0.7887994143484627
2183,0.008705201962700629,0.7888909224011713
2184,0.008710239695317932,0.7888909224011713
2185,0.008710239695317932,0.78898243045388
2186,0.00872031516055254,0.78898243045388
2187,0.00872031516055254,0.7890739385065886
2188,0.008725352893169842,0.7890739385065886
2189,0.008725352893169842,0.7891654465592972
2190,0.00873542835840445,0.7891654465592972
2191,0.00873542835840445,0.7895314787701317
2192,0.008750541556256361,0.7895314787701317
2193,0.008750541556256361,0.7896229868228404
2194,0.008755579288873664,0.7896229868228404
2195,0.008755579288873664,0.7898975109809663
2196,0.008775730219342878,0.7898975109809663
2197,0.008775730219342878,0.7899890190336749
2198,0.008800918882429397,0.7899890190336749
2199,0.008800918882429397,0.7900805270863837
2200,0.008816032080281307,0.7900805270863837
2201,0.008816032080281307,0.7901720351390923
2202,0.008836183010750521,0.7901720351390923
2203,0.008836183010750521,0.7902635431918009
2204,0.00886137167383704,0.7902635431918009
2205,0.00886137167383704,0.7904465592972182
2206,0.008886560336923557,0.7904465592972182
2207,0.008886560336923557,0.7905380673499268
2208,0.008911749000010075,0.7905380673499268
2209,0.008911749000010075,0.7906295754026355
2210,0.00893189993047929,0.7906295754026355
2211,0.00893189993047929,0.7907210834553441
2212,0.008936937663096594,0.7907210834553441
2213,0.008936937663096594,0.7908125915080527
2214,0.008941975395713897,0.7908125915080527
2215,0.008941975395713897,0.7909040995607614
2216,0.0089470131283312,0.7909040995607614
2217,0.0089470131283312,0.7910871156661786
2218,0.008952050860948505,0.7910871156661786
2219,0.008952050860948505,0.7913616398243045
2220,0.00896212632618311,0.7913616398243045
2221,0.00896212632618311,0.7915446559297218
2222,0.008967164058800416,0.7915446559297218
2223,0.008967164058800416,0.791727672035139
2224,0.008972201791417719,0.791727672035139
2225,0.008972201791417719,0.7918191800878477
2226,0.00898731498926963,0.7918191800878477
2227,0.00898731498926963,0.7919106881405563
2228,0.008997390454504237,0.7919106881405563
2229,0.008997390454504237,0.7920021961932651
2230,0.009012503652356148,0.7920021961932651
2231,0.009012503652356148,0.7920937042459737
2232,0.009017541384973451,0.7920937042459737
2233,0.009017541384973451,0.7924597364568082
2234,0.009022579117590754,0.7924597364568082
2235,0.009022579117590754,0.7925512445095169
2236,0.009027616850208059,0.7925512445095169
2237,0.009027616850208059,0.7926427525622255
2238,0.009037692315442665,0.7926427525622255
2239,0.009037692315442665,0.7928257686676428
2240,0.00904273004805997,0.7928257686676428
2241,0.00904273004805997,0.7931918008784773
2242,0.009047767780677273,0.7931918008784773
2243,0.009047767780677273,0.7932833089311859
2244,0.009062880978529184,0.7932833089311859
2245,0.009062880978529184,0.7933748169838946
2246,0.009067918711146487,0.7933748169838946
2247,0.009067918711146487,0.7934663250366032
2248,0.009098145106850308,0.7934663250366032
2249,0.009098145106850308,0.7935578330893118
2250,0.009118296037319524,0.7935578330893118
2251,0.009118296037319524,0.7936493411420205
2252,0.009138446967788738,0.7936493411420205
2253,0.009138446967788738,0.7938323572474377
2254,0.009158597898257952,0.7938323572474377
2255,0.009158597898257952,0.7939238653001464
2256,0.009198899759196381,0.7939238653001464
2257,0.009198899759196381,0.7940153733528551
2258,0.009208975224430989,0.7940153733528551
2259,0.009208975224430989,0.7941068814055637
2260,0.0092240884222829,0.7941068814055637
2261,0.0092240884222829,0.7943814055636896
2262,0.009229126154900203,0.7943814055636896
2263,0.009229126154900203,0.7944729136163983
2264,0.009234163887517506,0.7944729136163983
2265,0.009234163887517506,0.7945644216691069
2266,0.009244239352752114,0.7945644216691069
2267,0.009244239352752114,0.7946559297218155
2268,0.009249277085369417,0.7946559297218155
2269,0.009249277085369417,0.7950219619326501
2270,0.009254314817986721,0.7950219619326501
2271,0.009254314817986721,0.7951134699853587
2272,0.009264390283221327,0.7951134699853587
2273,0.009264390283221327,0.7952049780380673
2274,0.009299654411542452,0.7952049780380673
2275,0.009299654411542452,0.795296486090776
2276,0.009319805342011668,0.795296486090776
2277,0.009319805342011668,0.7954795021961932
2278,0.00932484307462897,0.7954795021961932
2279,0.00932484307462897,0.7957540263543191
2280,0.009334918539863579,0.7957540263543191
2281,0.009334918539863579,0.7960285505124451
2282,0.0093651449355674,0.7960285505124451
2283,0.0093651449355674,0.7961200585651538
2284,0.009380258133419311,0.7961200585651538
2285,0.009380258133419311,0.7962115666178624
2286,0.009405446796505828,0.7962115666178624
2287,0.009405446796505828,0.796303074670571
2288,0.009410484529123133,0.796303074670571
2289,0.009410484529123133,0.7964860907759883
2290,0.009420559994357739,0.7964860907759883
2291,0.009420559994357739,0.7965775988286969
2292,0.009425597726975043,0.7965775988286969
2293,0.009425597726975043,0.7966691068814056
2294,0.00943567319220965,0.7966691068814056
2295,0.00943567319220965,0.7967606149341142
2296,0.009455824122678865,0.7967606149341142
2297,0.009455824122678865,0.7969436310395315
2298,0.009465899587913471,0.7969436310395315
2299,0.009465899587913471,0.7970351390922401
2300,0.009475975053148079,0.7970351390922401
2301,0.009475975053148079,0.7971266471449487
2302,0.009481012785765382,0.7971266471449487
2303,0.009481012785765382,0.7972181551976574
2304,0.009486050518382687,0.7972181551976574
2305,0.009486050518382687,0.797309663250366
2306,0.00949108825099999,0.797309663250366
2307,0.00949108825099999,0.7974011713030746
2308,0.009496125983617293,0.7974011713030746
2309,0.009496125983617293,0.7974926793557833
2310,0.009501163716234598,0.7974926793557833
2311,0.009501163716234598,0.7975841874084919
2312,0.009516276914086508,0.7975841874084919
2313,0.009516276914086508,0.7977672035139092
2314,0.009521314646703812,0.7977672035139092
2315,0.009521314646703812,0.7980417276720352
2316,0.009526352379321115,0.7980417276720352
2317,0.009526352379321115,0.7981332357247438
2318,0.009536427844555722,0.7981332357247438
2319,0.009536427844555722,0.7982247437774525
2320,0.009556578775024936,0.7982247437774525
2321,0.009556578775024936,0.7983162518301611
2322,0.009566654240259544,0.7983162518301611
2323,0.009566654240259544,0.7984077598828697
2324,0.009576729705494152,0.7984077598828697
2325,0.009576729705494152,0.798590775988287
2326,0.009591842903346063,0.798590775988287
2327,0.009591842903346063,0.7986822840409956
2328,0.009601918368580669,0.7986822840409956
2329,0.009601918368580669,0.7987737920937042
2330,0.009606956101197973,0.7987737920937042
2331,0.009606956101197973,0.7989568081991215
2332,0.009611993833815276,0.7989568081991215
2333,0.009611993833815276,0.7990483162518301
2334,0.009642220229519098,0.7990483162518301
2335,0.009642220229519098,0.7992313323572474
2336,0.009647257962136401,0.7992313323572474
2337,0.009647257962136401,0.799322840409956
2338,0.009657333427371009,0.799322840409956
2339,0.009657333427371009,0.7995058565153733
2340,0.00968755982307483,0.7995058565153733
2341,0.00968755982307483,0.799597364568082
2342,0.009692597555692134,0.799597364568082
2343,0.009692597555692134,0.7996888726207906
2344,0.00972786168401326,0.7996888726207906
2345,0.00972786168401326,0.7997803806734992
2346,0.009748012614482474,0.7997803806734992
2347,0.009748012614482474,0.799871888726208
2348,0.009773201277568993,0.799871888726208
2349,0.009773201277568993,0.7999633967789166
2350,0.009783276742803599,0.7999633967789166
2351,0.009783276742803599,0.8000549048316252
2352,0.009788314475420903,0.8000549048316252
2353,0.009788314475420903,0.8001464128843339
2354,0.009793352208038206,0.8001464128843339
2355,0.009793352208038206,0.8005124450951684
2356,0.00979838994065551,0.8005124450951684
2357,0.00979838994065551,0.800603953147877
2358,0.00981350313850742,0.800603953147877
2359,0.00981350313850742,0.8006954612005857
2360,0.009823578603742028,0.8006954612005857
2361,0.009823578603742028,0.8007869692532943
2362,0.009848767266828545,0.8007869692532943
2363,0.009848767266828545,0.8008784773060029
2364,0.009878993662532367,0.8008784773060029
2365,0.009878993662532367,0.8009699853587116
2366,0.009909220058236188,0.8009699853587116
2367,0.009909220058236188,0.8012445095168375
2368,0.009934408721322707,0.8012445095168375
2369,0.009934408721322707,0.8013360175695461
2370,0.009974710582261136,0.8013360175695461
2371,0.009974710582261136,0.8014275256222547
2372,0.010004936977964958,0.8014275256222547
2373,0.010004936977964958,0.801610541727672
2374,0.010009974710582261,0.801610541727672
2375,0.010009974710582261,0.8017935578330894
2376,0.010020050175816869,0.8017935578330894
2377,0.010020050175816869,0.801885065885798
2378,0.010030125641051475,0.801885065885798
2379,0.010030125641051475,0.8019765739385066
2380,0.010045238838903386,0.8019765739385066
2381,0.010045238838903386,0.8020680819912153
2382,0.01005027657152069,0.8020680819912153
2383,0.01005027657152069,0.8022510980966325
2384,0.010065389769372601,0.8022510980966325
2385,0.010065389769372601,0.8023426061493412
2386,0.010075465234607207,0.8023426061493412
2387,0.010075465234607207,0.8024341142020498
2388,0.010090578432459118,0.8024341142020498
2389,0.010090578432459118,0.8026171303074671
2390,0.010100653897693726,0.8026171303074671
2391,0.010100653897693726,0.8029831625183016
2392,0.01012080482816294,0.8029831625183016
2393,0.01012080482816294,0.8031661786237189
2394,0.010140955758632155,0.8031661786237189
2395,0.010140955758632155,0.8032576866764275
2396,0.010166144421718672,0.8032576866764275
2397,0.010166144421718672,0.8033491947291361
2398,0.010171182154335977,0.8033491947291361
2399,0.010171182154335977,0.803623718887262
2400,0.010196370817422494,0.803623718887262
2401,0.010196370817422494,0.8037152269399708
2402,0.010201408550039799,0.8037152269399708
2403,0.010201408550039799,0.8038067349926794
2404,0.010211484015274405,0.8038067349926794
2405,0.010211484015274405,0.8039897510980967
2406,0.01021652174789171,0.8039897510980967
2407,0.01021652174789171,0.8040812591508053
2408,0.01023163494574362,0.8040812591508053
2409,0.01023163494574362,0.8042642752562226
2410,0.010256823608830137,0.8042642752562226
2411,0.010256823608830137,0.8043557833089312
2412,0.010276974539299353,0.8043557833089312
2413,0.010276974539299353,0.8044472913616398
2414,0.010287050004533959,0.8044472913616398
2415,0.010287050004533959,0.8045387994143485
2416,0.010292087737151264,0.8045387994143485
2417,0.010292087737151264,0.8047218155197657
2418,0.010297125469768567,0.8047218155197657
2419,0.010297125469768567,0.8048133235724744
2420,0.010307200935003175,0.8048133235724744
2421,0.010307200935003175,0.8050878477306003
2422,0.01031727640023778,0.8050878477306003
2423,0.01031727640023778,0.8051793557833089
2424,0.0103424650633243,0.8051793557833089
2425,0.0103424650633243,0.8052708638360175
2426,0.01035757826117621,0.8052708638360175
2427,0.01035757826117621,0.8055453879941434
2428,0.010367653726410816,0.8055453879941434
2429,0.010367653726410816,0.8056368960468521
2430,0.010382766924262727,0.8056368960468521
2431,0.010382766924262727,0.8057284040995608
2432,0.010387804656880032,0.8057284040995608
2433,0.010387804656880032,0.8059114202049781
2434,0.010402917854731943,0.8059114202049781
2435,0.010402917854731943,0.8060944363103953
2436,0.010412993319966549,0.8060944363103953
2437,0.010412993319966549,0.806185944363104
2438,0.010423068785201156,0.806185944363104
2439,0.010423068785201156,0.8062774524158126
2440,0.010438181983053067,0.8062774524158126
2441,0.010438181983053067,0.8063689604685212
2442,0.01044321971567037,0.8063689604685212
2443,0.01044321971567037,0.8066434846266471
2444,0.010473446111374192,0.8066434846266471
2445,0.010473446111374192,0.8067349926793558
2446,0.010478483843991497,0.8067349926793558
2447,0.010478483843991497,0.8068265007320644
2448,0.0104835215766088,0.8068265007320644
2449,0.0104835215766088,0.806918008784773
2450,0.010503672507078014,0.806918008784773
2451,0.010503672507078014,0.8071010248901903
2452,0.010533898902781835,0.8071010248901903
2453,0.010533898902781835,0.8071925329428989
2454,0.010543974368016443,0.8071925329428989
2455,0.010543974368016443,0.8072840409956076
2456,0.010549012100633746,0.8072840409956076
2457,0.010549012100633746,0.8073755490483162
2458,0.010559087565868354,0.8073755490483162
2459,0.010559087565868354,0.8074670571010248
2460,0.010574200763720265,0.8074670571010248
2461,0.010574200763720265,0.8075585651537335
2462,0.010589313961572176,0.8075585651537335
2463,0.010589313961572176,0.8076500732064422
2464,0.010594351694189479,0.8076500732064422
2465,0.010594351694189479,0.8080161054172768
2466,0.0106245780898933,0.8080161054172768
2467,0.0106245780898933,0.8081076134699854
2468,0.010629615822510605,0.8081076134699854
2469,0.010629615822510605,0.808199121522694
2470,0.010634653555127908,0.808199121522694
2471,0.010634653555127908,0.8084736456808199
2472,0.010639691287745211,0.8084736456808199
2473,0.010639691287745211,0.8085651537335286
2474,0.010644729020362516,0.8085651537335286
2475,0.010644729020362516,0.8086566617862372
2476,0.010654804485597122,0.8086566617862372
2477,0.010654804485597122,0.8087481698389458
2478,0.01066487995083173,0.8087481698389458
2479,0.01066487995083173,0.8089311859443631
2480,0.010669917683449033,0.8089311859443631
2481,0.010669917683449033,0.8090226939970717
2482,0.010690068613918248,0.8090226939970717
2483,0.010690068613918248,0.8091142020497804
2484,0.010715257277004765,0.8091142020497804
2485,0.010715257277004765,0.809205710102489
2486,0.01072029500962207,0.809205710102489
2487,0.01072029500962207,0.8092972181551976
2488,0.010750521405325892,0.8092972181551976
2489,0.010750521405325892,0.8093887262079063
2490,0.010775710068412409,0.8093887262079063
2491,0.010775710068412409,0.8094802342606149
2492,0.01079082326626432,0.8094802342606149
2493,0.01079082326626432,0.8095717423133236
2494,0.010841200592437357,0.8095717423133236
2495,0.010841200592437357,0.8096632503660323
2496,0.010851276057671963,0.8096632503660323
2497,0.010851276057671963,0.8099377745241582
2498,0.01086135152290657,0.8099377745241582
2499,0.01086135152290657,0.8100292825768668
2500,0.010876464720758481,0.8100292825768668
2501,0.010876464720758481,0.8102122986822841
2502,0.010901653383844998,0.8102122986822841
2503,0.010901653383844998,0.8103038067349927
2504,0.010906691116462303,0.8103038067349927
2505,0.010906691116462303,0.8103953147877013
2506,0.010921804314314214,0.8103953147877013
2507,0.010921804314314214,0.81048682284041
2508,0.010941955244783428,0.81048682284041
2509,0.010941955244783428,0.8108528550512445
2510,0.010952030710018035,0.8108528550512445
2511,0.010952030710018035,0.8109443631039531
2512,0.010962106175252641,0.8109443631039531
2513,0.010962106175252641,0.8110358711566618
2514,0.010967143907869946,0.8110358711566618
2515,0.010967143907869946,0.8113103953147877
2516,0.010982257105721857,0.8113103953147877
2517,0.010982257105721857,0.8114019033674963
2518,0.010992332570956463,0.8114019033674963
2519,0.010992332570956463,0.8115849194729137
2520,0.010997370303573768,0.8115849194729137
2521,0.010997370303573768,0.8116764275256223
2522,0.011012483501425679,0.8116764275256223
2523,0.011012483501425679,0.8118594436310396
2524,0.011062860827598714,0.8118594436310396
2525,0.011062860827598714,0.8119509516837482
2526,0.011072936292833322,0.8119509516837482
2527,0.011072936292833322,0.8120424597364568
2528,0.011083011758067928,0.8120424597364568
2529,0.011083011758067928,0.8121339677891655
2530,0.011093087223302536,0.8121339677891655
2531,0.011093087223302536,0.8123169838945827
2532,0.011103162688537144,0.8123169838945827
2533,0.011103162688537144,0.8124084919472914
2534,0.011108200421154447,0.8124084919472914
2535,0.011108200421154447,0.8125
2536,0.011148502282092876,0.8125
2537,0.011148502282092876,0.8126830161054173
2538,0.011163615479944787,0.8126830161054173
2539,0.011163615479944787,0.8127745241581259
2540,0.01120895507350052,0.8127745241581259
2541,0.011219030538735126,0.8127745241581259
2542,0.011219030538735126,0.8130490483162518
2543,0.01122406827135243,0.8130490483162518
2544,0.01122406827135243,0.8131405563689604
2545,0.011239181469204341,0.8131405563689604
2546,0.011239181469204341,0.8135065885797951
2547,0.011264370132290858,0.8135065885797951
2548,0.011264370132290858,0.8135980966325037
2549,0.011289558795377377,0.8135980966325037
2550,0.011289558795377377,0.8136896046852123
2551,0.011314747458463895,0.8136896046852123
2552,0.011314747458463895,0.8138726207906296
2553,0.011319785191081198,0.8138726207906296
2554,0.011319785191081198,0.8139641288433382
2555,0.011329860656315806,0.8139641288433382
2556,0.011329860656315806,0.8141471449487555
2557,0.01133489838893311,0.8141471449487555
2558,0.01133489838893311,0.8143301610541728
2559,0.011344973854167717,0.8143301610541728
2560,0.011344973854167717,0.8144216691068814
2561,0.01135001158678502,0.8144216691068814
2562,0.01135001158678502,0.8146046852122987
2563,0.011370162517254234,0.8146046852122987
2564,0.011370162517254234,0.8147877013177159
2565,0.011375200249871539,0.8147877013177159
2566,0.011375200249871539,0.8150622254758418
2567,0.011385275715106145,0.8150622254758418
2568,0.011385275715106145,0.8152452415812591
2569,0.01139031344772345,0.8152452415812591
2570,0.01139031344772345,0.8153367496339677
2571,0.011395351180340752,0.8153367496339677
2572,0.011395351180340752,0.8154282576866764
2573,0.011410464378192663,0.8154282576866764
2574,0.011410464378192663,0.8157027818448024
2575,0.011440690773896485,0.8157027818448024
2576,0.011440690773896485,0.815794289897511
2577,0.011460841704365699,0.815794289897511
2578,0.011460841704365699,0.8158857979502196
2579,0.011465879436983002,0.8158857979502196
2580,0.011465879436983002,0.8159773060029283
2581,0.011470917169600307,0.8159773060029283
2582,0.011470917169600307,0.8161603221083455
2583,0.01147595490221761,0.8161603221083455
2584,0.01147595490221761,0.8162518301610542
2585,0.011541445426242556,0.8162518301610542
2586,0.011541445426242556,0.8163433382137628
2587,0.011576709554563682,0.8163433382137628
2588,0.011576709554563682,0.8166178623718887
2589,0.011622049148119415,0.8166178623718887
2590,0.011622049148119415,0.816800878477306
2591,0.011632124613354021,0.816800878477306
2592,0.011632124613354021,0.8170754026354319
2593,0.011637162345971326,0.8170754026354319
2594,0.011637162345971326,0.8173499267935578
2595,0.011647237811205932,0.8173499267935578
2596,0.011647237811205932,0.8174414348462665
2597,0.011697615137378969,0.8174414348462665
2598,0.011697615137378969,0.8178074670571011
2599,0.011717766067848183,0.8178074670571011
2600,0.011717766067848183,0.8178989751098097
2601,0.011732879265700094,0.8178989751098097
2602,0.011732879265700094,0.8181734992679356
2603,0.011758067928786612,0.8181734992679356
2604,0.011758067928786612,0.8182650073206442
2605,0.011773181126638523,0.8182650073206442
2606,0.011773181126638523,0.8184480234260615
2607,0.011788294324490434,0.8184480234260615
2608,0.011788294324490434,0.8185395314787701
2609,0.011813482987576951,0.8185395314787701
2610,0.011813482987576951,0.818814055636896
2611,0.011818520720194256,0.818814055636896
2612,0.011818520720194256,0.8189055636896047
2613,0.01183867165066347,0.8189055636896047
2614,0.01183867165066347,0.8189970717423133
2615,0.011843709383280773,0.8189970717423133
2616,0.011843709383280773,0.8191800878477306
2617,0.01185378484851538,0.8191800878477306
2618,0.01185378484851538,0.8192715959004392
2619,0.011863860313749988,0.8192715959004392
2620,0.011863860313749988,0.8193631039531479
2621,0.011868898046367291,0.8193631039531479
2622,0.011868898046367291,0.8194546120058566
2623,0.011878973511601899,0.8194546120058566
2624,0.011878973511601899,0.8199121522693997
2625,0.011904162174688416,0.8199121522693997
2626,0.011904162174688416,0.8200036603221084
2627,0.011914237639923024,0.8200036603221084
2628,0.011914237639923024,0.820095168374817
2629,0.011924313105157631,0.820095168374817
2630,0.011924313105157631,0.8202781844802343
2631,0.01199484136179988,0.8202781844802343
2632,0.01199484136179988,0.8204612005856515
2633,0.0120200300248864,0.8204612005856515
2634,0.0120200300248864,0.8208272327964861
2635,0.012030105490121006,0.8208272327964861
2636,0.012030105490121006,0.821101756954612
2637,0.012055294153207524,0.821101756954612
2638,0.012055294153207524,0.8212847730600292
2639,0.012090558281528649,0.8212847730600292
2640,0.012090558281528649,0.8214677891654466
2641,0.012095596014145954,0.8214677891654466
2642,0.012095596014145954,0.8216508052708639
2643,0.012110709211997864,0.8216508052708639
2644,0.012110709211997864,0.8217423133235725
2645,0.012151011072936292,0.8217423133235725
2646,0.012151011072936292,0.8219253294289898
2647,0.012166124270788203,0.8219253294289898
2648,0.012166124270788203,0.8220168374816984
2649,0.012181237468640114,0.8220168374816984
2650,0.012181237468640114,0.8221998535871157
2651,0.012186275201257419,0.8221998535871157
2652,0.012186275201257419,0.8222913616398243
2653,0.012206426131726632,0.8222913616398243
2654,0.012206426131726632,0.8223828696925329
2655,0.012221539329578543,0.8223828696925329
2656,0.012221539329578543,0.8224743777452416
2657,0.012246727992665062,0.8224743777452416
2658,0.012246727992665062,0.8225658857979502
2659,0.012281992120986187,0.8225658857979502
2660,0.012281992120986187,0.8226573938506588
2661,0.0123021430514554,0.8226573938506588
2662,0.0123021430514554,0.8228404099560761
2663,0.012307180784072705,0.8228404099560761
2664,0.012307180784072705,0.823114934114202
2665,0.012312218516690008,0.823114934114202
2666,0.012312218516690008,0.8236639824304539
2667,0.012322293981924616,0.8236639824304539
2668,0.012322293981924616,0.8237554904831625
2669,0.012337407179776527,0.8237554904831625
2670,0.012337407179776527,0.8238469985358712
2671,0.01234244491239383,0.8238469985358712
2672,0.01234244491239383,0.8240300146412884
2673,0.012367633575480349,0.8240300146412884
2674,0.012367633575480349,0.8242130307467057
2675,0.01238274677333226,0.8242130307467057
2676,0.01238274677333226,0.824396046852123
2677,0.012402897703801473,0.824396046852123
2678,0.012402897703801473,0.8244875549048316
2679,0.012407935436418776,0.8244875549048316
