,fpr,tpr
0,0.0,0.0
1,0.0,0.0003403675970047651
2,0.0,0.002382573179033356
3,1.7075919538267136e-05,0.002382573179033356
4,1.7075919538267136e-05,0.04731109598366236
5,3.415183907653427e-05,0.04731109598366236
6,3.415183907653427e-05,0.26582709326072157
7,5.1227758614801405e-05,0.26582709326072157
8,5.1227758614801405e-05,0.38631722260040846
9,8.537959769133568e-05,0.38631722260040846
10,8.537959769133568e-05,0.4132062627637849
11,0.00010245551722960281,0.4132062627637849
12,0.00010245551722960281,0.4196732471068754
13,0.00011953143676786995,0.4196732471068754
14,0.00011953143676786995,0.42103471749489446
15,0.0001366073563061371,0.42103471749489446
16,0.0001366073563061371,0.44962559564329474
17,0.00015368327584440423,0.44962559564329474
18,0.00015368327584440423,0.45098706603131383
19,0.00017075919538267137,0.45098706603131383
20,0.00017075919538267137,0.47413206262763785
21,0.00018783511492093848,0.47413206262763785
22,0.00018783511492093848,0.48025867937372363
23,0.00020491103445920562,0.48025867937372363
24,0.00020491103445920562,0.48400272294077606
25,0.00022198695399747276,0.48400272294077606
26,0.00022198695399747276,0.48672566371681414
27,0.0002390628735357399,0.48672566371681414
28,0.0002390628735357399,0.4874063989108237
29,0.000256138793074007,0.4874063989108237
30,0.000256138793074007,0.5037440435670524
31,0.0002732147126122742,0.5037440435670524
32,0.0002732147126122742,0.5074880871341049
33,0.0002902906321505413,0.5074880871341049
34,0.0002902906321505413,0.5445881552076243
35,0.00030736655168880846,0.5445881552076243
36,0.00030736655168880846,0.5456092579986386
37,0.00032444247122707557,0.5456092579986386
38,0.00032444247122707557,0.5483321987746766
39,0.00034151839076534274,0.5483321987746766
40,0.00034151839076534274,0.5612661674608578
41,0.00035859431030360985,0.5612661674608578
42,0.00035859431030360985,0.5643294758339006
43,0.00037567022984187696,0.5643294758339006
44,0.00037567022984187696,0.5684138869979578
45,0.00039274614938014413,0.5684138869979578
46,0.00039274614938014413,0.5728386657590198
47,0.00040982206891841124,0.5728386657590198
48,0.00040982206891841124,0.5748808713410484
49,0.0004268979884566784,0.5748808713410484
50,0.0004268979884566784,0.578284547311096
51,0.0004439739079949455,0.578284547311096
52,0.0004439739079949455,0.5786249149081008
53,0.0004610498275332127,0.5786249149081008
54,0.0004610498275332127,0.5789652825051055
55,0.0004781257470714798,0.5793056501021103
56,0.0004781257470714798,0.5796460176991151
57,0.0004952016666097469,0.5796460176991151
58,0.0004952016666097469,0.5844111640571817
59,0.000512277586148014,0.5844111640571817
60,0.000512277586148014,0.5850918992511913
61,0.0005293535056862812,0.5850918992511913
62,0.0005293535056862812,0.5857726344452008
63,0.0005464294252245484,0.5857726344452008
64,0.0005464294252245484,0.5867937372362151
65,0.0005635053447628155,0.5867937372362151
66,0.0005635053447628155,0.5881552076242341
67,0.0005805812643010826,0.5881552076242341
68,0.0005805812643010826,0.5922396187882913
69,0.0005976571838393497,0.5922396187882913
70,0.0005976571838393497,0.597004765146358
71,0.0006147331033776169,0.597004765146358
72,0.0006147331033776169,0.6004084411164057
73,0.000631809022915884,0.6004084411164057
74,0.000631809022915884,0.6031313818924439
75,0.0006488849424541511,0.6031313818924439
76,0.0006488849424541511,0.6048332198774676
77,0.0006830367815306855,0.6048332198774676
78,0.0006830367815306855,0.6061946902654868
79,0.0007001127010689526,0.6061946902654868
80,0.0007001127010689526,0.6089176310415249
81,0.0007171886206072197,0.6089176310415249
82,0.0007171886206072197,0.6095983662355344
83,0.0007342645401454868,0.6095983662355344
84,0.0007342645401454868,0.6102791014295439
85,0.0007513404596837539,0.6102791014295439
86,0.0007513404596837539,0.6177671885636488
87,0.0007854922987602883,0.6177671885636488
88,0.0007854922987602883,0.6187882913546631
89,0.0008025682182985554,0.6187882913546631
90,0.0008025682182985554,0.6259360108917631
91,0.0008367200573750896,0.6259360108917631
92,0.0008367200573750896,0.6266167460857727
93,0.0008537959769133568,0.6266167460857727
94,0.0008537959769133568,0.627637848876787
95,0.0008708718964516239,0.627637848876787
96,0.0008708718964516239,0.628999319264806
97,0.000887947815989891,0.628999319264806
98,0.000887947815989891,0.6313818924438394
99,0.0009050237355281582,0.6313818924438394
100,0.0009050237355281582,0.6351259360108917
101,0.0009220996550664254,0.6351259360108917
102,0.0009220996550664254,0.636147038801906
103,0.0009391755746046925,0.636147038801906
104,0.0009391755746046925,0.6378488767869299
105,0.0009562514941429596,0.6378488767869299
106,0.0009562514941429596,0.6402314499659633
107,0.0009733274136812267,0.6402314499659633
108,0.0009733274136812267,0.6412525527569776
109,0.0009904033332194938,0.6412525527569776
110,0.0009904033332194938,0.6429543907420013
111,0.001007479252757761,0.6429543907420013
112,0.001007479252757761,0.6436351259360109
113,0.001024555172296028,0.6436351259360109
114,0.001024555172296028,0.6443158611300204
115,0.0010416310918342953,0.6443158611300204
116,0.0010416310918342953,0.6456773315180395
117,0.0010587070113725625,0.6456773315180395
118,0.0010587070113725625,0.6460176991150443
119,0.0010757829309108295,0.6460176991150443
120,0.0010757829309108295,0.6466984343090538
121,0.0010928588504490967,0.6466984343090538
122,0.0010928588504490967,0.6501021102791015
123,0.0011099347699873637,0.6501021102791015
124,0.0011099347699873637,0.6507828454731109
125,0.001127010689525631,0.6507828454731109
126,0.001127010689525631,0.6528250510551395
127,0.0011440866090638982,0.6528250510551395
128,0.0011440866090638982,0.6531654186521443
129,0.0011611625286021652,0.6531654186521443
130,0.0011611625286021652,0.6541865214431586
131,0.0011953143676786994,0.6541865214431586
132,0.0011953143676786994,0.6596324029952348
133,0.0012123902872169666,0.6596324029952348
134,0.0012123902872169666,0.6599727705922396
135,0.0012294662067552338,0.6599727705922396
136,0.0012294662067552338,0.6603131381892444
137,0.0012465421262935008,0.6603131381892444
138,0.0012465421262935008,0.6626957113682778
139,0.001263618045831768,0.6626957113682778
140,0.001263618045831768,0.6633764465622872
141,0.0012806939653700353,0.6633764465622872
142,0.0012806939653700353,0.6647379169503064
143,0.0012977698849083023,0.6647379169503064
144,0.0012977698849083023,0.6678012253233492
145,0.0013319217239848365,0.6678012253233492
146,0.0013319217239848365,0.6698434309053778
147,0.001366073563061371,0.6698434309053778
148,0.001366073563061371,0.6701837985023825
149,0.001383149482599638,0.6701837985023825
150,0.001383149482599638,0.6705241660993874
151,0.0014514531607527066,0.6705241660993874
152,0.0014514531607527066,0.6708645336963921
153,0.0014856049998292408,0.6708645336963921
154,0.0014856049998292408,0.6722260040844111
155,0.001519756838905775,0.6722260040844111
156,0.001519756838905775,0.6729067392784207
157,0.0015368327584440423,0.6729067392784207
158,0.0015368327584440423,0.6742682096664397
159,0.0015539086779823093,0.6742682096664397
160,0.0015539086779823093,0.675289312457454
161,0.0016051364365971107,0.675289312457454
162,0.0016051364365971107,0.6759700476514636
163,0.001622212356135378,0.6759700476514636
164,0.001622212356135378,0.6793737236215113
165,0.001639288275673645,0.6793737236215113
166,0.001639288275673645,0.6800544588155207
167,0.0016905160342884464,0.6800544588155207
168,0.0016905160342884464,0.6807351940095303
169,0.0017075919538267136,0.6807351940095303
170,0.0017075919538267136,0.684138869979578
171,0.0017246678733649806,0.684138869979578
172,0.0017246678733649806,0.6848196051735874
173,0.0017417437929032479,0.6848196051735874
174,0.0017417437929032479,0.685500340367597
175,0.001758819712441515,0.685500340367597
176,0.001758819712441515,0.6858407079646017
177,0.001775895631979782,0.6858407079646017
178,0.001775895631979782,0.6885636487406399
179,0.0017929715515180493,0.6885636487406399
180,0.0017929715515180493,0.6902654867256637
181,0.001878351149209385,0.6902654867256637
182,0.001878351149209385,0.6909462219196733
183,0.001895427068747652,0.6909462219196733
184,0.001895427068747652,0.691286589516678
185,0.0019125029882859192,0.691286589516678
186,0.0019125029882859192,0.6916269571136828
187,0.0019295789078241864,0.6916269571136828
188,0.0019295789078241864,0.6923076923076923
189,0.0019466548273624534,0.6923076923076923
190,0.0019466548273624534,0.692648059904697
191,0.0019637307469007204,0.692648059904697
192,0.0019637307469007204,0.6943498978897209
193,0.0019808066664389876,0.6943498978897209
194,0.0019808066664389876,0.6946902654867256
195,0.002014958505515522,0.6946902654867256
196,0.002014958505515522,0.6960517358747447
197,0.0020320344250537893,0.6960517358747447
198,0.0020320344250537893,0.6980939414567733
199,0.002049110344592056,0.6980939414567733
200,0.002049110344592056,0.6987746766507829
201,0.0020661862641303233,0.6987746766507829
202,0.0020661862641303233,0.6991150442477876
203,0.0020832621836685905,0.6991150442477876
204,0.0020832621836685905,0.7001361470388019
205,0.0021003381032068578,0.7001361470388019
206,0.0021003381032068578,0.7004765146358066
207,0.002117414022745125,0.7004765146358066
208,0.002117414022745125,0.7008168822328115
209,0.002168641781359926,0.7008168822328115
210,0.002168641781359926,0.7014976174268209
211,0.0022027936204364607,0.7014976174268209
212,0.0022027936204364607,0.7021783526208305
213,0.0022369454595129947,0.7021783526208305
214,0.0022369454595129947,0.7028590878148401
215,0.002254021379051262,0.7028590878148401
216,0.002254021379051262,0.7042205582028591
217,0.002305249137666063,0.7042205582028591
218,0.002305249137666063,0.7045609257998638
219,0.0023223250572043303,0.7045609257998638
220,0.0023223250572043303,0.7052416609938734
221,0.0023564768962808648,0.7052416609938734
222,0.0023564768962808648,0.7055820285908782
223,0.002373552815819132,0.7055820285908782
224,0.002373552815819132,0.7059223961878829
225,0.0023906287353573988,0.7059223961878829
226,0.0023906287353573988,0.7062627637848877
227,0.002407704654895666,0.7062627637848877
228,0.002407704654895666,0.7066031313818925
229,0.0024247805744339332,0.7066031313818925
230,0.0024247805744339332,0.7072838665759019
231,0.0024589324135104677,0.7072838665759019
232,0.0024589324135104677,0.7089857045609258
233,0.002527236091663536,0.7089857045609258
234,0.002527236091663536,0.7103471749489448
235,0.0025443120112018033,0.7103471749489448
236,0.0025443120112018033,0.713070115724983
237,0.0025613879307400706,0.713070115724983
238,0.0025613879307400706,0.7140912185159973
239,0.0025955397698166046,0.7140912185159973
240,0.0025955397698166046,0.7147719537100068
241,0.002629691608893139,0.7147719537100068
242,0.002629691608893139,0.7157930565010211
243,0.0026467675284314062,0.7157930565010211
244,0.0026467675284314062,0.7164737916950307
245,0.002663843447969673,0.7164737916950307
246,0.002663843447969673,0.7171545268890401
247,0.0026979952870462075,0.7171545268890401
248,0.0026979952870462075,0.717494894486045
249,0.0027150712065844747,0.717494894486045
250,0.0027150712065844747,0.7185159972770592
251,0.002732147126122742,0.7185159972770592
252,0.002732147126122742,0.718856364874064
253,0.0027492230456610087,0.718856364874064
254,0.0027492230456610087,0.7191967324710687
255,0.002783374884737543,0.7191967324710687
256,0.002783374884737543,0.7208985704560926
257,0.0028346026433523444,0.7208985704560926
258,0.0028346026433523444,0.7219196732471069
259,0.0028516785628906116,0.7219196732471069
260,0.0028516785628906116,0.7222600408441117
261,0.002868754482428879,0.7222600408441117
262,0.002868754482428879,0.7229407760381211
263,0.002885830401967146,0.7229407760381211
264,0.002885830401967146,0.7239618788291354
265,0.00291998224104368,0.7239618788291354
266,0.00291998224104368,0.724642614023145
267,0.0029370581605819472,0.724642614023145
268,0.0029370581605819472,0.726004084411164
269,0.0029541340801202145,0.726004084411164
270,0.0029541340801202145,0.7270251872021783
271,0.002988285919196749,0.7270251872021783
272,0.002988285919196749,0.7280462899931927
273,0.0030053618387350157,0.7280462899931927
274,0.0030053618387350157,0.7300884955752213
275,0.003022437758273283,0.7300884955752213
276,0.003022437758273283,0.730428863172226
277,0.0030736655168880846,0.730428863172226
278,0.0030736655168880846,0.7314499659632403
279,0.0031078173559646186,0.7314499659632403
280,0.0031078173559646186,0.7321307011572499
281,0.003124893275502886,0.7321307011572499
282,0.003124893275502886,0.7324710687542546
283,0.003141969195041153,0.7324710687542546
284,0.003141969195041153,0.7328114363512593
285,0.0031590451145794203,0.7328114363512593
286,0.0031590451145794203,0.7345132743362832
287,0.003176121034117687,0.7345132743362832
288,0.003176121034117687,0.734853641933288
289,0.0031931969536559543,0.734853641933288
290,0.0031931969536559543,0.736215112321307
291,0.0032273487927324887,0.736215112321307
292,0.0032273487927324887,0.7365554799183118
293,0.003244424712270756,0.7365554799183118
294,0.003244424712270756,0.7368958475153166
295,0.0032615006318090227,0.7368958475153166
296,0.0032615006318090227,0.7372362151123213
297,0.0033298043099620916,0.7372362151123213
298,0.0033298043099620916,0.7382573179033356
299,0.0034151839076534273,0.7382573179033356
300,0.0034151839076534273,0.7385976855003403
301,0.0034322598271916945,0.7385976855003403
302,0.0034322598271916945,0.7409802586793737
303,0.0034834875858064957,0.7409802586793737
304,0.0034834875858064957,0.742001361470388
305,0.003500563505344763,0.742001361470388
306,0.003500563505344763,0.7426820966643976
307,0.00351763942488303,0.7426820966643976
308,0.00351763942488303,0.7447243022464262
309,0.003551791263959564,0.7447243022464262
310,0.003551791263959564,0.7450646698434309
311,0.0036200949421126326,0.7450646698434309
312,0.0036200949421126326,0.7460857726344452
313,0.003654246781189167,0.7460857726344452
314,0.003654246781189167,0.7467665078284548
315,0.0036713227007274343,0.7467665078284548
316,0.0036713227007274343,0.7474472430224642
317,0.0037054745398039683,0.7474472430224642
318,0.0037054745398039683,0.7477876106194691
319,0.0037225504593422355,0.7477876106194691
320,0.0037225504593422355,0.7481279782164738
321,0.003773778217957037,0.7481279782164738
322,0.003773778217957037,0.7491490810074881
323,0.003790854137495304,0.7491490810074881
324,0.003790854137495304,0.7494894486044928
325,0.003807930057033571,0.7494894486044928
326,0.003807930057033571,0.7498298162014976
327,0.0038250059765718384,0.7498298162014976
328,0.0038250059765718384,0.7505105513955072
329,0.003859157815648373,0.7505105513955072
330,0.003859157815648373,0.7508509189925119
331,0.003893309654724907,0.7508509189925119
332,0.003893309654724907,0.7515316541865215
333,0.003910385574263174,0.7515316541865215
334,0.003910385574263174,0.7518720217835262
335,0.0039445374133397085,0.7518720217835262
336,0.0039445374133397085,0.7522123893805309
337,0.003978689252416243,0.7522123893805309
338,0.003978689252416243,0.7525527569775358
339,0.00399576517195451,0.7525527569775358
340,0.00399576517195451,0.7528931245745405
341,0.0040128410914927765,0.7528931245745405
342,0.0040128410914927765,0.7532334921715452
343,0.004029917011031044,0.7532334921715452
344,0.004029917011031044,0.7539142273655548
345,0.004064068850107579,0.7539142273655548
346,0.004064068850107579,0.7542545949625595
347,0.004098220689184112,0.7542545949625595
348,0.004098220689184112,0.7556160653505786
349,0.004132372528260647,0.7556160653505786
350,0.004132372528260647,0.7562968005445881
351,0.0042006762064137155,0.7562968005445881
352,0.0042006762064137155,0.7566371681415929
353,0.004217752125951982,0.7566371681415929
354,0.004217752125951982,0.7569775357385977
355,0.004251903965028517,0.7569775357385977
356,0.004251903965028517,0.7576582709326072
357,0.0042689798845667835,0.7576582709326072
358,0.0042689798845667835,0.7590197413206263
359,0.004303131723643318,0.7590197413206263
360,0.004303131723643318,0.7600408441116405
361,0.004320207643181586,0.7600408441116405
362,0.004320207643181586,0.7610619469026548
363,0.004371435401796387,0.7610619469026548
364,0.004371435401796387,0.7617426820966644
365,0.004405587240872921,0.7617426820966644
366,0.004405587240872921,0.762423417290674
367,0.004439739079949455,0.762423417290674
368,0.004439739079949455,0.7627637848876787
369,0.0045251186776407906,0.7627637848876787
370,0.0045251186776407906,0.7631041524846834
371,0.004610498275332126,0.7631041524846834
372,0.004610498275332126,0.7634445200816882
373,0.004644650114408661,0.7634445200816882
374,0.004644650114408661,0.7648059904697073
375,0.0047129537925617295,0.7648059904697073
376,0.0047129537925617295,0.765146358066712
377,0.004730029712099996,0.765146358066712
378,0.004730029712099996,0.7654867256637168
379,0.004798333390253065,0.7654867256637168
380,0.004798333390253065,0.7658270932607216
381,0.0048495611488678664,0.7658270932607216
382,0.0048495611488678664,0.7661674608577264
383,0.004883712987944401,0.7661674608577264
384,0.004883712987944401,0.768209666439755
385,0.004900788907482668,0.768209666439755
386,0.004900788907482668,0.7685500340367597
387,0.004917864827020935,0.7685500340367597
388,0.004917864827020935,0.7688904016337644
389,0.004934940746559202,0.7688904016337644
390,0.004934940746559202,0.7692307692307693
391,0.004986168505174003,0.7692307692307693
392,0.004986168505174003,0.769571136827774
393,0.005020320344250538,0.769571136827774
394,0.005020320344250538,0.7705922396187883
395,0.005054472183327072,0.7705922396187883
396,0.005054472183327072,0.770932607215793
397,0.005088624022403607,0.770932607215793
398,0.005088624022403607,0.7719537100068073
399,0.0051056999419418735,0.7719537100068073
400,0.0051056999419418735,0.7722940776038121
401,0.005122775861480141,0.7722940776038121
402,0.005122775861480141,0.7726344452008169
403,0.005139851781018408,0.7726344452008169
404,0.005139851781018408,0.7733151803948264
405,0.005191079539633209,0.7733151803948264
406,0.005191079539633209,0.7736555479918312
407,0.00524230729824801,0.7736555479918312
408,0.00524230729824801,0.7750170183798503
409,0.005259383217786278,0.7750170183798503
410,0.005259383217786278,0.775357385976855
411,0.005276459137324545,0.775357385976855
412,0.005276459137324545,0.7760381211708646
413,0.005310610976401079,0.7760381211708646
414,0.005310610976401079,0.776718856364874
415,0.005327686895939346,0.776718856364874
416,0.005327686895939346,0.7770592239618789
417,0.005378914654554148,0.7770592239618789
418,0.005378914654554148,0.7777399591558883
419,0.005413066493630682,0.7777399591558883
420,0.005413066493630682,0.7780803267528931
421,0.005430142413168949,0.7780803267528931
422,0.005430142413168949,0.7787610619469026
423,0.005447218332707216,0.7787610619469026
424,0.005447218332707216,0.7794417971409122
425,0.005464294252245484,0.7794417971409122
426,0.005464294252245484,0.7804628999319265
427,0.005515522010860285,0.7804628999319265
428,0.005515522010860285,0.7814840027229408
429,0.005532597930398552,0.7814840027229408
430,0.005532597930398552,0.7828454731109599
431,0.005583825689013353,0.7828454731109599
432,0.005583825689013353,0.7835262083049693
433,0.0056179775280898875,0.7835262083049693
434,0.0056179775280898875,0.7838665759019742
435,0.005652129367166422,0.7838665759019742
436,0.005652129367166422,0.7842069434989789
437,0.005669205286704689,0.7842069434989789
438,0.005669205286704689,0.7845473110959836
439,0.005686281206242956,0.7845473110959836
440,0.005686281206242956,0.7848876786929885
441,0.005703357125781223,0.7848876786929885
442,0.005703357125781223,0.7855684138869979
443,0.005754584884396024,0.7855684138869979
444,0.005754584884396024,0.7859087814840027
445,0.005771660803934292,0.7859087814840027
446,0.005771660803934292,0.7862491490810075
447,0.00583996448208736,0.7862491490810075
448,0.00583996448208736,0.7865895166780122
449,0.005908268160240429,0.7865895166780122
450,0.005908268160240429,0.786929884275017
451,0.005942419999316963,0.786929884275017
452,0.005942419999316963,0.7872702518720218
453,0.00595949591885523,0.7872702518720218
454,0.00595949591885523,0.7876106194690266
455,0.005976571838393498,0.7876106194690266
456,0.005976571838393498,0.7879509870660313
457,0.005993647757931765,0.7879509870660313
458,0.005993647757931765,0.7886317222600409
459,0.006027799597008299,0.7886317222600409
460,0.006027799597008299,0.7893124574540503
461,0.006044875516546566,0.7893124574540503
462,0.006044875516546566,0.7896528250510552
463,0.0060619514360848335,0.7896528250510552
464,0.0060619514360848335,0.7903335602450646
465,0.006096103275161367,0.7903335602450646
466,0.006096103275161367,0.7910142954390742
467,0.006164406953314436,0.7910142954390742
468,0.006164406953314436,0.7916950306330838
469,0.006181482872852703,0.7916950306330838
470,0.006181482872852703,0.7923757658270932
471,0.006215634711929237,0.7923757658270932
472,0.006215634711929237,0.7930565010211028
473,0.006266862470544038,0.7930565010211028
474,0.006266862470544038,0.7933968686181075
475,0.006283938390082306,0.7933968686181075
476,0.006283938390082306,0.7937372362151123
477,0.0063180902291588405,0.7937372362151123
478,0.0063180902291588405,0.7940776038121171
479,0.006335166148697107,0.7940776038121171
480,0.006335166148697107,0.7947583390061266
481,0.0063863939073119085,0.7947583390061266
482,0.0063863939073119085,0.7954390742001362
483,0.00643762166592671,0.7954390742001362
484,0.00643762166592671,0.7957794417971409
485,0.006471773505003244,0.7957794417971409
486,0.006471773505003244,0.7968005445881552
487,0.006488849424541512,0.7968005445881552
488,0.006488849424541512,0.7974812797821648
489,0.006523001263618045,0.7974812797821648
490,0.006523001263618045,0.7985023825731791
491,0.006540077183156313,0.7985023825731791
492,0.006540077183156313,0.7988427501701838
493,0.00679621597623032,0.7988427501701838
494,0.00679621597623032,0.7995234853641934
495,0.0068303678153068545,0.7995234853641934
496,0.0068303678153068545,0.8002042205582028
497,0.006864519654383389,0.8002042205582028
498,0.006864519654383389,0.8005445881552076
499,0.0068986714934599225,0.8005445881552076
500,0.0068986714934599225,0.8008849557522124
501,0.006949899252074725,0.8008849557522124
502,0.006949899252074725,0.8012253233492171
503,0.006984051091151258,0.8012253233492171
504,0.006984051091151258,0.802927161334241
505,0.007018202930227793,0.802927161334241
506,0.007018202930227793,0.8032675289312458
507,0.007069430688842594,0.8032675289312458
508,0.007069430688842594,0.8036078965282505
509,0.007206038045148732,0.8036078965282505
510,0.007206038045148732,0.8042886317222601
511,0.0072231139646869984,0.8042886317222601
512,0.0072231139646869984,0.8049693669162695
513,0.0072743417233018,0.8049693669162695
514,0.0072743417233018,0.8053097345132744
515,0.0073426454014548686,0.8053097345132744
516,0.0073426454014548686,0.8056501021102791
517,0.00739387316006967,0.8056501021102791
518,0.00739387316006967,0.8059904697072838
519,0.007428024999146204,0.8059904697072838
520,0.007428024999146204,0.8070115724982981
521,0.0074792527577610055,0.8070115724982981
522,0.0074792527577610055,0.8076923076923077
523,0.007564632355452341,0.8076923076923077
524,0.007564632355452341,0.8083730428863172
525,0.007598784194528876,0.8083730428863172
526,0.007598784194528876,0.808713410483322
527,0.00763293603360541,0.808713410483322
528,0.00763293603360541,0.8090537780803267
529,0.007684163792220211,0.8090537780803267
530,0.007684163792220211,0.8093941456773315
531,0.007786619309449814,0.8093941456773315
532,0.007786619309449814,0.810074880871341
533,0.00792322666575595,0.810074880871341
534,0.00792322666575595,0.8107556160653506
535,0.008008606263447286,0.8107556160653506
536,0.008008606263447286,0.8110959836623554
537,0.008042758102523822,0.8110959836623554
538,0.008042758102523822,0.8114363512593601
539,0.008093985861138622,0.8114363512593601
540,0.008093985861138622,0.8124574540503744
541,0.008145213619753424,0.8124574540503744
542,0.008145213619753424,0.813138189244384
543,0.00816228953929169,0.813138189244384
544,0.00816228953929169,0.8141592920353983
545,0.008179365458829958,0.8141592920353983
546,0.008179365458829958,0.8148400272294077
547,0.008196441378368224,0.8148400272294077
548,0.008196441378368224,0.8151803948264126
549,0.00823059321744476,0.8151803948264126
550,0.00823059321744476,0.8155207624234173
551,0.00828182097605956,0.8155207624234173
552,0.00828182097605956,0.815861130020422
553,0.008350124654212629,0.815861130020422
554,0.008350124654212629,0.8162014976174268
555,0.008401352412827431,0.8162014976174268
556,0.008401352412827431,0.8165418652144316
557,0.008486732010518767,0.8165418652144316
558,0.008486732010518767,0.8168822328114363
559,0.008537959769133567,0.8168822328114363
560,0.008537959769133567,0.8172226004084411
561,0.008555035688671836,0.8172226004084411
562,0.008555035688671836,0.8175629680054459
563,0.008708718964516238,0.8175629680054459
564,0.008708718964516238,0.8179033356024507
565,0.00875994672313104,0.8179033356024507
566,0.00875994672313104,0.8182437031994554
567,0.008777022642669307,0.8182437031994554
568,0.008777022642669307,0.8185840707964602
569,0.008845326320822376,0.8185840707964602
570,0.008845326320822376,0.818924438393465
571,0.008896554079437178,0.818924438393465
572,0.008896554079437178,0.8196051735874744
573,0.008913629998975445,0.8196051735874744
574,0.008913629998975445,0.820285908781484
575,0.008947781838051979,0.820285908781484
576,0.008947781838051979,0.8206262763784887
577,0.008964857757590245,0.8206262763784887
578,0.008964857757590245,0.8209666439754936
579,0.009101465113896383,0.8209666439754936
580,0.009101465113896383,0.8213070115724983
581,0.009135616952972917,0.8213070115724983
582,0.009135616952972917,0.8219877467665079
583,0.009169768792049452,0.8219877467665079
584,0.009169768792049452,0.8223281143635126
585,0.009203920631125986,0.8223281143635126
586,0.009203920631125986,0.8226684819605173
587,0.009255148389740788,0.8226684819605173
588,0.009255148389740788,0.8233492171545269
589,0.009306376148355588,0.8233492171545269
590,0.009306376148355588,0.8236895847515316
591,0.009323452067893857,0.8236895847515316
592,0.009323452067893857,0.8240299523485364
593,0.009340527987432123,0.8240299523485364
594,0.009340527987432123,0.8243703199455412
595,0.00947713534373826,0.8243703199455412
596,0.00947713534373826,0.8250510551395507
597,0.009545439021891328,0.8250510551395507
598,0.009545439021891328,0.8253914227365555
599,0.009562514941429595,0.8253914227365555
600,0.009562514941429595,0.8270932607215793
601,0.00964789453912093,0.8270932607215793
602,0.00964789453912093,0.8277739959155889
603,0.0096649704586592,0.8277739959155889
604,0.0096649704586592,0.8284547311095983
605,0.009682046378197466,0.8284547311095983
606,0.009682046378197466,0.8287950987066032
607,0.009699122297735733,0.8287950987066032
608,0.009699122297735733,0.8294758339006126
609,0.009801577814965335,0.8294758339006126
610,0.009801577814965335,0.8298162014976175
611,0.009869881493118404,0.8298162014976175
612,0.009869881493118404,0.8301565690946222
613,0.009886957412656671,0.8301565690946222
614,0.009886957412656671,0.8304969366916269
615,0.009921109251733206,0.8304969366916269
616,0.009921109251733206,0.8308373042886317
617,0.010091868447115878,0.8308373042886317
618,0.010091868447115878,0.8311776718856365
619,0.01019432396434548,0.8311776718856365
620,0.01019432396434548,0.831858407079646
621,0.010262627642498549,0.831858407079646
622,0.010262627642498549,0.8321987746766508
623,0.010399234998804685,0.8321987746766508
624,0.010399234998804685,0.8328795098706603
625,0.010416310918342954,0.8328795098706603
626,0.010416310918342954,0.8332198774676651
627,0.01043338683788122,0.8332198774676651
628,0.01043338683788122,0.8335602450646699
629,0.010518766435572556,0.8335602450646699
630,0.010518766435572556,0.8339006126616746
631,0.010535842355110823,0.8339006126616746
632,0.010535842355110823,0.8342409802586793
633,0.010569994194187356,0.8342409802586793
634,0.010569994194187356,0.8345813478556842
635,0.010587070113725625,0.8345813478556842
636,0.010587070113725625,0.8349217154526889
637,0.01079198114818483,0.8349217154526889
638,0.01079198114818483,0.8356024506466985
639,0.010860284826337899,0.8356024506466985
640,0.010860284826337899,0.8359428182437032
641,0.010894436665414432,0.8359428182437032
642,0.010894436665414432,0.8362831858407079
643,0.010911512584952699,0.8362831858407079
644,0.010911512584952699,0.8366235534377128
645,0.01108227178033537,0.8366235534377128
646,0.01108227178033537,0.8379850238257318
647,0.011116423619411906,0.8379850238257318
648,0.011116423619411906,0.8383253914227365
649,0.011167651378026706,0.8383253914227365
650,0.011167651378026706,0.8386657590197413
651,0.011201803217103241,0.8386657590197413
652,0.011201803217103241,0.8393464942137508
653,0.011235955056179775,0.8393464942137508
654,0.011235955056179775,0.8396868618107556
655,0.011355486492947646,0.8396868618107556
656,0.011355486492947646,0.8403675970047652
657,0.011440866090638982,0.8403675970047652
658,0.011440866090638982,0.8410483321987747
659,0.011457942010177248,0.8410483321987747
660,0.011457942010177248,0.8417290673927842
661,0.011492093849253782,0.8417290673927842
662,0.011492093849253782,0.8420694349897889
663,0.011509169768792049,0.8420694349897889
664,0.011509169768792049,0.8424098025867938
665,0.011543321607868584,0.8424098025867938
666,0.011543321607868584,0.8427501701837985
667,0.01167992896417472,0.8427501701837985
668,0.01167992896417472,0.8434309053778081
669,0.011697004883712989,0.8434309053778081
670,0.011697004883712989,0.8444520081688224
671,0.011748232642327789,0.8444520081688224
672,0.011748232642327789,0.8451327433628318
673,0.011765308561866056,0.8451327433628318
674,0.011765308561866056,0.8454731109598366
675,0.011833612240019125,0.8454731109598366
676,0.011833612240019125,0.8461538461538461
677,0.011850688159557391,0.8461538461538461
678,0.011850688159557391,0.8464942137508509
679,0.011936067757248727,0.8464942137508509
680,0.011936067757248727,0.8481960517358748
681,0.011970219596325262,0.8481960517358748
682,0.011970219596325262,0.8485364193328795
683,0.012123902872169667,0.8485364193328795
684,0.012123902872169667,0.8502382573179034
685,0.012140978791707934,0.8502382573179034
686,0.012140978791707934,0.8505786249149081
687,0.012175130630784467,0.8505786249149081
688,0.012175130630784467,0.8509189925119128
689,0.01222635838939927,0.8509189925119128
690,0.01222635838939927,0.8512593601089177
691,0.012243434308937536,0.8512593601089177
692,0.012243434308937536,0.8519400953029271
693,0.012414193504320208,0.8519400953029271
694,0.012414193504320208,0.852280462899932
695,0.012482497182473276,0.852280462899932
696,0.012482497182473276,0.8526208304969367
697,0.012499573102011543,0.8526208304969367
698,0.012499573102011543,0.8529611980939414
699,0.01251664902154981,0.8529611980939414
700,0.01251664902154981,0.853641933287951
701,0.012550800860626345,0.853641933287951
702,0.012550800860626345,0.8539823008849557
703,0.012619104538779412,0.8539823008849557
704,0.012619104538779412,0.8543226684819605
705,0.012670332297394215,0.8543226684819605
706,0.012670332297394215,0.85500340367597
707,0.012738635975547283,0.85500340367597
708,0.012738635975547283,0.8553437712729748
709,0.012772787814623817,0.8553437712729748
710,0.012772787814623817,0.8556841388699796
711,0.012806939653700352,0.8556841388699796
712,0.012806939653700352,0.8563648740639891
713,0.012977698849083024,0.8563648740639891
714,0.012977698849083024,0.8567052416609938
715,0.013028926607697824,0.8567052416609938
716,0.013028926607697824,0.8570456092579987
717,0.01304600252723609,0.8570456092579987
718,0.01304600252723609,0.8577263444520081
719,0.013131382124927427,0.8577263444520081
720,0.013131382124927427,0.858066712049013
721,0.013148458044465695,0.858066712049013
722,0.013148458044465695,0.8584070796460177
723,0.013182609883542229,0.8584070796460177
724,0.013182609883542229,0.8587474472430224
725,0.013302141320310098,0.8587474472430224
726,0.013302141320310098,0.8590878148400273
727,0.013438748676616236,0.8590878148400273
728,0.013438748676616236,0.859428182437032
729,0.01347290051569277,0.859428182437032
730,0.01347290051569277,0.8601089176310415
731,0.013626583791537174,0.8601089176310415
732,0.013626583791537174,0.8604492852280463
733,0.013677811550151976,0.8604492852280463
734,0.013677811550151976,0.860789652825051
735,0.013848570745534647,0.860789652825051
736,0.013848570745534647,0.8611300204220558
737,0.013916874423687716,0.8611300204220558
738,0.013916874423687716,0.8614703880190606
739,0.014104709538608654,0.8614703880190606
740,0.014104709538608654,0.8621511232130701
741,0.014173013216761723,0.8621511232130701
742,0.014173013216761723,0.8624914908100749
743,0.01419008913629999,0.8624914908100749
744,0.01419008913629999,0.8631722260040844
745,0.014258392814453059,0.8631722260040844
746,0.014258392814453059,0.863852961198094
747,0.014804822239677606,0.863852961198094
748,0.014804822239677606,0.8641933287950987
749,0.014838974078754142,0.8641933287950987
750,0.014838974078754142,0.8645336963921034
751,0.014873125917830675,0.8645336963921034
752,0.014873125917830675,0.8655547991831177
753,0.014907277756907209,0.8655547991831177
754,0.014907277756907209,0.8658951667801226
755,0.014924353676445477,0.8658951667801226
756,0.014924353676445477,0.8662355343771273
757,0.014941429595983744,0.8662355343771273
758,0.014941429595983744,0.866575901974132
759,0.014958505515522011,0.866575901974132
760,0.014958505515522011,0.8669162695711369
761,0.014975581435060278,0.8669162695711369
762,0.014975581435060278,0.8672566371681416
763,0.01502680919367508,0.8672566371681416
764,0.01502680919367508,0.8675970047651463
765,0.015095112871828149,0.8675970047651463
766,0.015095112871828149,0.8679373723621511
767,0.015231720228134285,0.8679373723621511
768,0.015231720228134285,0.8682777399591559
769,0.01526587206721082,0.8682777399591559
770,0.01526587206721082,0.8689584751531654
771,0.015351251664902156,0.8689584751531654
772,0.015351251664902156,0.869639210347175
773,0.015368327584440422,0.869639210347175
774,0.015368327584440422,0.8699795779441797
775,0.015436631262593491,0.8699795779441797
776,0.015436631262593491,0.8703199455411845
777,0.015504934940746559,0.8703199455411845
778,0.015504934940746559,0.8706603131381893
779,0.01555616269936136,0.8706603131381893
780,0.01555616269936136,0.8713410483321987
781,0.015880605170588435,0.8713410483321987
782,0.015880605170588435,0.8716814159292036
783,0.01598306068781804,0.8716814159292036
784,0.01598306068781804,0.8720217835262083
785,0.01610259212458591,0.8720217835262083
786,0.01610259212458591,0.872362151123213
787,0.016222123561353777,0.872362151123213
788,0.016222123561353777,0.8727025187202179
789,0.016239199480892048,0.8727025187202179
790,0.016239199480892048,0.8730428863172226
791,0.016307503159045115,0.8730428863172226
792,0.016307503159045115,0.8733832539142273
793,0.016427034595812986,0.8733832539142273
794,0.016427034595812986,0.8737236215112322
795,0.016495338273966053,0.8737236215112322
796,0.016495338273966053,0.8750850918992512
797,0.016529490113042587,0.8750850918992512
798,0.016529490113042587,0.8754254594962559
799,0.016597793791195657,0.8754254594962559
800,0.016597793791195657,0.8761061946902655
801,0.016614869710733924,0.8761061946902655
802,0.016614869710733924,0.8764465622872702
803,0.016717325227963525,0.8764465622872702
804,0.016717325227963525,0.876786929884275
805,0.016785628906116595,0.876786929884275
806,0.016785628906116595,0.8771272974812798
807,0.0170417676991906,0.8771272974812798
808,0.0170417676991906,0.8774676650782846
809,0.017092995457805404,0.8774676650782846
810,0.017092995457805404,0.8778080326752893
811,0.017195450975035005,0.8778080326752893
812,0.017195450975035005,0.8781484002722941
813,0.017280830572726343,0.8781484002722941
814,0.017280830572726343,0.8784887678692989
815,0.017314982411802876,0.8784887678692989
816,0.017314982411802876,0.8791695030633083
817,0.01734913425087941,0.8791695030633083
818,0.01734913425087941,0.8795098706603132
819,0.017451589768109014,0.8795098706603132
820,0.017451589768109014,0.8801906058543226
821,0.017554045285338615,0.8801906058543226
822,0.017554045285338615,0.8805309734513275
823,0.01757112120487688,0.8805309734513275
824,0.01757112120487688,0.8808713410483322
825,0.01760527304395342,0.8808713410483322
826,0.01760527304395342,0.8818924438393465
827,0.017690652641644752,0.8818924438393465
828,0.017690652641644752,0.8822328114363512
829,0.017741880400259553,0.8822328114363512
830,0.017741880400259553,0.882573179033356
831,0.017844335917489157,0.882573179033356
832,0.017844335917489157,0.8832539142273655
833,0.01792971551518049,0.8832539142273655
834,0.01792971551518049,0.8835942818243703
835,0.01799801919333356,0.8835942818243703
836,0.01799801919333356,0.8839346494213751
837,0.018049246951948362,0.8839346494213751
838,0.018049246951948362,0.8846153846153846
839,0.018083398791024895,0.8846153846153846
840,0.018083398791024895,0.8849557522123894
841,0.0182370820668693,0.8849557522123894
842,0.0182370820668693,0.8852961198093942
843,0.018561524538096376,0.8852961198093942
844,0.018561524538096376,0.8856364874063989
845,0.018612752296711176,0.8856364874063989
846,0.018612752296711176,0.8863172226004085
847,0.01866398005532598,0.8863172226004085
848,0.01866398005532598,0.8866575901974132
849,0.01871520781394078,0.8866575901974132
850,0.01871520781394078,0.8869979577944179
851,0.01883473925070865,0.8869979577944179
852,0.01883473925070865,0.8873383253914228
853,0.018851815170246918,0.8873383253914228
854,0.018851815170246918,0.8876786929884275
855,0.018868891089785185,0.8876786929884275
856,0.018868891089785185,0.8880190605854322
857,0.01914210580239746,0.8880190605854322
858,0.01914210580239746,0.8883594281824371
859,0.019347016836856665,0.8883594281824371
860,0.019347016836856665,0.8886997957794418
861,0.019415320515009733,0.8886997957794418
862,0.019415320515009733,0.8890401633764465
863,0.019483624193162803,0.8890401633764465
864,0.019483624193162803,0.8893805309734514
865,0.019517776032239337,0.8893805309734514
866,0.019517776032239337,0.8900612661674608
867,0.01960315562993067,0.8900612661674608
868,0.01960315562993067,0.8904016337644656
869,0.019876370342542946,0.8904016337644656
870,0.019876370342542946,0.8907420013614704
871,0.01991052218161948,0.8907420013614704
872,0.01991052218161948,0.8910823689584751
873,0.019944674020696013,0.8910823689584751
874,0.019944674020696013,0.8914227365554799
875,0.019995901779310817,0.8914227365554799
876,0.019995901779310817,0.8917631041524847
877,0.02013250913561695,0.8917631041524847
878,0.02013250913561695,0.8921034717494895
879,0.020200812813770022,0.8921034717494895
880,0.020200812813770022,0.8924438393464942
881,0.02021788873330829,0.8924438393464942
882,0.02021788873330829,0.892784206943499
883,0.020303268330999623,0.892784206943499
884,0.020303268330999623,0.8931245745405038
885,0.02033742017007616,0.8931245745405038
886,0.02033742017007616,0.8934649421375085
887,0.020371572009152693,0.8934649421375085
888,0.020371572009152693,0.8938053097345132
889,0.02043987568730576,0.8938053097345132
890,0.02043987568730576,0.8941456773315181
891,0.020491103445920564,0.8941456773315181
892,0.020491103445920564,0.8944860449285228
893,0.020593558963150165,0.8944860449285228
894,0.020593558963150165,0.8951667801225324
895,0.020661862641303236,0.8951667801225324
896,0.020661862641303236,0.8955071477195371
897,0.020730166319456303,0.8955071477195371
898,0.020730166319456303,0.8958475153165418
899,0.020832621836685907,0.8958475153165418
900,0.020832621836685907,0.8961878829135467
901,0.020986305112530308,0.8961878829135467
902,0.020986305112530308,0.8965282505105514
903,0.021020456951606845,0.8965282505105514
904,0.021020456951606845,0.897208985704561
905,0.021037532871145112,0.897208985704561
906,0.021037532871145112,0.8975493533015657
907,0.02115706430791298,0.8975493533015657
908,0.02115706430791298,0.8978897208985704
909,0.02122536798606605,0.8978897208985704
910,0.02122536798606605,0.8982300884955752
911,0.021430279020525255,0.8982300884955752
912,0.021430279020525255,0.8989108236895847
913,0.021447354940063522,0.8989108236895847
914,0.021447354940063522,0.8992511912865895
915,0.021498582698678322,0.8992511912865895
916,0.021498582698678322,0.8995915588835943
917,0.021601038215907926,0.8995915588835943
918,0.021601038215907926,0.9002722940776038
919,0.021720569652675797,0.9002722940776038
920,0.021720569652675797,0.9006126616746086
921,0.021737645572214064,0.9006126616746086
922,0.021737645572214064,0.9009530292716134
923,0.02175472149175233,0.9009530292716134
924,0.02175472149175233,0.9012933968686181
925,0.02189132884805847,0.9012933968686181
926,0.02189132884805847,0.9016337644656228
927,0.022010860284826336,0.9016337644656228
928,0.022010860284826336,0.9019741320626277
929,0.022045012123902873,0.9019741320626277
930,0.022045012123902873,0.9023144996596324
931,0.02206208804344114,0.9023144996596324
932,0.02206208804344114,0.9026548672566371
933,0.022096239882517674,0.9026548672566371
934,0.022096239882517674,0.902995234853642
935,0.022198695399747278,0.902995234853642
936,0.022198695399747278,0.9033356024506467
937,0.02230115091697688,0.9033356024506467
938,0.02230115091697688,0.9036759700476514
939,0.022437758273283016,0.9036759700476514
940,0.022437758273283016,0.9040163376446563
941,0.02252313787097435,0.9040163376446563
942,0.02252313787097435,0.904356705241661
943,0.022847580342201426,0.904356705241661
944,0.022847580342201426,0.9046970728386657
945,0.022864656261739693,0.9046970728386657
946,0.022864656261739693,0.9050374404356705
947,0.023103719135275435,0.9050374404356705
948,0.023103719135275435,0.9053778080326753
949,0.023223250572043306,0.9053778080326753
950,0.023223250572043306,0.90571817562968
951,0.023274478330658106,0.90571817562968
952,0.023274478330658106,0.9060585432266848
953,0.023291554250196373,0.9060585432266848
954,0.023291554250196373,0.9063989108236896
955,0.023325706089272907,0.9063989108236896
956,0.023325706089272907,0.9070796460176991
957,0.023411085686964244,0.9070796460176991
958,0.023411085686964244,0.9077603812117087
959,0.023445237526040778,0.9077603812117087
960,0.023445237526040778,0.9081007488087134
961,0.023462313445579044,0.9081007488087134
962,0.023462313445579044,0.9084411164057182
963,0.023769679997267854,0.9084411164057182
964,0.023769679997267854,0.908781484002723
965,0.023855059594959187,0.908781484002723
966,0.023855059594959187,0.9091218515997277
967,0.023889211434035725,0.9091218515997277
968,0.023889211434035725,0.9098025867937373
969,0.023940439192650525,0.9098025867937373
970,0.023940439192650525,0.910142954390742
971,0.023991666951265325,0.910142954390742
972,0.023991666951265325,0.9104833219877467
973,0.024128274307571463,0.9104833219877467
974,0.024128274307571463,0.9108236895847516
975,0.024179502066186263,0.9108236895847516
976,0.024179502066186263,0.9111640571817563
977,0.024333185342030668,0.9111640571817563
978,0.024333185342030668,0.911504424778761
979,0.024418564939722005,0.911504424778761
980,0.024418564939722005,0.9118447923757659
981,0.02455517229602814,0.9118447923757659
982,0.02455517229602814,0.9121851599727706
983,0.024845462928178682,0.9121851599727706
984,0.024845462928178682,0.9125255275697753
985,0.024896690686793482,0.9125255275697753
986,0.024896690686793482,0.9128658951667801
987,0.02498207028448482,0.9128658951667801
988,0.02498207028448482,0.9132062627637849
989,0.02503329804309962,0.9132062627637849
990,0.02503329804309962,0.9135466303607896
991,0.02587001810047471,0.9135466303607896
992,0.02587001810047471,0.9138869979577944
993,0.026160308732625252,0.9138869979577944
994,0.026160308732625252,0.9142273655547992
995,0.02617738465216352,0.9142273655547992
996,0.02617738465216352,0.914567733151804
997,0.026245688330316586,0.914567733151804
998,0.026245688330316586,0.9149081007488087
999,0.026518903042928862,0.9149081007488087
1000,0.026553054882005395,0.9149081007488087
1001,0.02658720672108193,0.9149081007488087
1002,0.02658720672108193,0.9155888359428183
1003,0.026672586318773266,0.9155888359428183
1004,0.026672586318773266,0.915929203539823
1005,0.0267579659164646,0.915929203539823
1006,0.0267579659164646,0.9166099387338326
1007,0.026775041836002867,0.9166099387338326
1008,0.026775041836002867,0.9169503063308373
1009,0.026809193675079404,0.9169503063308373
1010,0.026809193675079404,0.917290673927842
1011,0.026843345514155938,0.917290673927842
1012,0.026843345514155938,0.9176310415248469
1013,0.02696287695092381,0.9176310415248469
1014,0.02696287695092381,0.9179714091218516
1015,0.02701410470953861,0.9179714091218516
1016,0.02701410470953861,0.9183117767188563
1017,0.027031180629076876,0.9183117767188563
1018,0.027031180629076876,0.9189925119128659
1019,0.02723609166353608,0.9189925119128659
1020,0.02723609166353608,0.9193328795098706
1021,0.027406850858918752,0.9193328795098706
1022,0.027406850858918752,0.9196732471068755
1023,0.027560534134763157,0.9196732471068755
1024,0.027560534134763157,0.9200136147038802
1025,0.027697141491069294,0.9200136147038802
1026,0.027697141491069294,0.9203539823008849
1027,0.027748369249684095,0.9203539823008849
1028,0.027748369249684095,0.9210347174948945
1029,0.028397254192138247,0.9210347174948945
1030,0.028397254192138247,0.9213750850918992
1031,0.028414330111676513,0.9213750850918992
1032,0.028414330111676513,0.921715452688904
1033,0.02860216522659745,0.921715452688904
1034,0.02860216522659745,0.9220558202859088
1035,0.028721696663365322,0.9220558202859088
1036,0.028721696663365322,0.9223961878829136
1037,0.02873877258290359,0.9223961878829136
1038,0.02873877258290359,0.9227365554799183
1039,0.028807076261056656,0.9227365554799183
1040,0.028807076261056656,0.9230769230769231
1041,0.028841228100133193,0.9230769230769231
1042,0.028841228100133193,0.9234172906739279
1043,0.028943683617362794,0.9234172906739279
1044,0.028943683617362794,0.9237576582709326
1045,0.02916567057136027,0.9237576582709326
1046,0.02916567057136027,0.9240980258679373
1047,0.02957549264027868,0.9240980258679373
1048,0.02957549264027868,0.9244383934649422
1049,0.029677948157508283,0.9244383934649422
1050,0.029677948157508283,0.9247787610619469
1051,0.029831631433352684,0.9247787610619469
1052,0.029831631433352684,0.9251191286589516
1053,0.02993408695058229,0.9251191286589516
1054,0.02993408695058229,0.9254594962559565
1055,0.030036542467811893,0.9254594962559565
1056,0.030036542467811893,0.9257998638529612
1057,0.03005361838735016,0.9257998638529612
1058,0.03005361838735016,0.9261402314499659
1059,0.030087770226426693,0.9261402314499659
1060,0.030087770226426693,0.9264805990469708
1061,0.030138997985041494,0.9264805990469708
1062,0.030138997985041494,0.9268209666439755
1063,0.03036098493903897,0.9268209666439755
1064,0.03036098493903897,0.9271613342409802
1065,0.030600047812574707,0.9271613342409802
1066,0.030600047812574707,0.927501701837985
1067,0.030856186605648712,0.927501701837985
1068,0.030856186605648712,0.9278420694349898
1069,0.030924490283801783,0.9278420694349898
1070,0.030924490283801783,0.9281824370319945
1071,0.03099279396195485,0.9281824370319945
1072,0.03099279396195485,0.9288631722260041
1073,0.03111232539872272,0.9288631722260041
1074,0.03111232539872272,0.9292035398230089
1075,0.03119770499641406,0.9292035398230089
1076,0.03119770499641406,0.9295439074200136
1077,0.03147091970902633,0.9295439074200136
1078,0.03147091970902633,0.9298842750170184
1079,0.03229056384686315,0.9298842750170184
1080,0.03229056384686315,0.9302246426140232
1081,0.03271746183531983,0.9302246426140232
1082,0.03271746183531983,0.9305650102110279
1083,0.03316143574331478,0.9305650102110279
1084,0.03316143574331478,0.9309053778080327
1085,0.033280967180082645,0.9309053778080327
1086,0.033280967180082645,0.9315861130020422
1087,0.033298043099620915,0.9315861130020422
1088,0.033298043099620915,0.9319264805990469
1089,0.03363956149038626,0.9319264805990469
1090,0.03363956149038626,0.9322668481960518
1091,0.03394692804207507,0.9322668481960518
1092,0.03394692804207507,0.9329475833900612
1093,0.034032307639766404,0.9329475833900612
1094,0.034032307639766404,0.9332879509870661
1095,0.034254294593763876,0.9332879509870661
1096,0.034254294593763876,0.9336283185840708
1097,0.03430552235237867,0.9336283185840708
1098,0.03430552235237867,0.9339686861810755
1099,0.03439090195007001,0.9339686861810755
1100,0.03439090195007001,0.9343090537780804
1101,0.03451043338683788,0.9343090537780804
1102,0.03451043338683788,0.9346494213750851
1103,0.03452750930637615,0.9346494213750851
1104,0.03452750930637615,0.9349897889720898
1105,0.03457873706499095,0.9349897889720898
1106,0.03457873706499095,0.9353301565690946
1107,0.03478364809945016,0.9353301565690946
1108,0.03478364809945016,0.9356705241660994
1109,0.0353300775246747,0.9356705241660994
1110,0.0353300775246747,0.9360108917631041
1111,0.03546668488098084,0.9360108917631041
1112,0.03546668488098084,0.9363512593601089
1113,0.03584235511082272,0.9363512593601089
1114,0.03584235511082272,0.9370319945541185
1115,0.03585943103036098,0.9370319945541185
1116,0.03585943103036098,0.9373723621511232
1117,0.03587650694989925,0.9373723621511232
1118,0.03587650694989925,0.937712729748128
1119,0.03606434206482019,0.937712729748128
1120,0.03606434206482019,0.9380530973451328
1121,0.03608141798435846,0.9380530973451328
1122,0.03608141798435846,0.9383934649421375
1123,0.03616679758204979,0.9383934649421375
1124,0.03616679758204979,0.9387338325391422
1125,0.03628632901881766,0.9387338325391422
1126,0.03628632901881766,0.9390742001361471
1127,0.036371708616509,0.9390742001361471
1128,0.036371708616509,0.9394145677331518
1129,0.036525391892353404,0.9394145677331518
1130,0.036525391892353404,0.9397549353301565
1131,0.03802807281172091,0.9397549353301565
1132,0.03802807281172091,0.9400953029271614
1133,0.03804514873125918,0.9400953029271614
1134,0.03804514873125918,0.9404356705241661
1135,0.03833543936340972,0.9404356705241661
1136,0.03833543936340972,0.9407760381211708
1137,0.03848912263925412,0.9407760381211708
1138,0.03848912263925412,0.9411164057181757
1139,0.0390184761449404,0.9411164057181757
1140,0.0390184761449404,0.9414567733151804
1141,0.03905262798401694,0.9414567733151804
1142,0.03905262798401694,0.9417971409121851
1143,0.039274614938014415,0.9417971409121851
1144,0.039274614938014415,0.94213750850919
1145,0.039377070455244016,0.94213750850919
1146,0.039377070455244016,0.9424778761061947
1147,0.03942829821385881,0.9424778761061947
1148,0.03942829821385881,0.9428182437031994
1149,0.03988934804139203,0.9428182437031994
1150,0.03988934804139203,0.9431586113002042
1151,0.039991803558621634,0.9431586113002042
1152,0.039991803558621634,0.943498978897209
1153,0.04031624602984871,0.943498978897209
1154,0.04031624602984871,0.9438393464942137
1155,0.04065776442061405,0.9438393464942137
1156,0.04065776442061405,0.9441797140912185
1157,0.040913903213688055,0.9441797140912185
1158,0.040913903213688055,0.9445200816882233
1159,0.04117004200676207,0.9445200816882233
1160,0.04117004200676207,0.944860449285228
1161,0.04139202896075954,0.944860449285228
1162,0.04139202896075954,0.9452008168822328
1163,0.041648167753833544,0.9452008168822328
1164,0.041648167753833544,0.9455411844792376
1165,0.041972610225060616,0.9455411844792376
1166,0.041972610225060616,0.9458815520762424
1167,0.04279225436289744,0.9458815520762424
1168,0.04279225436289744,0.9465622872702518
1169,0.04292886171920358,0.9465622872702518
1170,0.04292886171920358,0.9469026548672567
1171,0.04308254499504798,0.9469026548672567
1172,0.04308254499504798,0.9472430224642614
1173,0.04327038010996892,0.9472430224642614
1174,0.04327038010996892,0.9475833900612661
1175,0.04338991154673679,0.9475833900612661
1176,0.04338991154673679,0.947923757658271
1177,0.04409002424780575,0.947923757658271
1178,0.04409002424780575,0.9482641252552757
1179,0.04410710016734401,0.9482641252552757
1180,0.04410710016734401,0.9486044928522804
1181,0.04419247976503535,0.9486044928522804
1182,0.04419247976503535,0.9489448604492853
1183,0.044568149994877224,0.9489448604492853
1184,0.044568149994877224,0.94928522804629
1185,0.04465352959256856,0.94928522804629
1186,0.04465352959256856,0.9496255956432947
1187,0.044790136948874695,0.9496255956432947
1188,0.044790136948874695,0.9499659632402995
1189,0.04538779413271404,0.9499659632402995
1190,0.04538779413271404,0.9503063308373043
1191,0.045404870052252314,0.9503063308373043
1192,0.045404870052252314,0.950646698434309
1193,0.04591714763840033,0.950646698434309
1194,0.04591714763840033,0.9509870660313138
1195,0.04601960315562993,0.9509870660313138
1196,0.04601960315562993,0.9513274336283186
1197,0.04610498275332127,0.9513274336283186
1198,0.04610498275332127,0.9516678012253234
1199,0.0461391345923978,0.9516678012253234
1200,0.0461391345923978,0.9520081688223281
1201,0.04642942522454834,0.9520081688223281
1202,0.04642942522454834,0.9523485364193329
1203,0.046668488098084084,0.9523485364193329
1204,0.046668488098084084,0.9526889040163377
1205,0.04680509545439022,0.9526889040163377
1206,0.04680509545439022,0.9530292716133424
1207,0.04704415832792596,0.9530292716133424
1208,0.04704415832792596,0.953710006807352
1209,0.04811994125883679,0.953710006807352
1210,0.04811994125883679,0.9540503744043567
1211,0.04861514292544653,0.9540503744043567
1212,0.04861514292544653,0.9543907420013614
1213,0.04917864827020935,0.9543907420013614
1214,0.04917864827020935,0.9547311095983663
1215,0.049793381373586965,0.9547311095983663
1216,0.049793381373586965,0.955071477195371
1217,0.04999829240804617,0.955071477195371
1218,0.04999829240804617,0.9554118447923757
1219,0.05003244424712271,0.9554118447923757
1220,0.05003244424712271,0.9557522123893806
1221,0.05008367200573751,0.9557522123893806
1222,0.05008367200573751,0.95643294758339
1223,0.05039103855742632,0.95643294758339
1224,0.05039103855742632,0.9571136827773996
1225,0.05049349407465592,0.9571136827773996
1226,0.05049349407465592,0.9574540503744043
1227,0.05088624022403607,0.9574540503744043
1228,0.05088624022403607,0.9577944179714091
1229,0.051056999419418735,0.9577944179714091
1230,0.051056999419418735,0.9581347855684139
1231,0.05182541579864076,0.9581347855684139
1232,0.05182541579864076,0.9584751531654186
1233,0.0522693897066357,0.9584751531654186
1234,0.0522693897066357,0.9588155207624234
1235,0.053157337522625595,0.9588155207624234
1236,0.053157337522625595,0.9591558883594282
1237,0.05319148936170213,0.9591558883594282
1238,0.05319148936170213,0.959496255956433
1239,0.05320856528124039,0.959496255956433
1240,0.05320856528124039,0.9598366235534377
1241,0.05384037430415628,0.9598366235534377
1242,0.05384037430415628,0.9601769911504425
1243,0.05435265189030429,0.9601769911504425
1244,0.05435265189030429,0.9605173587474473
1245,0.05459171476384003,0.9605173587474473
1246,0.05459171476384003,0.960857726344452
1247,0.055035688671834976,0.960857726344452
1248,0.055035688671834976,0.9611980939414567
1249,0.05539428298213859,0.9611980939414567
1250,0.05539428298213859,0.9615384615384616
1251,0.05594071240736314,0.9615384615384616
1252,0.05594071240736314,0.9618788291354663
1253,0.05602609200505447,0.9618788291354663
1254,0.05602609200505447,0.962219196732471
1255,0.05686281206242956,0.962219196732471
1256,0.05686281206242956,0.9625595643294759
1257,0.05746046924626891,0.9625595643294759
1258,0.05746046924626891,0.9628999319264806
1259,0.05874116321163895,0.9628999319264806
1260,0.05874116321163895,0.9632402995234853
1261,0.05875823913117721,0.9632402995234853
1262,0.05875823913117721,0.9639210347174949
1263,0.05903145384378949,0.9639210347174949
1264,0.05903145384378949,0.9642614023144996
1265,0.060056009016085515,0.9642614023144996
1266,0.060056009016085515,0.9646017699115044
1267,0.06075612171715447,0.9646017699115044
1268,0.06075612171715447,0.9649421375085092
1269,0.06092688091253714,0.9649421375085092
1270,0.06092688091253714,0.9652825051055139
1271,0.06106348826884328,0.9652825051055139
1272,0.06106348826884328,0.9656228727025187
1273,0.06242956183190465,0.9656228727025187
1274,0.06242956183190465,0.9659632402995235
1275,0.06321505413066493,0.9659632402995235
1276,0.06321505413066493,0.9663036078965282
1277,0.06324920596974147,0.9663036078965282
1278,0.06324920596974147,0.966643975493533
1279,0.06341996516512415,0.966643975493533
1280,0.06341996516512415,0.9669843430905378
1281,0.06367610395819814,0.9669843430905378
1282,0.06367610395819814,0.9673247106875426
1283,0.06377855947542775,0.9673247106875426
1284,0.06377855947542775,0.9676650782845473
1285,0.0639663945903487,0.9676650782845473
1286,0.0639663945903487,0.9680054458815521
1287,0.0642225333834227,0.9680054458815521
1288,0.0642225333834227,0.9683458134785569
1289,0.06480311464772379,0.9683458134785569
1290,0.06480311464772379,0.9686861810755616
1291,0.06523001263618046,0.9686861810755616
1292,0.06523001263618046,0.9690265486725663
1293,0.0653153922338718,0.9690265486725663
1294,0.0653153922338718,0.9693669162695712
1295,0.06622041596939995,0.9693669162695712
1296,0.06622041596939995,0.9697072838665759
1297,0.06647655476247397,0.9697072838665759
1298,0.06647655476247397,0.9700476514635806
1299,0.06690345275093064,0.9700476514635806
1300,0.06690345275093064,0.9703880190605855
1301,0.06721081930261945,0.9703880190605855
1302,0.06721081930261945,0.9707283866575902
1303,0.06762064137153785,0.9707283866575902
1304,0.06762064137153785,0.9710687542545949
1305,0.06767186913015266,0.9710687542545949
1306,0.06767186913015266,0.9714091218515998
1307,0.0704552440148902,0.9714091218515998
1308,0.0704552440148902,0.9717494894486045
1309,0.07048939585396674,0.9717494894486045
1310,0.07048939585396674,0.9720898570456092
1311,0.07067723096888767,0.9720898570456092
1312,0.07067723096888767,0.972430224642614
1313,0.07226529148594651,0.972430224642614
1314,0.07226529148594651,0.9727705922396188
1315,0.07243605068132919,0.9727705922396188
1316,0.07243605068132919,0.9731109598366235
1317,0.07262388579625013,0.9731109598366235
1318,0.07262388579625013,0.9734513274336283
1319,0.07264096171578839,0.9734513274336283
1320,0.07264096171578839,0.9737916950306331
1321,0.07281172091117107,0.9737916950306331
1322,0.07281172091117107,0.9741320626276379
1323,0.0728458727502476,0.9741320626276379
1324,0.0728458727502476,0.9744724302246426
1325,0.07334107441685735,0.9744724302246426
1326,0.07334107441685735,0.9748127978216474
1327,0.07405826303746457,0.9748127978216474
1328,0.07405826303746457,0.9751531654186522
1329,0.07416071855469417,0.9751531654186522
1330,0.07416071855469417,0.9754935330156569
1331,0.07477545165807178,0.9754935330156569
1332,0.07477545165807178,0.9758339006126616
1333,0.07480960349714832,0.9758339006126616
1334,0.07480960349714832,0.9761742682096665
1335,0.07484375533622485,0.9761742682096665
1336,0.07484375533622485,0.9765146358066712
1337,0.07501451453160753,0.9765146358066712
1338,0.07501451453160753,0.9768550034036759
1339,0.075236501485605,0.9768550034036759
1340,0.075236501485605,0.9771953710006808
1341,0.07728561183019705,0.9771953710006808
1342,0.07728561183019705,0.9775357385976855
1343,0.08082032717461836,0.9775357385976855
1344,0.08082032717461836,0.9778761061946902
1345,0.08165704723199345,0.9778761061946902
1346,0.08165704723199345,0.9782164737916951
1347,0.08201564154229705,0.9782164737916951
1348,0.08201564154229705,0.9785568413886998
1349,0.08228885625490932,0.9785568413886998
1350,0.08228885625490932,0.9788972089857045
1351,0.08503807930057034,0.9788972089857045
1352,0.08503807930057034,0.9792375765827094
1353,0.08606263447286637,0.9792375765827094
1354,0.08606263447286637,0.9795779441797141
1355,0.08797513746115228,0.9795779441797141
1356,0.08797513746115228,0.9799183117767188
1357,0.08826542809330283,0.9799183117767188
1358,0.08826542809330283,0.9802586793737236
1359,0.08829957993237936,0.9802586793737236
1360,0.08829957993237936,0.9809394145677331
1361,0.08959734981728766,0.9809394145677331
1362,0.08959734981728766,0.9812797821647379
1363,0.09067313274819849,0.9812797821647379
1364,0.09067313274819849,0.9816201497617427
1365,0.09420784809261978,0.9816201497617427
1366,0.09420784809261978,0.9819605173587475
1367,0.09439568320754073,0.9819605173587475
1368,0.09439568320754073,0.9823008849557522
1369,0.09454936648338513,0.9823008849557522
1370,0.09454936648338513,0.982641252552757
1371,0.09557392165568115,0.982641252552757
1372,0.09557392165568115,0.9829816201497618
1373,0.09589836412690823,0.9829816201497618
1374,0.09589836412690823,0.9833219877467665
1375,0.09951845906902086,0.9833219877467665
1376,0.09951845906902086,0.9836623553437712
1377,0.10008196441378368,0.9836623553437712
1378,0.10008196441378368,0.9840027229407761
1379,0.10153341757453639,0.9840027229407761
1380,0.10153341757453639,0.9843430905377808
1381,0.10185786004576347,0.9843430905377808
1382,0.10185786004576347,0.9846834581347855
1383,0.10708309142447321,0.9846834581347855
1384,0.10708309142447321,0.9850238257317904
1385,0.10882483521737646,0.9850238257317904
1386,0.10882483521737646,0.9853641933287951
1387,0.10904682217137393,0.9853641933287951
1388,0.10904682217137393,0.9857045609257998
1389,0.11271814487210137,0.9857045609257998
1390,0.11271814487210137,0.9860449285228047
1391,0.11304258734332844,0.9860449285228047
1392,0.11304258734332844,0.9863852961198094
1393,0.11463064786038728,0.9863852961198094
1394,0.11463064786038728,0.9867256637168141
1395,0.11485263481438475,0.9867256637168141
1396,0.11485263481438475,0.9870660313138189
1397,0.11526245688330317,0.9870660313138189
1398,0.11526245688330317,0.9874063989108237
1399,0.11937775349202555,0.9874063989108237
1400,0.11937775349202555,0.9877467665078284
1401,0.11961681636556129,0.9877467665078284
1402,0.11961681636556129,0.9880871341048332
1403,0.12351012602028619,0.9880871341048332
1404,0.12351012602028619,0.988427501701838
1405,0.12395409992828114,0.988427501701838
1406,0.12395409992828114,0.9887678692988427
1407,0.12414193504320208,0.9887678692988427
1408,0.12414193504320208,0.9891082368958475
1409,0.12450052935350568,0.9891082368958475
1410,0.12450052935350568,0.9894486044928523
1411,0.1251152624568833,0.9894486044928523
1412,0.1251152624568833,0.989788972089857
1413,0.12643010826132986,0.989788972089857
1414,0.12643010826132986,0.9901293396868618
1415,0.12663501929578908,0.9901293396868618
1416,0.12663501929578908,0.9904697072838666
1417,0.1276595744680851,0.9904697072838666
1418,0.1276595744680851,0.9908100748808714
1419,0.1298965199275981,0.9908100748808714
1420,0.1298965199275981,0.9911504424778761
1421,0.13305556504217753,0.9911504424778761
1422,0.13305556504217753,0.9914908100748808
1423,0.1337386018237082,0.9914908100748808
1424,0.1337386018237082,0.9918311776718857
1425,0.13382398142139953,0.9918311776718857
1426,0.13382398142139953,0.9921715452688904
1427,0.13489976435231038,0.9921715452688904
1428,0.13489976435231038,0.9925119128658951
1429,0.1383149482599638,0.9925119128658951
1430,0.1383149482599638,0.9928522804629
1431,0.13932242751272156,0.9928522804629
1432,0.13932242751272156,0.9931926480599047
1433,0.14202042279976776,0.9931926480599047
1434,0.14202042279976776,0.9935330156569094
1435,0.1427717632594515,0.9935330156569094
1436,0.1427717632594515,0.9938733832539143
1437,0.14837266486800313,0.9938733832539143
1438,0.14837266486800313,0.994213750850919
1439,0.14948259963799052,0.994213750850919
1440,0.14948259963799052,0.9945541184479237
1441,0.15250503739626378,0.9945541184479237
1442,0.15250503739626378,0.9948944860449285
1443,0.1526587206721082,0.9948944860449285
1444,0.1526587206721082,0.9952348536419333
1445,0.15441754038454972,0.9952348536419333
1446,0.15441754038454972,0.995575221238938
1447,0.15713261159113417,0.995575221238938
1448,0.15713261159113417,0.9959155888359428
1449,0.16017212526894573,0.9959155888359428
1450,0.16017212526894573,0.9962559564329476
1451,0.16275058911922408,0.9962559564329476
1452,0.16275058911922408,0.9965963240299524
1453,0.16812950377377822,0.9965963240299524
1454,0.16812950377377822,0.9969366916269571
1455,0.16963218469314573,0.9969366916269571
1456,0.16966633653222227,0.9969366916269571
1457,0.1716642191181995,0.9969366916269571
1458,0.1716642191181995,0.9972770592239619
1459,0.17613811003722551,0.9972770592239619
1460,0.17613811003722551,0.9976174268209667
1461,0.18189269492162152,0.9976174268209667
1462,0.18192684676069806,0.9976174268209667
1463,0.18587138417403778,0.9976174268209667
1464,0.18587138417403778,0.9979577944179714
1465,0.18974761790922443,0.9979577944179714
1466,0.18974761790922443,0.9982981620149761
1467,0.1995833475632663,0.9982981620149761
1468,0.1995833475632663,0.998638529611981
1469,0.20904340698746626,0.998638529611981
1470,0.2090775588265428,0.998638529611981
1471,0.2167787985383013,0.998638529611981
1472,0.2167787985383013,0.9989788972089857
1473,0.21865714968751068,0.9989788972089857
1474,0.2186913015265872,0.9989788972089857
1475,0.22304566100884532,0.9989788972089857
1476,0.22307981284792186,0.9989788972089857
1477,0.23902872169666337,0.9989788972089857
1478,0.23902872169666337,0.9993192648059904
1479,0.2414022745124825,0.9993192648059904
1480,0.24143642635155904,0.9993192648059904
1481,0.2644718418086814,0.9993192648059904
1482,0.26450599364775795,0.9993192648059904
1483,0.28269184795601243,0.9993192648059904
1484,0.28272599979508894,0.9993192648059904
1485,0.28856596427717635,0.9993192648059904
1486,0.28860011611625286,0.9993192648059904
1487,0.29233974249513334,0.9993192648059904
1488,0.2923738943342099,0.9993192648059904
1489,0.2980430996209146,0.9993192648059904
1490,0.29807725145999114,0.9993192648059904
1491,0.30094600594242,0.9993192648059904
1492,0.30098015778149656,0.9993192648059904
1493,0.3073153239301936,0.9993192648059904
1494,0.3073494757692702,0.9993192648059904
1495,0.334824630306342,0.9993192648059904
1496,0.334824630306342,0.9996596324029953
1497,0.361480140705577,0.9996596324029953
1498,0.3615142925446535,0.9996596324029953
1499,0.39580273897749396,0.9996596324029953
1500,0.3958368908165705,0.9996596324029953
1501,0.39979850414944845,0.9996596324029953
1502,0.39983265598852497,0.9996596324029953
1503,0.4157644889177282,0.9996596324029953
1504,0.4157986407568047,0.9996596324029953
1505,0.41641337386018235,0.9996596324029953
1506,0.4164475256992589,0.9996596324029953
1507,0.42437075236501487,0.9996596324029953
1508,0.4244049042040914,0.9996596324029953
1509,0.43736552713363613,0.9996596324029953
1510,0.4373996789727127,0.9996596324029953
1511,0.4390048154093098,0.9996596324029953
1512,0.4390389672483863,0.9996596324029953
1513,0.4513677811550152,0.9996596324029953
1514,0.45140193299409176,0.9996596324029953
1515,0.4765035347153444,0.9996596324029953
1516,0.4765035347153444,1.0
1517,0.4795259724736177,1.0
1518,0.47956012431269424,1.0
1519,0.48043099620914587,1.0
1520,0.4804651480482224,1.0
1521,0.49798504149448447,1.0
1522,0.49801919333356104,1.0
1523,0.5069840510911513,1.0
1524,0.5070182029302278,1.0
1525,0.5732044670605512,1.0
1526,0.5732386188996278,1.0
1527,0.5912878658515761,1.0
1528,0.5913220176906526,1.0
1529,0.5932857484375533,1.0
1530,0.5933199002766298,1.0
1531,0.5937638741846248,1.0
1532,0.5937980260237014,1.0
1533,0.5965643249889007,1.0
1534,0.5965984768279772,1.0
1535,0.596974147057819,1.0
1536,0.5970082988968956,1.0
1537,0.597605956080735,1.0
1538,0.5976401079198115,1.0
1539,0.606365902803866,1.0
1540,0.6064000546429426,1.0
1541,0.6079368874013865,1.0
1542,0.6079710392404631,1.0
1543,0.6151429254465353,1.0
1544,0.6151770772856119,1.0
1545,0.6202827772275536,1.0
1546,0.6203169290666303,1.0
1547,0.6330726409617158,1.0
1548,0.6331067928007923,1.0
1549,0.6396127181448721,1.0
1550,0.6396468699839486,1.0
1551,0.6438816980294388,1.0
1552,0.6439158498685155,1.0
1553,0.6449404050408114,1.0
1554,0.6449916327994263,1.0
1555,0.6452648475120385,1.0
1556,0.645298999351115,1.0
1557,0.6498411939482941,1.0
1558,0.6498753457873706,1.0
1559,0.6551347290051569,1.0
1560,0.6551688808442334,1.0
1561,0.6590109627403435,1.0
1562,0.65904511457942,1.0
1563,0.6591987978552645,1.0
1564,0.659232949694341,1.0
1565,0.6620504764181551,1.0
1566,0.6620846282572317,1.0
1567,0.6633140944639869,1.0
1568,0.6633482463030634,1.0
1569,0.6674464669922475,1.0
1570,0.667480618831324,1.0
1571,0.6694955773368396,1.0
1572,0.6695297291759161,1.0
1573,0.6862982821624944,1.0
1574,0.686332434001571,1.0
1575,0.694067825552406,1.0
1576,0.6941019773914825,1.0
1577,0.7096922919299204,1.0
1578,0.709726443768997,1.0
1579,0.7098972029643796,1.0
1580,0.7099313548034561,1.0
1581,0.7205013489976435,1.0
1582,0.72053550083672,1.0
1583,0.7210648543424063,1.0
1584,0.7210990061814829,1.0
1585,0.7299614084218435,1.0
1586,0.72999556026092,1.0
1587,0.7612786448550254,1.0
1588,0.761312796694102,1.0
1589,0.7653939414637478,1.0
1590,0.7654280933028244,1.0
1591,0.7794986510023565,1.0
1592,0.779532802841433,1.0
1593,0.7809501041631092,1.0
1594,0.7809842560021857,1.0
1595,0.7872852703118063,1.0
1596,0.7873194221508828,1.0
1597,0.788736723472559,1.0
1598,0.7887708753116355,1.0
1599,0.8045490249649944,1.0
1600,0.8045831768040709,1.0
1601,0.8193196953655955,1.0
1602,0.819353847204672,1.0
1603,0.8299750691574741,1.0
1604,0.8300092209965506,1.0
1605,0.8413476315699601,1.0
1606,0.8413817834090366,1.0
1607,0.8653563744407636,1.0
1608,0.8653905262798401,1.0
1609,0.8681397493255012,1.0
1610,0.8681739011645777,1.0
1611,0.895802738977494,1.0
1612,0.8958368908165705,1.0
1613,0.8962637888050271,1.0
1614,0.8962979406441037,1.0
1615,0.8998497319080633,1.0
1616,0.8998838837471398,1.0
1617,0.9098562207574878,1.0
1618,0.9098903725965644,1.0
1619,0.9148082374235853,1.0
1620,0.9148423892626618,1.0
1621,0.9318670810423141,1.0
1622,0.9319012328813907,1.0
1623,0.9388511321334654,1.0
1624,0.9388852839725419,1.0
1625,0.9487893173047368,1.0
1626,0.9488234691438134,1.0
1627,1.0,1.0
