,fpr,tpr
0,0.0,0.0
1,0.0,0.0002745241581259151
2,0.0,0.0005490483162518302
3,0.0,0.0007320644216691069
4,0.0,0.0038433382137628112
5,5.037732617303604e-06,0.0038433382137628112
6,5.037732617303604e-06,0.004300878477306003
7,1.0075465234607208e-05,0.004300878477306003
8,1.0075465234607208e-05,0.009791361639824305
9,1.5113197851910811e-05,0.009791361639824305
10,1.5113197851910811e-05,0.010157393850658858
11,2.0150930469214415e-05,0.010157393850658858
12,2.0150930469214415e-05,0.01171303074670571
13,2.518866308651802e-05,0.01171303074670571
14,2.518866308651802e-05,0.024066617862371888
15,2.518866308651802e-05,0.024249633967789164
16,2.518866308651802e-05,0.0255307467057101
17,2.518866308651802e-05,0.025713762811127378
18,2.518866308651802e-05,0.03138726207906296
19,3.0226395703821623e-05,0.03138726207906296
20,3.0226395703821623e-05,0.03468155197657394
21,3.526412832112523e-05,0.03468155197657394
22,3.526412832112523e-05,0.03898243045387994
23,3.526412832112523e-05,0.03916544655929722
24,3.526412832112523e-05,0.06277452415812591
25,3.526412832112523e-05,0.0629575402635432
26,3.526412832112523e-05,0.0699121522693997
27,3.526412832112523e-05,0.07009516837481698
28,3.526412832112523e-05,0.08629209370424597
29,3.526412832112523e-05,0.08647510980966325
30,3.526412832112523e-05,0.09434480234260614
31,3.526412832112523e-05,0.09452781844802342
32,3.526412832112523e-05,0.11996705710102488
33,3.526412832112523e-05,0.12015007320644217
34,3.526412832112523e-05,0.12024158125915081
35,4.030186093842883e-05,0.12024158125915081
36,4.030186093842883e-05,0.13387628111273792
37,4.030186093842883e-05,0.1340592972181552
38,4.030186093842883e-05,0.1367130307467057
39,4.030186093842883e-05,0.13689604685212298
40,4.030186093842883e-05,0.14092240117130309
41,4.030186093842883e-05,0.14110541727672035
42,4.030186093842883e-05,0.1481515373352855
43,4.533959355573244e-05,0.1481515373352855
44,4.533959355573244e-05,0.15592972181551976
45,4.533959355573244e-05,0.15611273792093705
46,4.533959355573244e-05,0.16251830161054173
47,4.533959355573244e-05,0.162701317715959
48,4.533959355573244e-05,0.1641654465592972
49,5.037732617303604e-05,0.1641654465592972
50,5.037732617303604e-05,0.17368228404099562
51,5.037732617303604e-05,0.17386530014641288
52,5.037732617303604e-05,0.19811493411420206
53,5.5415058790339646e-05,0.19811493411420206
54,5.5415058790339646e-05,0.22556734992679356
55,5.5415058790339646e-05,0.22575036603221083
56,5.5415058790339646e-05,0.25796120058565153
57,6.0452791407643246e-05,0.25796120058565153
58,6.0452791407643246e-05,0.2635431918008785
59,6.549052402494685e-05,0.2635431918008785
60,6.549052402494685e-05,0.2683931185944363
61,6.549052402494685e-05,0.2685761346998536
62,6.549052402494685e-05,0.29337481698389456
63,7.052825664225046e-05,0.29337481698389456
64,7.052825664225046e-05,0.29877379209370425
65,7.556598925955406e-05,0.29877379209370425
66,7.556598925955406e-05,0.3141471449487555
67,8.060372187685766e-05,0.3141471449487555
68,8.060372187685766e-05,0.3235724743777452
69,8.564145449416126e-05,0.3235724743777452
70,8.564145449416126e-05,0.327690336749634
71,9.067918711146488e-05,0.327690336749634
72,9.067918711146488e-05,0.3288799414348463
73,9.571691972876848e-05,0.3288799414348463
74,9.571691972876848e-05,0.3374816983894583
75,0.00010075465234607208,0.3374816983894583
76,0.00010075465234607208,0.34315519765739383
77,0.00010579238496337569,0.34315519765739383
78,0.00010579238496337569,0.3447108345534407
79,0.00011083011758067929,0.3447108345534407
80,0.00011083011758067929,0.349194729136164
81,0.00011586785019798289,0.349194729136164
82,0.00011586785019798289,0.3542276720351391
83,0.00012090558281528649,0.3542276720351391
84,0.00012090558281528649,0.35596632503660325
85,0.0001259433154325901,0.35596632503660325
86,0.0001259433154325901,0.35871156661786235
87,0.0001309810480498937,0.35871156661786235
88,0.0001309810480498937,0.3604502196193265
89,0.00013601878066719732,0.3604502196193265
90,0.00013601878066719732,0.3618228404099561
91,0.00014105651328450092,0.3618228404099561
92,0.00014105651328450092,0.36255490483162517
93,0.00014105651328450092,0.36273792093704244
94,0.00014105651328450092,0.3757320644216691
95,0.00014609424590180452,0.3757320644216691
96,0.00014609424590180452,0.3797584187408492
97,0.00015113197851910812,0.3797584187408492
98,0.00015113197851910812,0.3931185944363104
99,0.00016120744375371532,0.3931185944363104
100,0.00016120744375371532,0.3957723279648609
101,0.00016624517637101892,0.3957723279648609
102,0.00016624517637101892,0.40034773060029283
103,0.00017128290898832252,0.40034773060029283
104,0.00017128290898832252,0.4038250366032211
105,0.00017632064160562615,0.4038250366032211
106,0.00017632064160562615,0.40583821376281115
107,0.00018135837422292975,0.40583821376281115
108,0.00018135837422292975,0.4084919472913616
109,0.00018639610684023335,0.4084919472913616
110,0.00018639610684023335,0.4113286969253294
111,0.00019143383945753695,0.4113286969253294
112,0.00019143383945753695,0.41215226939970717
113,0.00019647157207484055,0.41215226939970717
114,0.00019647157207484055,0.4135248901903367
115,0.00020150930469214415,0.4135248901903367
116,0.00020150930469214415,0.41590409956076135
117,0.00020654703730944775,0.41590409956076135
118,0.00020654703730944775,0.4179172767203514
119,0.00021158476992675138,0.4179172767203514
120,0.00021158476992675138,0.41846632503660325
121,0.00021662250254405498,0.41846632503660325
122,0.00021662250254405498,0.4216691068814056
123,0.00022166023516135858,0.4216691068814056
124,0.00022166023516135858,0.422309663250366
125,0.00022669796777866218,0.422309663250366
126,0.00022669796777866218,0.42304172767203513
127,0.00023173570039596578,0.42304172767203513
128,0.00023173570039596578,0.4286237188872621
129,0.00023677343301326938,0.4286237188872621
130,0.00023677343301326938,0.42972181551976574
131,0.00024181116563057298,0.42972181551976574
132,0.00024181116563057298,0.4337481698389458
133,0.0002468488982478766,0.4337481698389458
134,0.0002468488982478766,0.4362188872620791
135,0.0002518866308651802,0.4362188872620791
136,0.0002518866308651802,0.4394216691068814
137,0.0002569243634824838,0.4394216691068814
138,0.0002569243634824838,0.445095168374817
139,0.0002619620960997874,0.445095168374817
140,0.0002619620960997874,0.4453696925329429
141,0.000266999828717091,0.4453696925329429
142,0.000266999828717091,0.44903001464128844
143,0.00027203756133439464,0.44903001464128844
144,0.00027203756133439464,0.44930453879941434
145,0.0002770752939516982,0.44930453879941434
146,0.0002770752939516982,0.4541544655929722
147,0.00028211302656900184,0.4541544655929722
148,0.00028211302656900184,0.4575402635431918
149,0.0002871507591863054,0.4575402635431918
150,0.0002871507591863054,0.46037701317715957
151,0.00029218849180360904,0.46037701317715957
152,0.00029218849180360904,0.46293923865300146
153,0.0002972262244209126,0.46293923865300146
154,0.0002972262244209126,0.4631222547584187
155,0.00030226395703821624,0.4631222547584187
156,0.00030226395703821624,0.46385431918008785
157,0.0003073016896555198,0.46385431918008785
158,0.0003073016896555198,0.4644033674963397
159,0.00031233942227282344,0.4644033674963397
160,0.00031233942227282344,0.46486090775988287
161,0.00031737715489012707,0.46486090775988287
162,0.00031737715489012707,0.46724011713030744
163,0.00032241488750743065,0.46724011713030744
164,0.00032241488750743065,0.46733162518301613
165,0.00032745262012473427,0.46733162518301613
166,0.00032745262012473427,0.4687042459736457
167,0.00033249035274203785,0.4687042459736457
168,0.00033249035274203785,0.4697108345534407
169,0.0003375280853593415,0.4697108345534407
170,0.0003375280853593415,0.4720900439238653
171,0.00034256581797664505,0.4720900439238653
172,0.00034256581797664505,0.47392020497803805
173,0.0003476035505939487,0.47392020497803805
174,0.0003476035505939487,0.47483528550512444
175,0.0003526412832112523,0.47483528550512444
176,0.0003526412832112523,0.47959370424597364
177,0.0003576790158285559,0.47959370424597364
178,0.0003576790158285559,0.4849011713030747
179,0.0003627167484458595,0.4849011713030747
180,0.0003627167484458595,0.48499267935578333
181,0.0003677544810631631,0.48499267935578333
182,0.0003677544810631631,0.4861822840409956
183,0.0003778299462977703,0.4861822840409956
184,0.0003778299462977703,0.48627379209370425
185,0.0003828676789150739,0.48627379209370425
186,0.0003828676789150739,0.4864568081991215
187,0.00038790541153237753,0.4864568081991215
188,0.00038790541153237753,0.49130673499267935
189,0.0003929431441496811,0.49130673499267935
190,0.0003929431441496811,0.49515007320644217
191,0.00039798087676698473,0.49515007320644217
192,0.00039798087676698473,0.49826134699853586
193,0.0004030186093842883,0.49826134699853586
194,0.0004030186093842883,0.4997254758418741
195,0.0004130940746188955,0.4997254758418741
196,0.0004130940746188955,0.501281112737921
197,0.00041813180723619913,0.501281112737921
198,0.00041813180723619913,0.5022877013177159
199,0.00042316953985350276,0.5022877013177159
200,0.00042316953985350276,0.5035688140556369
201,0.00042820727247080634,0.5035688140556369
202,0.00042820727247080634,0.5064055636896047
203,0.00043324500508810996,0.5064055636896047
204,0.00043324500508810996,0.5066800878477306
205,0.00043828273770541354,0.5066800878477306
206,0.00043828273770541354,0.5072291361639825
207,0.00044332047032271716,0.5072291361639825
208,0.00044332047032271716,0.5078696925329429
209,0.00044835820294002074,0.5078696925329429
210,0.00044835820294002074,0.5085102489019033
211,0.00045339593555732436,0.5085102489019033
212,0.00045339593555732436,0.5097913616398243
213,0.00045843366817462794,0.5097913616398243
214,0.00045843366817462794,0.5102489019033675
215,0.00046347140079193157,0.5102489019033675
216,0.00046347140079193157,0.5120790629575402
217,0.0004685091334092352,0.5120790629575402
218,0.0004685091334092352,0.5124450951683748
219,0.00047354686602653877,0.5124450951683748
220,0.00047354686602653877,0.5145497803806734
221,0.0004785845986438424,0.5145497803806734
222,0.0004785845986438424,0.5150073206442167
223,0.00048362233126114597,0.5150073206442167
224,0.00048362233126114597,0.5167459736456809
225,0.0004886600638784495,0.5167459736456809
226,0.0004886600638784495,0.517203513909224
227,0.0004936977964957532,0.517203513909224
228,0.0004936977964957532,0.5196742313323572
229,0.0004987355291130568,0.5196742313323572
230,0.0004987355291130568,0.5204978038067349
231,0.0005037732617303604,0.5204978038067349
232,0.0005037732617303604,0.5206808199121523
233,0.000508810994347664,0.5206808199121523
234,0.000508810994347664,0.520772327964861
235,0.0005138487269649676,0.520772327964861
236,0.0005138487269649676,0.5211383601756955
237,0.0005188864595822712,0.5211383601756955
238,0.0005188864595822712,0.5215959004392386
239,0.0005239241921995748,0.5215959004392386
240,0.0005239241921995748,0.5222364568081991
241,0.0005289619248168785,0.5222364568081991
242,0.0005289619248168785,0.5223279648609077
243,0.0005390373900514856,0.5223279648609077
244,0.0005390373900514856,0.522785505124451
245,0.0005440751226687893,0.522785505124451
246,0.0005440751226687893,0.5233345534407028
247,0.0005491128552860929,0.5233345534407028
248,0.0005491128552860929,0.523792093704246
249,0.0005541505879033964,0.523792093704246
250,0.0005541505879033964,0.5240666178623719
251,0.0005591883205207,0.5240666178623719
252,0.0005591883205207,0.5247071742313324
253,0.0005642260531380037,0.5247071742313324
254,0.0005642260531380037,0.5258967789165446
255,0.0005642260531380037,0.5260797950219619
256,0.0005642260531380037,0.5267203513909224
257,0.0005743015183726108,0.5267203513909224
258,0.0005743015183726108,0.5269033674963397
259,0.0005793392509899145,0.5269033674963397
260,0.0005793392509899145,0.529099560761347
261,0.0005843769836072181,0.529099560761347
262,0.0005843769836072181,0.5293740849194729
263,0.0005944524488418252,0.5293740849194729
264,0.0005944524488418252,0.5300146412884333
265,0.0005994901814591289,0.5300146412884333
266,0.0005994901814591289,0.5316617862371888
267,0.0006045279140764325,0.5316617862371888
268,0.0006045279140764325,0.5320278184480234
269,0.0006146033793110396,0.5320278184480234
270,0.0006146033793110396,0.5330344070278185
271,0.0006196411119283433,0.5330344070278185
272,0.0006196411119283433,0.5344070278184481
273,0.0006246788445456469,0.5344070278184481
274,0.0006246788445456469,0.5363286969253295
275,0.0006297165771629505,0.5363286969253295
276,0.0006297165771629505,0.5378843338213762
277,0.0006347543097802541,0.5378843338213762
278,0.0006347543097802541,0.5390739385065886
279,0.0006397920423975577,0.5390739385065886
280,0.0006397920423975577,0.5395314787701317
281,0.0006448297750148613,0.5395314787701317
282,0.0006448297750148613,0.5412701317715959
283,0.0006498675076321649,0.5412701317715959
284,0.0006498675076321649,0.5418191800878477
285,0.0006549052402494685,0.5418191800878477
286,0.0006549052402494685,0.5424597364568082
287,0.0006599429728667721,0.5424597364568082
288,0.0006599429728667721,0.5427342606149341
289,0.0006649807054840757,0.5427342606149341
290,0.0006649807054840757,0.5432833089311859
291,0.0006700184381013794,0.5432833089311859
292,0.0006700184381013794,0.5440153733528551
293,0.000675056170718683,0.5440153733528551
294,0.000675056170718683,0.5460285505124451
295,0.0006851316359532901,0.5460285505124451
296,0.0006851316359532901,0.5462115666178624
297,0.0006901693685705938,0.5462115666178624
298,0.0006901693685705938,0.5476756954612005
299,0.0006952071011878973,0.5476756954612005
300,0.0006952071011878973,0.5479502196193266
301,0.0007002448338052009,0.5479502196193266
302,0.0007002448338052009,0.5484992679355783
303,0.0007052825664225046,0.5484992679355783
304,0.0007052825664225046,0.5492313323572474
305,0.0007103202990398082,0.5492313323572474
306,0.0007103202990398082,0.5495058565153733
307,0.0007153580316571118,0.5495058565153733
308,0.0007153580316571118,0.5496888726207906
309,0.0007203957642744153,0.5496888726207906
310,0.0007203957642744153,0.5497803806734992
311,0.000725433496891719,0.5497803806734992
312,0.000725433496891719,0.5499633967789166
313,0.0007304712295090226,0.5499633967789166
314,0.0007304712295090226,0.5500549048316252
315,0.0007355089621263262,0.5500549048316252
316,0.0007355089621263262,0.5505124450951684
317,0.0007405466947436298,0.5505124450951684
318,0.0007405466947436298,0.5507869692532943
319,0.0007455844273609334,0.5507869692532943
320,0.0007455844273609334,0.5525256222547584
321,0.0007556598925955406,0.5525256222547584
322,0.0007556598925955406,0.5533491947291361
323,0.0007657353578301478,0.5533491947291361
324,0.0007657353578301478,0.553898243045388
325,0.0007707730904474514,0.553898243045388
326,0.0007707730904474514,0.5551793557833089
327,0.0007758108230647551,0.5551793557833089
328,0.0007758108230647551,0.5554538799414348
329,0.0007858862882993622,0.5554538799414348
330,0.0007858862882993622,0.5574670571010248
331,0.0007909240209166658,0.5574670571010248
332,0.0007909240209166658,0.5577415812591509
333,0.000800999486151273,0.5577415812591509
334,0.000800999486151273,0.5590226939970717
335,0.0008060372187685766,0.5590226939970717
336,0.0008060372187685766,0.5596632503660323
337,0.0008110749513858803,0.5596632503660323
338,0.0008110749513858803,0.5610358711566618
339,0.0008161126840031839,0.5610358711566618
340,0.0008161126840031839,0.5614934114202049
341,0.0008211504166204874,0.5614934114202049
342,0.0008211504166204874,0.5632320644216691
343,0.0008211504166204874,0.5634150805270863
344,0.0008211504166204874,0.5635980966325037
345,0.000826188149237791,0.5635980966325037
346,0.000826188149237791,0.5651537335285505
347,0.0008312258818550947,0.5651537335285505
348,0.0008312258818550947,0.5652452415812591
349,0.0008362636144723983,0.5652452415812591
350,0.0008362636144723983,0.5657027818448024
351,0.0008463390797070055,0.5657027818448024
352,0.0008463390797070055,0.565794289897511
353,0.0008513768123243091,0.565794289897511
354,0.0008513768123243091,0.5661603221083455
355,0.0008614522775589162,0.5661603221083455
356,0.0008614522775589162,0.5685395314787701
357,0.0008664900101762199,0.5685395314787701
358,0.0008664900101762199,0.5692715959004392
359,0.0008715277427935235,0.5692715959004392
360,0.0008715277427935235,0.5704612005856515
361,0.0008765654754108271,0.5704612005856515
362,0.0008765654754108271,0.5707357247437774
363,0.0008816032080281306,0.5707357247437774
364,0.0008816032080281306,0.5716508052708639
365,0.0008866409406454343,0.5716508052708639
366,0.0008866409406454343,0.5723828696925329
367,0.0008916786732627379,0.5723828696925329
368,0.0008916786732627379,0.5725658857979502
369,0.0009067918711146487,0.5725658857979502
370,0.0009067918711146487,0.5727489019033675
371,0.0009118296037319523,0.5728404099560761
372,0.0009118296037319523,0.5732979502196194
373,0.0009219050689665596,0.5732979502196194
374,0.0009219050689665596,0.573389458272328
375,0.0009269428015838631,0.573389458272328
376,0.0009269428015838631,0.5737554904831625
377,0.0009319805342011667,0.5737554904831625
378,0.0009319805342011667,0.5743045387994143
379,0.0009370182668184704,0.5743045387994143
380,0.0009370182668184704,0.5755856515373353
381,0.000942055999435774,0.5755856515373353
382,0.000942055999435774,0.5757686676427526
383,0.0009470937320530775,0.5757686676427526
384,0.0009470937320530775,0.5759516837481699
385,0.0009521314646703811,0.5759516837481699
386,0.0009521314646703811,0.5766837481698389
387,0.0009571691972876848,0.5766837481698389
388,0.0009571691972876848,0.5773243045387995
389,0.0009622069299049884,0.5773243045387995
390,0.0009622069299049884,0.5775073206442167
391,0.0009672446625222919,0.5775073206442167
392,0.0009672446625222919,0.5779648609077599
393,0.0009722823951395956,0.5779648609077599
394,0.0009722823951395956,0.5788799414348462
395,0.000977320127756899,0.5788799414348462
396,0.000977320127756899,0.5811676427525623
397,0.0009823578603742028,0.5811676427525623
398,0.0009823578603742028,0.5812591508052709
399,0.00099243332560881,0.5812591508052709
400,0.00099243332560881,0.5818997071742313
401,0.0009974710582261136,0.5818997071742313
402,0.0009974710582261136,0.5821742313323572
403,0.0010025087908434173,0.5821742313323572
404,0.0010025087908434173,0.5831808199121523
405,0.0010125842560780244,0.5831808199121523
406,0.0010125842560780244,0.5833638360175696
407,0.0010276974539299352,0.5833638360175696
408,0.0010276974539299352,0.5837298682284041
409,0.0010327351865472387,0.5837298682284041
410,0.0010327351865472387,0.5839128843338214
411,0.0010377729191645424,0.5839128843338214
412,0.0010377729191645424,0.5845534407027818
413,0.001042810651781846,0.5845534407027818
414,0.001042810651781846,0.5846449487554904
415,0.0010478483843991495,0.5846449487554904
416,0.0010478483843991495,0.5858345534407028
417,0.0010528861170164532,0.5858345534407028
418,0.0010528861170164532,0.5859260614934114
419,0.001057923849633757,0.5859260614934114
420,0.001057923849633757,0.5862005856515373
421,0.0010629615822510604,0.5862005856515373
422,0.0010629615822510604,0.586292093704246
423,0.0010730370474856677,0.586292093704246
424,0.0010730370474856677,0.5871156661786238
425,0.0010780747801029712,0.5871156661786238
426,0.0010780747801029712,0.5872071742313324
427,0.0010831125127202749,0.5872071742313324
428,0.0010831125127202749,0.5881222547584187
429,0.0010881502453375786,0.5881222547584187
430,0.0010881502453375786,0.5882137628111274
431,0.001093187977954882,0.5882137628111274
432,0.001093187977954882,0.588305270863836
433,0.0010982257105721857,0.588305270863836
434,0.0010982257105721857,0.5889458272327965
435,0.0011032634431894892,0.5889458272327965
436,0.0011032634431894892,0.589586383601757
437,0.0011083011758067929,0.589586383601757
438,0.0011083011758067929,0.5898609077598829
439,0.0011133389084240965,0.5898609077598829
440,0.0011133389084240965,0.5904099560761347
441,0.0011183766410414,0.5904099560761347
442,0.0011183766410414,0.5911420204978038
443,0.0011284521062760074,0.5911420204978038
444,0.0011284521062760074,0.5915080527086384
445,0.0011334898388933108,0.5915080527086384
446,0.0011334898388933108,0.591599560761347
447,0.0011385275715106145,0.591599560761347
448,0.0011385275715106145,0.5922401171303074
449,0.0011435653041279182,0.5922401171303074
450,0.0011435653041279182,0.5924231332357247
451,0.0011486030367452217,0.5924231332357247
452,0.0011486030367452217,0.5925146412884333
453,0.0011536407693625253,0.5925146412884333
454,0.0011536407693625253,0.5926976573938506
455,0.001158678501979829,0.5926976573938506
456,0.001158678501979829,0.5927891654465594
457,0.0011687539672144362,0.5927891654465594
458,0.0011687539672144362,0.5935212298682284
459,0.0011737916998317396,0.5935212298682284
460,0.0011737916998317396,0.5939787701317716
461,0.0011788294324490433,0.5939787701317716
462,0.0011788294324490433,0.5940702781844802
463,0.001183867165066347,0.5940702781844802
464,0.001183867165066347,0.5944363103953147
465,0.0011889048976836505,0.5944363103953147
466,0.0011889048976836505,0.5947108345534406
467,0.0011939426303009541,0.5947108345534406
468,0.0011939426303009541,0.5951683748169839
469,0.0011989803629182578,0.5951683748169839
470,0.0011989803629182578,0.5953513909224012
471,0.001209055828152865,0.5953513909224012
472,0.001209055828152865,0.5959919472913616
473,0.0012140935607701687,0.5959919472913616
474,0.0012140935607701687,0.5961749633967789
475,0.0012191312933874721,0.5961749633967789
476,0.0012191312933874721,0.5965409956076134
477,0.0012292067586220793,0.5965409956076134
478,0.0012292067586220793,0.5970900439238653
479,0.001234244491239383,0.5970900439238653
480,0.001234244491239383,0.5975475841874085
481,0.0012392822238566866,0.5975475841874085
482,0.0012392822238566866,0.5976390922401171
483,0.0012493576890912938,0.5976390922401171
484,0.0012493576890912938,0.597913616398243
485,0.0012543954217085975,0.597913616398243
486,0.0012543954217085975,0.5980966325036603
487,0.001259433154325901,0.5980966325036603
488,0.001259433154325901,0.5993777452415813
489,0.0012644708869432046,0.5993777452415813
490,0.0012644708869432046,0.5994692532942899
491,0.0012695086195605083,0.5994692532942899
492,0.0012695086195605083,0.5996522693997072
493,0.0012745463521778118,0.5996522693997072
494,0.0012745463521778118,0.5999267935578331
495,0.0012795840847951154,0.5999267935578331
496,0.0012795840847951154,0.6004758418740849
497,0.0012846218174124191,0.6004758418740849
498,0.0012846218174124191,0.6006588579795022
499,0.0012896595500297226,0.6006588579795022
500,0.0012896595500297226,0.6010248901903368
501,0.0012946972826470263,0.6010248901903368
502,0.0012946972826470263,0.601207906295754
503,0.0012997350152643297,0.601207906295754
504,0.0012997350152643297,0.60148243045388
505,0.0013047727478816334,0.60148243045388
506,0.0013047727478816334,0.6025805270863837
507,0.001309810480498937,0.6025805270863837
508,0.001309810480498937,0.6038616398243045
509,0.0013148482131162406,0.6038616398243045
510,0.0013148482131162406,0.6056002928257687
511,0.001324923678350848,0.6056002928257687
512,0.001324923678350848,0.6058748169838946
513,0.001334999143585455,0.6058748169838946
514,0.001334999143585455,0.6061493411420205
515,0.0013400368762027587,0.6061493411420205
516,0.0013400368762027587,0.6062408491947291
517,0.0013450746088200622,0.6062408491947291
518,0.0013450746088200622,0.606789897510981
519,0.0013652255392892767,0.606789897510981
520,0.0013652255392892767,0.6070644216691069
521,0.0013702632719065802,0.6070644216691069
522,0.0013702632719065802,0.6084370424597365
523,0.0013753010045238839,0.6084370424597365
524,0.0013753010045238839,0.6085285505124451
525,0.0013803387371411876,0.6085285505124451
526,0.0013803387371411876,0.6086200585651538
527,0.0013904142023757947,0.6086200585651538
528,0.0013904142023757947,0.608803074670571
529,0.0013954519349930984,0.608803074670571
530,0.0013954519349930984,0.6097181551976574
531,0.0014004896676104018,0.6097181551976574
532,0.0014004896676104018,0.6099926793557833
533,0.0014055274002277055,0.6099926793557833
534,0.0014055274002277055,0.6101756954612005
535,0.0014156028654623127,0.6101756954612005
536,0.0014156028654623127,0.6103587115666179
537,0.0014206405980796164,0.6103587115666179
538,0.0014206405980796164,0.6105417276720352
539,0.00142567833069692,0.6105417276720352
540,0.00142567833069692,0.6107247437774525
541,0.0014307160633142235,0.6107247437774525
542,0.0014307160633142235,0.6109077598828697
543,0.0014357537959315272,0.6109077598828697
544,0.0014357537959315272,0.6109992679355783
545,0.0014407915285488306,0.6109992679355783
546,0.0014407915285488306,0.611090775988287
547,0.0014659801916353488,0.611090775988287
548,0.0014659801916353488,0.6112737920937042
549,0.0014710179242526523,0.6112737920937042
550,0.0014710179242526523,0.6117313323572474
551,0.001476055656869956,0.6117313323572474
552,0.001476055656869956,0.6119143484626647
553,0.0014861311221045631,0.6119143484626647
554,0.0014861311221045631,0.612097364568082
555,0.0014911688547218668,0.612097364568082
556,0.0014911688547218668,0.6121888726207906
557,0.001501244319956474,0.6121888726207906
558,0.001501244319956474,0.6125549048316252
559,0.0015062820525737776,0.6125549048316252
560,0.0015062820525737776,0.6129209370424598
561,0.0015163575178083848,0.6129209370424598
562,0.0015163575178083848,0.614110541727672
563,0.0015213952504256885,0.614110541727672
564,0.0015213952504256885,0.614385065885798
565,0.001526432983042992,0.614385065885798
566,0.001526432983042992,0.6144765739385066
567,0.0015465839135122064,0.6144765739385066
568,0.0015465839135122064,0.6146595900439239
569,0.0015516216461295101,0.6146595900439239
570,0.0015516216461295101,0.6150256222547584
571,0.0015566593787468136,0.6150256222547584
572,0.0015566593787468136,0.6160322108345534
573,0.0015616971113641173,0.6160322108345534
574,0.0015616971113641173,0.616398243045388
575,0.0015667348439814207,0.616398243045388
576,0.0015667348439814207,0.6164897510980967
577,0.001576810309216028,0.6164897510980967
578,0.001576810309216028,0.6168557833089312
579,0.0015818480418333316,0.6168557833089312
580,0.0015818480418333316,0.6175878477306003
581,0.001591923507067939,0.6175878477306003
582,0.001591923507067939,0.6178623718887262
583,0.0015969612396852424,0.6178623718887262
584,0.0015969612396852424,0.6180453879941434
585,0.0016120744375371532,0.6180453879941434
586,0.0016120744375371532,0.6181368960468521
587,0.001617112170154457,0.6181368960468521
588,0.001617112170154457,0.6184114202049781
589,0.0016221499027717606,0.6184114202049781
590,0.0016221499027717606,0.6185029282576867
591,0.0016322253680063677,0.6185029282576867
592,0.0016322253680063677,0.619418008784773
593,0.0016372631006236712,0.619418008784773
594,0.0016372631006236712,0.6200585651537335
595,0.0016423008332409749,0.6200585651537335
596,0.0016423008332409749,0.6202415812591509
597,0.001652376298475582,0.6202415812591509
598,0.001652376298475582,0.6206076134699854
599,0.0016674894963274929,0.6206076134699854
600,0.0016674894963274929,0.6210651537335286
601,0.0016725272289447965,0.6210651537335286
602,0.0016725272289447965,0.6212481698389458
603,0.0016826026941794037,0.6212481698389458
604,0.0016826026941794037,0.6216142020497804
605,0.0016876404267967074,0.6216142020497804
606,0.0016876404267967074,0.6224377745241582
607,0.0016977158920313145,0.6224377745241582
608,0.0016977158920313145,0.6234443631039531
609,0.0017027536246486182,0.6234443631039531
610,0.0017027536246486182,0.6238103953147877
611,0.0017128290898832253,0.6238103953147877
612,0.0017128290898832253,0.6245424597364568
613,0.001717866822500529,0.6245424597364568
614,0.001717866822500529,0.6248169838945827
615,0.0017229045551178325,0.6248169838945827
616,0.0017229045551178325,0.6251830161054173
617,0.001743055485587047,0.6251830161054173
618,0.001743055485587047,0.626281112737921
619,0.0017480932182043507,0.626281112737921
620,0.0017480932182043507,0.6263726207906296
621,0.0017531309508216541,0.6263726207906296
622,0.0017531309508216541,0.6267386530014641
623,0.0017581686834389578,0.6267386530014641
624,0.0017581686834389578,0.6273792093704246
625,0.0017632064160562613,0.6273792093704246
626,0.0017632064160562613,0.6277452415812591
627,0.001768244148673565,0.6277452415812591
628,0.001768244148673565,0.6279282576866764
629,0.0017732818812908687,0.6279282576866764
630,0.0017732818812908687,0.628294289897511
631,0.0017783196139081721,0.628294289897511
632,0.0017783196139081721,0.6285688140556369
633,0.0017833573465254758,0.6285688140556369
634,0.0017833573465254758,0.6286603221083455
635,0.0017883950791427795,0.6286603221083455
636,0.0017883950791427795,0.6307650073206442
637,0.0018035082769946903,0.6307650073206442
638,0.0018035082769946903,0.6309480234260615
639,0.0018085460096119938,0.6309480234260615
640,0.0018085460096119938,0.6310395314787701
641,0.0018135837422292975,0.6310395314787701
642,0.0018135837422292975,0.6311310395314788
643,0.0018186214748466011,0.6311310395314788
644,0.0018186214748466011,0.6312225475841874
645,0.0018236592074639046,0.6312225475841874
646,0.0018236592074639046,0.631314055636896
647,0.0018286969400812083,0.631314055636896
648,0.0018286969400812083,0.6314970717423133
649,0.0018337346726985118,0.6314970717423133
650,0.0018337346726985118,0.6316800878477306
651,0.0018387724053158154,0.6316800878477306
652,0.0018387724053158154,0.6320461200585652
653,0.0018488478705504226,0.6320461200585652
654,0.0018488478705504226,0.6325036603221084
655,0.0018538856031677263,0.6325036603221084
656,0.0018538856031677263,0.6329612005856515
657,0.00185892333578503,0.6329612005856515
658,0.00185892333578503,0.6339677891654466
659,0.0018639610684023334,0.6339677891654466
660,0.0018639610684023334,0.6347913616398243
661,0.0018740365336369408,0.6347913616398243
662,0.0018740365336369408,0.6348828696925329
663,0.0018790742662542442,0.6348828696925329
664,0.0018790742662542442,0.6354319180087847
665,0.001884111998871548,0.6354319180087847
666,0.001884111998871548,0.6355234260614934
667,0.0018891497314888516,0.6355234260614934
668,0.0018891497314888516,0.635614934114202
669,0.0018992251967234587,0.635614934114202
670,0.0018992251967234587,0.635889458272328
671,0.0019042629293407622,0.635889458272328
672,0.0019042629293407622,0.6361639824304539
673,0.001909300661958066,0.6361639824304539
674,0.001909300661958066,0.6362554904831625
675,0.0019143383945753696,0.6362554904831625
676,0.0019143383945753696,0.6363469985358712
677,0.001919376127192673,0.6363469985358712
678,0.001919376127192673,0.6367130307467057
679,0.0019244138598099767,0.6367130307467057
680,0.0019244138598099767,0.636896046852123
681,0.0019395270576618876,0.636896046852123
682,0.0019395270576618876,0.6372620790629575
683,0.0019445647902791912,0.6372620790629575
684,0.0019445647902791912,0.6380856515373353
685,0.0019496025228964947,0.6380856515373353
686,0.0019496025228964947,0.6382686676427526
687,0.001954640255513798,0.6382686676427526
688,0.001954640255513798,0.6384516837481699
689,0.0019647157207484055,0.6384516837481699
690,0.0019647157207484055,0.6385431918008785
691,0.001969753453365709,0.6385431918008785
692,0.001969753453365709,0.6388177159590044
693,0.001974791185983013,0.6388177159590044
694,0.001974791185983013,0.6390007320644217
695,0.0019798289186003164,0.6390007320644217
696,0.0019798289186003164,0.6393667642752562
697,0.00198486665121762,0.6393667642752562
698,0.00198486665121762,0.6406478770131772
699,0.0019899043838349237,0.6406478770131772
700,0.0019899043838349237,0.6415629575402635
701,0.001994942116452227,0.6415629575402635
702,0.001994942116452227,0.6417459736456809
703,0.0019999798490695306,0.6417459736456809
704,0.0019999798490695306,0.6418374816983895
705,0.002010055314304138,0.6418374816983895
706,0.002010055314304138,0.6421120058565154
707,0.0020150930469214415,0.6421120058565154
708,0.0020150930469214415,0.642203513909224
709,0.0020201307795387454,0.642203513909224
710,0.0020201307795387454,0.6422950219619327
711,0.002025168512156049,0.6422950219619327
712,0.002025168512156049,0.6423865300146413
713,0.0020302062447733523,0.6423865300146413
714,0.0020302062447733523,0.6424780380673499
715,0.002035243977390656,0.6424780380673499
716,0.002035243977390656,0.6426610541727672
717,0.0020402817100079597,0.6426610541727672
718,0.0020402817100079597,0.6427525622254758
719,0.002045319442625263,0.6427525622254758
720,0.002045319442625263,0.6433016105417276
721,0.002050357175242567,0.6433016105417276
722,0.002050357175242567,0.6441251830161054
723,0.0020553949078598705,0.6441251830161054
724,0.0020553949078598705,0.6446742313323572
725,0.002060432640477174,0.6446742313323572
726,0.002060432640477174,0.6453147877013177
727,0.0020654703730944774,0.6453147877013177
728,0.0020654703730944774,0.6454978038067349
729,0.0020705081057117813,0.6454978038067349
730,0.0020705081057117813,0.6467789165446559
731,0.002075545838329085,0.6467789165446559
732,0.002075545838329085,0.6468704245973645
733,0.0020805835709463883,0.6468704245973645
734,0.0020805835709463883,0.6473279648609077
735,0.002085621303563692,0.6473279648609077
736,0.002085621303563692,0.6474194729136163
737,0.0020906590361809956,0.6474194729136163
738,0.0020906590361809956,0.6481515373352855
739,0.002100734501415603,0.6481515373352855
740,0.002100734501415603,0.6483345534407028
741,0.0021057722340329064,0.6483345534407028
742,0.0021057722340329064,0.6486090775988287
743,0.00211080996665021,0.6486090775988287
744,0.00211080996665021,0.648792093704246
745,0.002115847699267514,0.648792093704246
746,0.002115847699267514,0.6489751098096632
747,0.0021208854318848173,0.6489751098096632
748,0.0021208854318848173,0.6490666178623719
749,0.002135998629736728,0.6490666178623719
750,0.002135998629736728,0.6491581259150805
751,0.0021410363623540316,0.6491581259150805
752,0.0021410363623540316,0.6492496339677891
753,0.0021460740949713355,0.6492496339677891
754,0.0021460740949713355,0.6498901903367497
755,0.002151111827588639,0.6498901903367497
756,0.002151111827588639,0.6501647144948756
757,0.0021561495602059424,0.6501647144948756
758,0.0021561495602059424,0.6503477306002928
759,0.0021611872928232463,0.6503477306002928
760,0.0021611872928232463,0.6506222547584187
761,0.0021662250254405498,0.6506222547584187
762,0.0021662250254405498,0.6510797950219619
763,0.0021712627580578532,0.6510797950219619
764,0.0021712627580578532,0.6518118594436311
765,0.002176300490675157,0.6518118594436311
766,0.002176300490675157,0.6519033674963397
767,0.0021813382232924606,0.6519033674963397
768,0.0021813382232924606,0.6519948755490483
769,0.002186375955909764,0.6519948755490483
770,0.002186375955909764,0.6521778916544656
771,0.002191413688527068,0.6521778916544656
772,0.002191413688527068,0.6522693997071742
773,0.0021964514211443714,0.6522693997071742
774,0.0021964514211443714,0.6523609077598829
775,0.002201489153761675,0.6523609077598829
776,0.002201489153761675,0.6525439238653001
777,0.0022065268863789783,0.6525439238653001
778,0.0022065268863789783,0.6527269399707174
779,0.0022115646189962822,0.6527269399707174
780,0.0022115646189962822,0.6530929721815519
781,0.002221640084230889,0.6530929721815519
782,0.002221640084230889,0.6532759882869692
783,0.002226677816848193,0.6532759882869692
784,0.002226677816848193,0.6534590043923866
785,0.0022317155494654965,0.6534590043923866
786,0.0022317155494654965,0.6535505124450952
787,0.0022367532820828,0.6535505124450952
788,0.0022367532820828,0.6536420204978038
789,0.002241791014700104,0.6536420204978038
790,0.002241791014700104,0.6539165446559297
791,0.0022468287473174074,0.6539165446559297
792,0.0022468287473174074,0.654099560761347
793,0.002251866479934711,0.654099560761347
794,0.002251866479934711,0.6541910688140556
795,0.0022669796777866217,0.6541910688140556
796,0.0022669796777866217,0.6542825768667643
797,0.002277055143021229,0.6542825768667643
798,0.002277055143021229,0.6545571010248902
799,0.0022871306082558364,0.6545571010248902
800,0.0022871306082558364,0.6548316251830161
801,0.00229216834087314,0.6548316251830161
802,0.00229216834087314,0.6550146412884333
803,0.0022972060734904433,0.6550146412884333
804,0.0022972060734904433,0.655106149341142
805,0.0023022438061077472,0.655106149341142
806,0.0023022438061077472,0.6551976573938506
807,0.002317357003959658,0.6551976573938506
808,0.002317357003959658,0.6555636896046853
809,0.002327432469194265,0.6555636896046853
810,0.002327432469194265,0.6559297218155198
811,0.0023324702018115684,0.6559297218155198
812,0.0023324702018115684,0.6560212298682284
813,0.0023375079344288723,0.6560212298682284
814,0.0023375079344288723,0.656112737920937
815,0.002342545667046176,0.656112737920937
816,0.002342545667046176,0.6562042459736457
817,0.00236269659751539,0.6562042459736457
818,0.00236269659751539,0.6562957540263543
819,0.002367734330132694,0.6562957540263543
820,0.002367734330132694,0.6564787701317716
821,0.002377809795367301,0.6564787701317716
822,0.002377809795367301,0.6565702781844802
823,0.0023979607258365157,0.6565702781844802
824,0.0023979607258365157,0.6569363103953147
825,0.002402998458453819,0.6569363103953147
826,0.002402998458453819,0.657393850658858
827,0.0024080361910711226,0.657393850658858
828,0.0024080361910711226,0.6574853587115667
829,0.0024130739236884265,0.6574853587115667
830,0.0024130739236884265,0.6579428989751098
831,0.00241811165630573,0.6579428989751098
832,0.00241811165630573,0.6583089311859444
833,0.0024231493889230334,0.6583089311859444
834,0.0024231493889230334,0.658400439238653
835,0.0024332248541576408,0.658400439238653
836,0.0024332248541576408,0.6587664714494875
837,0.0024382625867749442,0.6587664714494875
838,0.0024382625867749442,0.6590409956076134
839,0.0024483380520095516,0.6590409956076134
840,0.0024483380520095516,0.6600475841874085
841,0.002453375784626855,0.6600475841874085
842,0.002453375784626855,0.6603221083455344
843,0.0024634512498614624,0.6603221083455344
844,0.0024634512498614624,0.660413616398243
845,0.002468488982478766,0.660413616398243
846,0.002468488982478766,0.6605051244509517
847,0.0024735267150960694,0.6605051244509517
848,0.0024735267150960694,0.6605966325036603
849,0.0024785644477133733,0.6605966325036603
850,0.0024785644477133733,0.6606881405563689
851,0.0024836021803306767,0.6606881405563689
852,0.0024836021803306767,0.6608711566617862
853,0.00248863991294798,0.6608711566617862
854,0.00248863991294798,0.6611456808199122
855,0.002493677645565284,0.6611456808199122
856,0.002493677645565284,0.6613286969253295
857,0.0025138285760344984,0.6613286969253295
858,0.0025138285760344984,0.6619692532942899
859,0.002518866308651802,0.6619692532942899
860,0.002518866308651802,0.6620607613469985
861,0.002528941773886409,0.6620607613469985
862,0.002528941773886409,0.6622437774524158
863,0.00254405497173832,0.6622437774524158
864,0.00254405497173832,0.6627928257686676
865,0.002559168169590231,0.6627928257686676
866,0.002559168169590231,0.6629758418740849
867,0.0025692436348248382,0.6629758418740849
868,0.0025692436348248382,0.6630673499267935
869,0.0025742813674421417,0.6630673499267935
870,0.0025742813674421417,0.6634333821376281
871,0.0025893945652940525,0.6634333821376281
872,0.0025893945652940525,0.6643484626647145
873,0.0026045077631459634,0.6643484626647145
874,0.0026045077631459634,0.6646229868228404
875,0.002609545495763267,0.6646229868228404
876,0.002609545495763267,0.6649890190336749
877,0.0026145832283805703,0.6649890190336749
878,0.0026145832283805703,0.6651720351390923
879,0.002619620960997874,0.6651720351390923
880,0.002619620960997874,0.6653550512445096
881,0.002629696426232481,0.6653550512445096
882,0.002629696426232481,0.6654465592972182
883,0.002634734158849785,0.6654465592972182
884,0.002634734158849785,0.6668191800878477
885,0.002649847356701696,0.6668191800878477
886,0.002649847356701696,0.6673682284040996
887,0.0026548850893189993,0.6673682284040996
888,0.0026548850893189993,0.66800878477306
889,0.0026599228219363028,0.66800878477306
890,0.0026599228219363028,0.6681002928257687
891,0.0026649605545536067,0.6681002928257687
892,0.0026649605545536067,0.6684663250366032
893,0.00266999828717091,0.6684663250366032
894,0.00266999828717091,0.6691068814055637
895,0.0026750360197882136,0.6691068814055637
896,0.0026750360197882136,0.669289897510981
897,0.0026800737524055175,0.669289897510981
898,0.0026800737524055175,0.6693814055636896
899,0.002685111485022821,0.6693814055636896
900,0.002685111485022821,0.6694729136163983
901,0.0026901492176401244,0.6694729136163983
902,0.0026901492176401244,0.6697474377745242
903,0.0026951869502574283,0.6697474377745242
904,0.0026951869502574283,0.6700219619326501
905,0.002700224682874732,0.6700219619326501
906,0.002700224682874732,0.670296486090776
907,0.0027052624154920353,0.670296486090776
908,0.0027052624154920353,0.6704795021961932
909,0.002710300148109339,0.6704795021961932
910,0.002710300148109339,0.6706625183016105
911,0.0027153378807266426,0.6706625183016105
912,0.0027153378807266426,0.6708455344070278
913,0.002720375613343946,0.6708455344070278
914,0.002720375613343946,0.6721266471449487
915,0.0027304510785785534,0.6721266471449487
916,0.0027304510785785534,0.6724011713030746
917,0.002735488811195857,0.6724011713030746
918,0.002735488811195857,0.6725841874084919
919,0.0027405265438131604,0.6725841874084919
920,0.0027405265438131604,0.6728587115666179
921,0.0027455642764304643,0.6728587115666179
922,0.0027455642764304643,0.6731332357247438
923,0.002755639741665071,0.6731332357247438
924,0.002755639741665071,0.6733162518301611
925,0.0027657152068996786,0.6733162518301611
926,0.0027657152068996786,0.6736822840409956
927,0.002775790672134286,0.6736822840409956
928,0.002775790672134286,0.6738653001464129
929,0.0027808284047515894,0.6738653001464129
930,0.0027808284047515894,0.6739568081991215
931,0.002785866137368893,0.6739568081991215
932,0.002785866137368893,0.6741398243045388
933,0.0027909038699861968,0.6741398243045388
934,0.0027909038699861968,0.6745058565153733
935,0.0028009793352208037,0.6745058565153733
936,0.0028009793352208037,0.6746888726207906
937,0.0028060170678381076,0.6746888726207906
938,0.0028060170678381076,0.6749633967789166
939,0.002811054800455411,0.6749633967789166
940,0.002811054800455411,0.6755124450951684
941,0.0028160925330727145,0.6755124450951684
942,0.0028160925330727145,0.6757869692532943
943,0.0028211302656900184,0.6757869692532943
944,0.0028211302656900184,0.6762445095168375
945,0.002826167998307322,0.6762445095168375
946,0.002826167998307322,0.6767020497803806
947,0.0028362434635419292,0.6767020497803806
948,0.0028362434635419292,0.676885065885798
949,0.0028412811961592327,0.676885065885798
950,0.0028412811961592327,0.6769765739385066
951,0.002846318928776536,0.6769765739385066
952,0.002846318928776536,0.6773426061493412
953,0.002861432126628447,0.6773426061493412
954,0.002861432126628447,0.6775256222547584
955,0.0028664698592457505,0.6775256222547584
956,0.0028664698592457505,0.6776171303074671
957,0.0028715075918630544,0.6776171303074671
958,0.0028715075918630544,0.6777086383601757
959,0.002876545324480358,0.6777086383601757
960,0.002876545324480358,0.677891654465593
961,0.002886620789714965,0.677891654465593
962,0.002886620789714965,0.6781661786237189
963,0.002901733987566876,0.6781661786237189
964,0.002901733987566876,0.6782576866764275
965,0.002911809452801483,0.6782576866764275
966,0.002911809452801483,0.678623718887262
967,0.002916847185418787,0.678623718887262
968,0.002916847185418787,0.6787152269399708
969,0.0029218849180360903,0.6787152269399708
970,0.0029218849180360903,0.6790812591508053
971,0.0029319603832706977,0.6790812591508053
972,0.0029319603832706977,0.6792642752562226
973,0.002936998115888001,0.6792642752562226
974,0.002936998115888001,0.6794472913616398
975,0.002936998115888001,0.6796303074670571
976,0.0029470735811226085,0.6796303074670571
977,0.0029470735811226085,0.679904831625183
978,0.002952111313739912,0.679904831625183
979,0.002952111313739912,0.6805453879941434
980,0.0029571490463572154,0.6805453879941434
981,0.0029571490463572154,0.6807284040995608
982,0.0029621867789745193,0.6807284040995608
983,0.0029621867789745193,0.6810944363103953
984,0.0029722622442091263,0.6810944363103953
985,0.0029722622442091263,0.6812774524158126
986,0.00297729997682643,0.6812774524158126
987,0.00297729997682643,0.6813689604685212
988,0.0029823377094437336,0.6813689604685212
989,0.0029823377094437336,0.6814604685212299
990,0.002987375442061037,0.6814604685212299
991,0.002987375442061037,0.6816434846266471
992,0.0029924131746783406,0.6816434846266471
993,0.0029924131746783406,0.6818265007320644
994,0.0029974509072956445,0.6818265007320644
995,0.0029974509072956445,0.6822840409956076
996,0.003002488639912948,0.6822840409956076
997,0.003002488639912948,0.6824670571010248
998,0.0030075263725302514,0.6824670571010248
999,0.0030075263725302514,0.6825585651537335
1000,0.0030125641051475553,0.6825585651537335
1001,0.0030125641051475553,0.683199121522694
1002,0.0030176018377648588,0.683199121522694
1003,0.0030176018377648588,0.6832906295754027
1004,0.003022639570382162,0.6832906295754027
1005,0.003022639570382162,0.6834736456808199
1006,0.003027677302999466,0.6835651537335286
1007,0.0030327150356167696,0.6835651537335286
1008,0.0030327150356167696,0.6837481698389458
1009,0.003037752768234073,0.6837481698389458
1010,0.003037752768234073,0.6840226939970717
1011,0.003052865966085984,0.6840226939970717
1012,0.003052865966085984,0.6842972181551976
1013,0.0030629414313205912,0.6842972181551976
1014,0.0030629414313205912,0.6844802342606149
1015,0.0030679791639378947,0.6844802342606149
1016,0.0030679791639378947,0.6849377745241582
1017,0.0030730168965551986,0.6849377745241582
1018,0.0030730168965551986,0.6851207906295754
1019,0.003078054629172502,0.6851207906295754
1020,0.003078054629172502,0.6852122986822841
1021,0.0030881300944071094,0.6852122986822841
1022,0.0030881300944071094,0.6858528550512445
1023,0.003093167827024413,0.6858528550512445
1024,0.003093167827024413,0.6861273792093704
1025,0.0031032432922590203,0.6861273792093704
1026,0.0031032432922590203,0.6863103953147877
1027,0.0031082810248763237,0.6863103953147877
1028,0.0031082810248763237,0.6864934114202049
1029,0.003113318757493627,0.6864934114202049
1030,0.003113318757493627,0.6867679355783309
1031,0.003128431955345538,0.6867679355783309
1032,0.003128431955345538,0.6872254758418741
1033,0.0031334696879628415,0.6872254758418741
1034,0.0031334696879628415,0.6875
1035,0.0031385074205801454,0.6875
1036,0.0031385074205801454,0.6876830161054173
1037,0.003143545153197449,0.6876830161054173
1038,0.003143545153197449,0.6878660322108345
1039,0.003153620618432056,0.6878660322108345
1040,0.003153620618432056,0.6879575402635432
1041,0.0031586583510493597,0.6879575402635432
1042,0.0031586583510493597,0.6885980966325037
1043,0.003163696083666663,0.6885980966325037
1044,0.003163696083666663,0.6886896046852123
1045,0.003168733816283967,0.6886896046852123
1046,0.003168733816283967,0.6888726207906296
1047,0.0031737715489012705,0.6888726207906296
1048,0.0031737715489012705,0.6890556368960469
1049,0.003178809281518574,0.6890556368960469
1050,0.003178809281518574,0.6891471449487555
1051,0.003193922479370485,0.6891471449487555
1052,0.003193922479370485,0.6893301610541728
1053,0.0031989602119877887,0.6893301610541728
1054,0.0031989602119877887,0.68951317715959
1055,0.003203997944605092,0.68951317715959
1056,0.003203997944605092,0.6896961932650073
1057,0.0032090356772223956,0.6896961932650073
1058,0.0032090356772223956,0.6897877013177159
1059,0.0032140734098396995,0.6897877013177159
1060,0.0032140734098396995,0.6900622254758418
1061,0.0032291866076916103,0.6900622254758418
1062,0.0032291866076916103,0.6902452415812591
1063,0.003234224340308914,0.6902452415812591
1064,0.003234224340308914,0.6909773060029283
1065,0.0032392620729262173,0.6909773060029283
1066,0.0032392620729262173,0.6912518301610542
1067,0.003244299805543521,0.6912518301610542
1068,0.003244299805543521,0.6916178623718887
1069,0.003254375270778128,0.6916178623718887
1070,0.003254375270778128,0.6919838945827232
1071,0.0032594130033954316,0.6919838945827232
1072,0.0032594130033954316,0.6922584187408491
1073,0.0032644507360127355,0.6922584187408491
1074,0.0032644507360127355,0.6926244509516838
1075,0.003269488468630039,0.6926244509516838
1076,0.003269488468630039,0.6929904831625183
1077,0.0032795639338646463,0.6929904831625183
1078,0.0032795639338646463,0.693081991215227
1079,0.0032896393990992532,0.693081991215227
1080,0.0032896393990992532,0.6931734992679356
1081,0.0032997148643338606,0.6931734992679356
1082,0.0032997148643338606,0.6933565153733529
1083,0.003304752596951164,0.6933565153733529
1084,0.003304752596951164,0.6935395314787701
1085,0.003309790329568468,0.6935395314787701
1086,0.003309790329568468,0.6939055636896047
1087,0.0033148280621857714,0.6939055636896047
1088,0.0033148280621857714,0.6942715959004392
1089,0.003319865794803075,0.6942715959004392
1090,0.003319865794803075,0.6949121522693997
1091,0.003324903527420379,0.6949121522693997
1092,0.003324903527420379,0.695095168374817
1093,0.0033299412600376822,0.695095168374817
1094,0.0033299412600376822,0.6951866764275256
1095,0.0033349789926549857,0.6951866764275256
1096,0.0033349789926549857,0.6952781844802343
1097,0.003345054457889593,0.6952781844802343
1098,0.003345054457889593,0.6955527086383602
1099,0.0033500921905068965,0.6955527086383602
1100,0.0033500921905068965,0.6958272327964861
1101,0.0033551299231242004,0.6958272327964861
1102,0.0033551299231242004,0.6960102489019033
1103,0.003360167655741504,0.6960102489019033
1104,0.003360167655741504,0.6961932650073206
1105,0.0033752808535934147,0.6961932650073206
1106,0.0033752808535934147,0.6962847730600292
1107,0.003385356318828022,0.6962847730600292
1108,0.003385356318828022,0.6969253294289898
1109,0.0033903940514453256,0.6969253294289898
1110,0.0033903940514453256,0.697108345534407
1111,0.0034004695166799325,0.697108345534407
1112,0.0034004695166799325,0.698114934114202
1113,0.0034155827145318433,0.698114934114202
1114,0.0034155827145318433,0.6982064421669106
1115,0.0034206204471491472,0.6982064421669106
1116,0.0034206204471491472,0.6985724743777453
1117,0.003430695912383754,0.6985724743777453
1118,0.003430695912383754,0.6988469985358712
1119,0.003435733645001058,0.6988469985358712
1120,0.003435733645001058,0.6989385065885798
1121,0.003450846842852969,0.6989385065885798
1122,0.003450846842852969,0.6995790629575402
1123,0.003460922308087576,0.6995790629575402
1124,0.003460922308087576,0.6996705710102489
1125,0.0034659600407048797,0.6996705710102489
1126,0.0034659600407048797,0.6997620790629575
1127,0.003486110971174094,0.6997620790629575
1128,0.003486110971174094,0.6999450951683748
1129,0.003501224169026005,0.6999450951683748
1130,0.003501224169026005,0.7002196193265008
1131,0.003511299634260612,0.7002196193265008
1132,0.003511299634260612,0.7007686676427526
1133,0.0035163373668779157,0.7007686676427526
1134,0.0035163373668779157,0.7013177159590044
1135,0.003521375099495219,0.7013177159590044
1136,0.003521375099495219,0.701409224011713
1137,0.0035415260299644334,0.701409224011713
1138,0.0035415260299644334,0.7016837481698389
1139,0.0035516014951990408,0.7016837481698389
1140,0.0035516014951990408,0.7017752562225475
1141,0.0035566392278163442,0.7017752562225475
1142,0.0035566392278163442,0.7020497803806734
1143,0.003561676960433648,0.7020497803806734
1144,0.003561676960433648,0.7021412884333821
1145,0.0035667146930509516,0.7021412884333821
1146,0.0035667146930509516,0.7022327964860908
1147,0.003571752425668255,0.7022327964860908
1148,0.003571752425668255,0.7024158125915081
1149,0.003576790158285559,0.7024158125915081
1150,0.003576790158285559,0.7025073206442167
1151,0.0035818278909028624,0.7025073206442167
1152,0.0035818278909028624,0.702690336749634
1153,0.003586865623520166,0.702690336749634
1154,0.003586865623520166,0.7029648609077599
1155,0.0036019788213720767,0.7029648609077599
1156,0.0036019788213720767,0.7032393850658858
1157,0.0036170920192239876,0.7032393850658858
1158,0.0036170920192239876,0.7033308931185944
1159,0.003627167484458595,0.7033308931185944
1160,0.003627167484458595,0.7035139092240117
1161,0.0036372429496932023,0.7035139092240117
1162,0.0036372429496932023,0.703696925329429
1163,0.0036422806823105057,0.703696925329429
1164,0.0036422806823105057,0.7038799414348462
1165,0.003647318414927809,0.7038799414348462
1166,0.003647318414927809,0.7039714494875549
1167,0.003652356147545113,0.7039714494875549
1168,0.003652356147545113,0.7041544655929722
1169,0.0036674693453970235,0.7041544655929722
1170,0.0036674693453970235,0.7044289897510981
1171,0.0036725070780143274,0.7044289897510981
1172,0.0036725070780143274,0.7045204978038068
1173,0.0036876202758662382,0.7045204978038068
1174,0.0036876202758662382,0.7049780380673499
1175,0.003702733473718149,0.7049780380673499
1176,0.003702733473718149,0.7056185944363104
1177,0.0037077712063354525,0.7056185944363104
1178,0.0037077712063354525,0.7058931185944363
1179,0.00371784667157006,0.7058931185944363
1180,0.00371784667157006,0.7060761346998536
1181,0.0037228844041873634,0.7060761346998536
1182,0.0037228844041873634,0.7062591508052709
1183,0.003727922136804667,0.7062591508052709
1184,0.003727922136804667,0.7063506588579795
1185,0.0037430353346565776,0.7063506588579795
1186,0.0037430353346565776,0.70699121522694
1187,0.0037480730672738815,0.70699121522694
1188,0.0037480730672738815,0.7070827232796486
1189,0.003768223997743096,0.7070827232796486
1190,0.003768223997743096,0.7071742313323572
1191,0.00378837492821231,0.7071742313323572
1192,0.00378837492821231,0.707723279648609
1193,0.0037934126608296136,0.707723279648609
1194,0.0037934126608296136,0.7078147877013177
1195,0.0037984503934469175,0.7078147877013177
1196,0.0037984503934469175,0.7079062957540263
1197,0.003803488126064221,0.7079062957540263
1198,0.003803488126064221,0.7081808199121523
1199,0.0038085258586815244,0.7081808199121523
1200,0.0038085258586815244,0.7083638360175696
1201,0.003828676789150739,0.7083638360175696
1202,0.003828676789150739,0.7086383601756955
1203,0.0038337145217680426,0.7086383601756955
1204,0.0038337145217680426,0.7087298682284041
1205,0.0038488277196199534,0.7087298682284041
1206,0.0038488277196199534,0.70900439238653
1207,0.003853865452237257,0.70900439238653
1208,0.003853865452237257,0.7098279648609077
1209,0.0038639409174718643,0.7098279648609077
1210,0.0038639409174718643,0.7099194729136163
1211,0.0038689786500891677,0.7099194729136163
1212,0.0038689786500891677,0.7100109809663251
1213,0.003879054115323775,0.7100109809663251
1214,0.003879054115323775,0.710285505124451
1215,0.0038840918479410786,0.710285505124451
1216,0.0038840918479410786,0.7105600292825769
1217,0.0038891295805583825,0.7105600292825769
1218,0.0038891295805583825,0.7107430453879942
1219,0.003894167313175686,0.7107430453879942
1220,0.003894167313175686,0.7112005856515373
1221,0.0038992050457929894,0.7112005856515373
1222,0.0038992050457929894,0.7121156661786238
1223,0.0039042427784102933,0.7121156661786238
1224,0.0039042427784102933,0.7127562225475842
1225,0.003909280511027596,0.7127562225475842
1226,0.003909280511027596,0.7128477306002928
1227,0.003919355976262204,0.7128477306002928
1228,0.003919355976262204,0.7129392386530015
1229,0.003924393708879507,0.7129392386530015
1230,0.003924393708879507,0.7130307467057101
1231,0.003929431441496811,0.7130307467057101
1232,0.003929431441496811,0.7134882869692533
1233,0.003939506906731418,0.7134882869692533
1234,0.003939506906731418,0.7137628111273792
1235,0.003944544639348722,0.7137628111273792
1236,0.003944544639348722,0.7139458272327965
1237,0.003949582371966026,0.7139458272327965
1238,0.003949582371966026,0.7140373352855052
1239,0.003954620104583329,0.7140373352855052
1240,0.003954620104583329,0.7144033674963397
1241,0.003959657837200633,0.7144033674963397
1242,0.003959657837200633,0.7146778916544656
1243,0.003964695569817937,0.7146778916544656
1244,0.003964695569817937,0.7147693997071742
1245,0.00396973330243524,0.7147693997071742
1246,0.00396973330243524,0.7151354319180088
1247,0.0039798087676698474,0.7151354319180088
1248,0.0039798087676698474,0.7152269399707174
1249,0.0039848465002871505,0.7152269399707174
1250,0.0039848465002871505,0.7154099560761347
1251,0.003994921965521758,0.7154099560761347
1252,0.003994921965521758,0.7155929721815519
1253,0.003999959698139061,0.7155929721815519
1254,0.003999959698139061,0.7156844802342606
1255,0.004004997430756365,0.7156844802342606
1256,0.004004997430756365,0.7160505124450952
1257,0.004010035163373669,0.7160505124450952
1258,0.004010035163373669,0.7161420204978038
1259,0.004015072895990972,0.7161420204978038
1260,0.004015072895990972,0.7163250366032211
1261,0.00402514836122558,0.7163250366032211
1262,0.00402514836122558,0.7164165446559297
1263,0.004035223826460187,0.7164165446559297
1264,0.004035223826460187,0.7167825768667643
1265,0.004040261559077491,0.7167825768667643
1266,0.004040261559077491,0.7171486090775988
1267,0.004045299291694794,0.7171486090775988
1268,0.004045299291694794,0.7176976573938506
1269,0.004050337024312098,0.7176976573938506
1270,0.004050337024312098,0.7177891654465594
1271,0.004055374756929402,0.7177891654465594
1272,0.004055374756929402,0.7179721815519766
1273,0.0040654502221640085,0.7179721815519766
1274,0.0040654502221640085,0.7180636896046853
1275,0.004080563420015919,0.7180636896046853
1276,0.004080563420015919,0.7181551976573939
1277,0.004085601152633223,0.7181551976573939
1278,0.004085601152633223,0.7182467057101025
1279,0.00409567661786783,0.7182467057101025
1280,0.00409567661786783,0.7184297218155198
1281,0.004100714350485134,0.7184297218155198
1282,0.004100714350485134,0.7187042459736457
1283,0.004105752083102437,0.7187042459736457
1284,0.004105752083102437,0.718887262079063
1285,0.004110789815719741,0.718887262079063
1286,0.004110789815719741,0.7197108345534406
1287,0.004115827548337045,0.7197108345534406
1288,0.004115827548337045,0.7200768667642753
1289,0.004125903013571652,0.7200768667642753
1290,0.004125903013571652,0.7203513909224012
1291,0.004130940746188955,0.7203513909224012
1292,0.004130940746188955,0.7204428989751098
1293,0.004141016211423563,0.7204428989751098
1294,0.004141016211423563,0.7216325036603221
1295,0.004146053944040866,0.7216325036603221
1296,0.004146053944040866,0.7218155197657394
1297,0.00415109167665817,0.7218155197657394
1298,0.00415109167665817,0.7219070278184481
1299,0.0041561294092754735,0.7219070278184481
1300,0.0041561294092754735,0.7220900439238653
1301,0.004176280339744687,0.7220900439238653
1302,0.004176280339744687,0.7222730600292826
1303,0.004181318072361991,0.7222730600292826
1304,0.004181318072361991,0.7224560761346999
1305,0.004196431270213902,0.7224560761346999
1306,0.004196431270213902,0.7227306002928258
1307,0.004206506735448509,0.7227306002928258
1308,0.004206506735448509,0.7228221083455344
1309,0.004211544468065813,0.7228221083455344
1310,0.004211544468065813,0.7230051244509517
1311,0.004216582200683117,0.7230051244509517
1312,0.004216582200683117,0.7231881405563689
1313,0.004226657665917724,0.7231881405563689
1314,0.004226657665917724,0.7233711566617862
1315,0.004236733131152331,0.7233711566617862
1316,0.004236733131152331,0.7235541727672035
1317,0.0042417708637696346,0.7235541727672035
1318,0.0042417708637696346,0.7236456808199122
1319,0.004256884061621545,0.7236456808199122
1320,0.004256884061621545,0.7237371888726208
1321,0.004282072724708063,0.7237371888726208
1322,0.004282072724708063,0.7239202049780381
1323,0.004292148189942671,0.7239202049780381
1324,0.004292148189942671,0.724194729136164
1325,0.004302223655177278,0.724194729136164
1326,0.004302223655177278,0.7243777452415813
1327,0.004307261387794582,0.7243777452415813
1328,0.004307261387794582,0.7250183016105417
1329,0.004312299120411885,0.7250183016105417
1330,0.004312299120411885,0.7262994143484627
1331,0.004327412318263796,0.7262994143484627
1332,0.004327412318263796,0.7263909224011713
1333,0.0043324500508810995,0.7263909224011713
1334,0.0043324500508810995,0.72648243045388
1335,0.004337487783498403,0.72648243045388
1336,0.004337487783498403,0.7266654465592972
1337,0.004357638713967617,0.7266654465592972
1338,0.004357638713967617,0.7269399707174231
1339,0.004372751911819528,0.7269399707174231
1340,0.004372751911819528,0.7270314787701317
1341,0.004377789644436832,0.7270314787701317
1342,0.004377789644436832,0.7273060029282576
1343,0.004392902842288743,0.7273060029282576
1344,0.004392902842288743,0.7273975109809663
1345,0.004413053772757957,0.7273975109809663
1346,0.004413053772757957,0.7277635431918009
1347,0.0044231292379925645,0.7277635431918009
1348,0.0044231292379925645,0.7280380673499268
1349,0.004433204703227171,0.7280380673499268
1350,0.004433204703227171,0.7283125915080527
1351,0.004443280168461778,0.7283125915080527
1352,0.004443280168461778,0.7284040995607614
1353,0.004458393366313689,0.7284040995607614
1354,0.004458393366313689,0.7286786237188873
1355,0.004463431098930993,0.7286786237188873
1356,0.004463431098930993,0.7289531478770132
1357,0.004483582029400208,0.7289531478770132
1358,0.004483582029400208,0.7290446559297218
1359,0.004488619762017511,0.7290446559297218
1360,0.004488619762017511,0.729776720351391
1361,0.004498695227252119,0.729776720351391
1362,0.004498695227252119,0.7301427525622255
1363,0.004503732959869422,0.7301427525622255
1364,0.004503732959869422,0.7306918008784773
1365,0.0045138084251040295,0.7306918008784773
1366,0.0045138084251040295,0.7307833089311859
1367,0.004533959355573243,0.7307833089311859
1368,0.004533959355573243,0.7310578330893118
1369,0.004544034820807851,0.7310578330893118
1370,0.004544034820807851,0.7313323572474377
1371,0.004549072553425154,0.7313323572474377
1372,0.004549072553425154,0.7315153733528551
1373,0.004564185751277065,0.7315153733528551
1374,0.004564185751277065,0.7316068814055637
1375,0.004569223483894369,0.7316068814055637
1376,0.004569223483894369,0.7321559297218155
1377,0.00458433668174628,0.7321559297218155
1378,0.00458433668174628,0.7323389458272328
1379,0.004619600810067405,0.7323389458272328
1380,0.004619600810067405,0.7324304538799414
1381,0.004629676275302012,0.7324304538799414
1382,0.004629676275302012,0.7325219619326501
1383,0.004639751740536619,0.7325219619326501
1384,0.004639751740536619,0.732796486090776
1385,0.004649827205771226,0.732796486090776
1386,0.004649827205771226,0.7330710102489019
1387,0.004659902671005834,0.7330710102489019
1388,0.004659902671005834,0.7332540263543191
1389,0.004680053601475048,0.7332540263543191
1390,0.004680053601475048,0.7333455344070278
1391,0.0046901290667096555,0.7333455344070278
1392,0.0046901290667096555,0.7334370424597365
1393,0.0046951667993269585,0.7334370424597365
1394,0.0046951667993269585,0.7336200585651538
1395,0.0047002045319442624,0.7336200585651538
1396,0.0047002045319442624,0.733803074670571
1397,0.004710279997178869,0.733803074670571
1398,0.004710279997178869,0.7338945827232797
1399,0.004715317729796173,0.7338945827232797
1400,0.004715317729796173,0.7339860907759883
1401,0.004720355462413477,0.7339860907759883
1402,0.004720355462413477,0.7340775988286969
1403,0.004735468660265388,0.7340775988286969
1404,0.004735468660265388,0.7350841874084919
1405,0.004740506392882691,0.7350841874084919
1406,0.004740506392882691,0.7354502196193266
1407,0.004750581858117299,0.7354502196193266
1408,0.004750581858117299,0.7357247437774525
1409,0.004755619590734602,0.7357247437774525
1410,0.004755619590734602,0.7359077598828697
1411,0.004760657323351906,0.7359077598828697
1412,0.004760657323351906,0.736090775988287
1413,0.004770732788586513,0.736090775988287
1414,0.004770732788586513,0.7362737920937042
1415,0.004775770521203817,0.7362737920937042
1416,0.004775770521203817,0.7363653001464129
1417,0.0047808082538211205,0.7363653001464129
1418,0.0047808082538211205,0.7365483162518301
1419,0.004800959184290334,0.7365483162518301
1420,0.004800959184290334,0.7367313323572474
1421,0.004831185579994156,0.7367313323572474
1422,0.004831185579994156,0.7369143484626647
1423,0.00483622331261146,0.7369143484626647
1424,0.00483622331261146,0.7370058565153733
1425,0.004846298777846067,0.7370058565153733
1426,0.004846298777846067,0.737097364568082
1427,0.004856374243080675,0.737097364568082
1428,0.004856374243080675,0.7376464128843339
1429,0.004861411975697978,0.7376464128843339
1430,0.004861411975697978,0.7378294289897511
1431,0.0048664497083152815,0.7378294289897511
1432,0.0048664497083152815,0.7379209370424598
1433,0.004881562906167192,0.7379209370424598
1434,0.004881562906167192,0.7381954612005857
1435,0.004891638371401799,0.7381954612005857
1436,0.004891638371401799,0.7388360175695461
1437,0.004896676104019103,0.7388360175695461
1438,0.004901713836636407,0.7389275256222547
1439,0.004911789301871014,0.7389275256222547
1440,0.004911789301871014,0.7390190336749634
1441,0.004921864767105621,0.7390190336749634
1442,0.004921864767105621,0.739110541727672
1443,0.004931940232340228,0.739110541727672
1444,0.004931940232340228,0.7392020497803806
1445,0.004936977964957532,0.7392020497803806
1446,0.004936977964957532,0.7397510980966325
1447,0.004952091162809443,0.7397510980966325
1448,0.004952091162809443,0.7398426061493412
1449,0.0049571288954267465,0.7398426061493412
1450,0.0049571288954267465,0.7400256222547584
1451,0.00497727982589596,0.7400256222547584
1452,0.00497727982589596,0.7401171303074671
1453,0.004987355291130568,0.7401171303074671
1454,0.004987355291130568,0.7404831625183016
1455,0.005012543954217086,0.7404831625183016
1456,0.005012543954217086,0.7406661786237189
1457,0.00501758168683439,0.7406661786237189
1458,0.00501758168683439,0.741123718887262
1459,0.005022619419451693,0.741123718887262
1460,0.005022619419451693,0.741398243045388
1461,0.005027657152068997,0.741398243045388
1462,0.005027657152068997,0.7415812591508053
1463,0.005037732617303604,0.7415812591508053
1464,0.005037732617303604,0.7420387994143485
1465,0.0050478080825382115,0.7420387994143485
1466,0.0050478080825382115,0.742404831625183
1467,0.005067959013007425,0.742404831625183
1468,0.005067959013007425,0.7424963396778916
1469,0.005078034478242033,0.7424963396778916
1470,0.005078034478242033,0.7425878477306003
1471,0.005083072210859336,0.7425878477306003
1472,0.005083072210859336,0.7426793557833089
1473,0.005093147676093944,0.7426793557833089
1474,0.005093147676093944,0.7427708638360175
1475,0.005098185408711247,0.7427708638360175
1476,0.005098185408711247,0.7428623718887262
1477,0.005108260873945855,0.7428623718887262
1478,0.005108260873945855,0.7429538799414348
1479,0.005113298606563158,0.7429538799414348
1480,0.005113298606563158,0.7430453879941434
1481,0.005118336339180462,0.7430453879941434
1482,0.005118336339180462,0.7432284040995608
1483,0.005123374071797766,0.7432284040995608
1484,0.005123374071797766,0.7433199121522694
1485,0.005128411804415069,0.7433199121522694
1486,0.005128411804415069,0.7434114202049781
1487,0.0051334495370323726,0.7434114202049781
1488,0.0051334495370323726,0.7435029282576867
1489,0.005163675932736194,0.7435029282576867
1490,0.005163675932736194,0.7435944363103953
1491,0.005168713665353498,0.7435944363103953
1492,0.005168713665353498,0.7437774524158126
1493,0.005188864595822712,0.7437774524158126
1494,0.005188864595822712,0.7438689604685212
1495,0.005193902328440016,0.7438689604685212
1496,0.005193902328440016,0.7439604685212299
1497,0.005203977793674623,0.7439604685212299
1498,0.005203977793674623,0.7440519765739385
1499,0.0052291664567611406,0.7440519765739385
1500,0.0052291664567611406,0.7441434846266471
1501,0.0052342041893784445,0.7441434846266471
1502,0.0052342041893784445,0.7443265007320644
1503,0.005244279654613051,0.7443265007320644
1504,0.005244279654613051,0.744418008784773
1505,0.005249317387230355,0.744418008784773
1506,0.005249317387230355,0.7445095168374817
1507,0.005259392852464962,0.7445095168374817
1508,0.005259392852464962,0.7446925329428989
1509,0.005279543782934177,0.7446925329428989
1510,0.005279543782934177,0.7450585651537335
1511,0.005284581515551481,0.7450585651537335
1512,0.005284581515551481,0.7451500732064422
1513,0.005289619248168784,0.7451500732064422
1514,0.005289619248168784,0.7454245973645681
1515,0.005294656980786088,0.7454245973645681
1516,0.005294656980786088,0.7455161054172768
1517,0.005299694713403392,0.7455161054172768
1518,0.005299694713403392,0.745699121522694
1519,0.005304732446020695,0.745699121522694
1520,0.005304732446020695,0.7457906295754027
1521,0.0053148079112553025,0.7457906295754027
1522,0.0053148079112553025,0.7459736456808199
1523,0.0053198456438726055,0.7459736456808199
1524,0.0053198456438726055,0.7460651537335286
1525,0.005360147504811035,0.7460651537335286
1526,0.005360147504811035,0.7461566617862372
1527,0.005370222970045642,0.7461566617862372
1528,0.005370222970045642,0.7463396778916545
1529,0.005375260702662946,0.7463396778916545
1530,0.005375260702662946,0.7466142020497804
1531,0.005385336167897553,0.7466142020497804
1532,0.005385336167897553,0.7471632503660323
1533,0.00539541163313216,0.7471632503660323
1534,0.00539541163313216,0.7474377745241582
1535,0.005400449365749464,0.7474377745241582
1536,0.005400449365749464,0.7478038067349927
1537,0.0054054870983667675,0.7478038067349927
1538,0.0054054870983667675,0.7478953147877013
1539,0.0054105248309840705,0.7478953147877013
1540,0.0054105248309840705,0.74798682284041
1541,0.005415562563601374,0.74798682284041
1542,0.005415562563601374,0.7481698389458272
1543,0.005435713494070589,0.7481698389458272
1544,0.005435713494070589,0.7483528550512445
1545,0.005440751226687892,0.7483528550512445
1546,0.005440751226687892,0.7484443631039531
1547,0.005445788959305196,0.7484443631039531
1548,0.005445788959305196,0.748718887262079
1549,0.005455864424539803,0.748718887262079
1550,0.005455864424539803,0.7488103953147877
1551,0.005460902157157107,0.7488103953147877
1552,0.005460902157157107,0.7489934114202049
1553,0.005476015355009018,0.7489934114202049
1554,0.005476015355009018,0.7490849194729137
1555,0.005481053087626321,0.7490849194729137
1556,0.005481053087626321,0.7491764275256223
1557,0.005486090820243625,0.7491764275256223
1558,0.005486090820243625,0.7492679355783309
1559,0.0054911285528609285,0.7492679355783309
1560,0.0054911285528609285,0.7493594436310396
1561,0.0055012040180955355,0.7493594436310396
1562,0.0055012040180955355,0.7494509516837482
1563,0.005506241750712839,0.7494509516837482
1564,0.005506241750712839,0.7499084919472914
1565,0.005511279483330142,0.7499084919472914
1566,0.005511279483330142,0.7500915080527086
1567,0.005526392681182053,0.7500915080527086
1568,0.005526392681182053,0.7504575402635432
1569,0.005546543611651268,0.7504575402635432
1570,0.005546543611651268,0.7505490483162518
1571,0.005551581344268572,0.7505490483162518
1572,0.005551581344268572,0.7507320644216691
1573,0.005561656809503179,0.7507320644216691
1574,0.005561656809503179,0.7509150805270863
1575,0.005571732274737786,0.7509150805270863
1576,0.005571732274737786,0.7510065885797951
1577,0.00557677000735509,0.7510065885797951
1578,0.00557677000735509,0.751281112737921
1579,0.0055818077399723935,0.751281112737921
1580,0.0055818077399723935,0.7514641288433382
1581,0.0055868454725896965,0.7514641288433382
1582,0.0055868454725896965,0.7518301610541728
1583,0.0055918832052070004,0.7518301610541728
1584,0.0055918832052070004,0.7519216691068814
1585,0.005601958670441607,0.7519216691068814
1586,0.005601958670441607,0.7525622254758418
1587,0.005627147333528126,0.7525622254758418
1588,0.005627147333528126,0.7526537335285505
1589,0.005632185066145429,0.7526537335285505
1590,0.005632185066145429,0.7527452415812591
1591,0.005642260531380037,0.7527452415812591
1592,0.005642260531380037,0.753294289897511
1593,0.00564729826399734,0.753294289897511
1594,0.00564729826399734,0.7533857979502196
1595,0.005652335996614644,0.7533857979502196
1596,0.005652335996614644,0.7537518301610542
1597,0.005667449194466555,0.7537518301610542
1598,0.005667449194466555,0.7539348462664714
1599,0.0056775246597011615,0.7539348462664714
1600,0.0056775246597011615,0.7542093704245973
1601,0.00570271332278768,0.7542093704245973
1602,0.00570271332278768,0.7543923865300146
1603,0.005712788788022287,0.7543923865300146
1604,0.005712788788022287,0.7544838945827232
1605,0.005727901985874198,0.7544838945827232
1606,0.005727901985874198,0.7548499267935578
1607,0.005732939718491501,0.7548499267935578
1608,0.005732939718491501,0.7549414348462665
1609,0.005737977451108805,0.7549414348462665
1610,0.005737977451108805,0.7550329428989752
1611,0.005748052916343412,0.7550329428989752
1612,0.005748052916343412,0.7551244509516838
1613,0.005753090648960716,0.7551244509516838
1614,0.005753090648960716,0.7554904831625183
1615,0.005763166114195323,0.7554904831625183
1616,0.005763166114195323,0.7557650073206442
1617,0.0057682038468126265,0.7557650073206442
1618,0.0057682038468126265,0.7558565153733529
1619,0.00577324157942993,0.7558565153733529
1620,0.00577324157942993,0.7559480234260615
1621,0.005778279312047233,0.7559480234260615
1622,0.005778279312047233,0.7562225475841874
1623,0.005793392509899144,0.7562225475841874
1624,0.005793392509899144,0.7566800878477306
1625,0.005803467975133752,0.7566800878477306
1626,0.005803467975133752,0.7570461200585652
1627,0.005813543440368359,0.7570461200585652
1628,0.005813543440368359,0.7571376281112738
1629,0.005818581172985663,0.7571376281112738
1630,0.005818581172985663,0.7572291361639825
1631,0.00582865663822027,0.7572291361639825
1632,0.00582865663822027,0.7574121522693997
1633,0.005833694370837574,0.7574121522693997
1634,0.005833694370837574,0.757595168374817
1635,0.005838732103454877,0.757595168374817
1636,0.005838732103454877,0.7577781844802343
1637,0.0058488075686894845,0.7577781844802343
1638,0.0058488075686894845,0.7579612005856515
1639,0.0058538453013067876,0.7579612005856515
1640,0.0058538453013067876,0.7580527086383602
1641,0.005863920766541395,0.7580527086383602
1642,0.005863920766541395,0.7581442166910688
1643,0.005889109429627913,0.7581442166910688
1644,0.005889109429627913,0.7582357247437774
1645,0.005894147162245217,0.7582357247437774
1646,0.005894147162245217,0.7583272327964861
1647,0.00589918489486252,0.7583272327964861
1648,0.00589918489486252,0.7584187408491947
1649,0.005909260360097128,0.7584187408491947
1650,0.005909260360097128,0.7585102489019033
1651,0.005919335825331735,0.7585102489019033
1652,0.005919335825331735,0.7586932650073206
1653,0.0059394867558009495,0.7586932650073206
1654,0.0059394867558009495,0.758876281112738
1655,0.0059445244884182525,0.758876281112738
1656,0.0059445244884182525,0.7590592972181552
1657,0.00595459995365286,0.7590592972181552
1658,0.00595459995365286,0.7592423133235725
1659,0.005964675418887467,0.7592423133235725
1660,0.005964675418887467,0.7593338213762811
1661,0.005979788616739378,0.7593338213762811
1662,0.005979788616739378,0.7594253294289898
1663,0.005984826349356681,0.7594253294289898
1664,0.005984826349356681,0.759608345534407
1665,0.005999939547208592,0.759608345534407
1666,0.005999939547208592,0.7596998535871157
1667,0.006004977279825896,0.7596998535871157
1668,0.006004977279825896,0.7597913616398243
1669,0.0060352036755297175,0.7597913616398243
1670,0.0060352036755297175,0.7598828696925329
1671,0.006040241408147021,0.7598828696925329
1672,0.006040241408147021,0.7602489019033675
1673,0.006045279140764324,0.7602489019033675
1674,0.006045279140764324,0.760614934114202
1675,0.006050316873381628,0.760614934114202
1676,0.006050316873381628,0.7609809663250366
1677,0.006055354605998932,0.7609809663250366
1678,0.006055354605998932,0.7610724743777453
1679,0.006060392338616235,0.7610724743777453
1680,0.006060392338616235,0.7612554904831625
1681,0.006065430071233539,0.7612554904831625
1682,0.006065430071233539,0.7613469985358712
1683,0.006070467803850843,0.7613469985358712
1684,0.006070467803850843,0.7615300146412884
1685,0.006085581001702754,0.7615300146412884
1686,0.006085581001702754,0.7619875549048316
1687,0.006090618734320057,0.7619875549048316
1688,0.006090618734320057,0.7621705710102489
1689,0.006105731932171968,0.7621705710102489
1690,0.006105731932171968,0.7623535871156661
1691,0.006110769664789272,0.7623535871156661
1692,0.006110769664789272,0.7625366032210834
1693,0.0061158073974065755,0.7625366032210834
1694,0.0061158073974065755,0.7627196193265008
1695,0.006120845130023879,0.7627196193265008
1696,0.006120845130023879,0.7628111273792094
1697,0.006135958327875789,0.7628111273792094
1698,0.006135958327875789,0.762902635431918
1699,0.006156109258345004,0.762902635431918
1700,0.006156109258345004,0.7629941434846267
1701,0.006161146990962308,0.7629941434846267
1702,0.006161146990962308,0.7630856515373353
1703,0.006166184723579611,0.7630856515373353
1704,0.006166184723579611,0.7635431918008785
1705,0.006176260188814219,0.7635431918008785
1706,0.006176260188814219,0.7636346998535871
1707,0.006181297921431522,0.7636346998535871
1708,0.006181297921431522,0.7638177159590044
1709,0.00619137338666613,0.7638177159590044
1710,0.00619137338666613,0.7640922401171303
1711,0.006196411119283433,0.7640922401171303
1712,0.006196411119283433,0.7641837481698389
1713,0.006201448851900737,0.7641837481698389
1714,0.006201448851900737,0.7642752562225475
1715,0.0062064865845180405,0.7642752562225475
1716,0.0062064865845180405,0.7643667642752562
1717,0.006221599782369951,0.7643667642752562
1718,0.006221599782369951,0.7645497803806734
1719,0.006241750712839165,0.7645497803806734
1720,0.006241750712839165,0.7647327964860908
1721,0.006256863910691076,0.7647327964860908
1722,0.006256863910691076,0.7649158125915081
1723,0.00626190164330838,0.7649158125915081
1724,0.00626190164330838,0.7650073206442167
1725,0.006271977108542987,0.7650073206442167
1726,0.006271977108542987,0.7650988286969254
1727,0.006287090306394898,0.7650988286969254
1728,0.006287090306394898,0.765190336749634
1729,0.006292128039012202,0.765190336749634
1730,0.006292128039012202,0.7654648609077599
1731,0.0063022035042468085,0.7654648609077599
1732,0.0063022035042468085,0.7656478770131772
1733,0.00633242989995063,0.7656478770131772
1734,0.00633242989995063,0.7657393850658858
1735,0.006337467632567934,0.7657393850658858
1736,0.006337467632567934,0.7658308931185944
1737,0.006342505365185237,0.7658308931185944
1738,0.006342505365185237,0.7661054172767203
1739,0.006362656295654452,0.7661054172767203
1740,0.006362656295654452,0.7662884333821376
1741,0.006372731760889059,0.7662884333821376
1742,0.006372731760889059,0.7664714494875549
1743,0.00638784495874097,0.7664714494875549
1744,0.00638784495874097,0.7667459736456809
1745,0.006407995889210184,0.7667459736456809
1746,0.006407995889210184,0.7668374816983895
1747,0.006418071354444791,0.7668374816983895
1748,0.006418071354444791,0.7669289897510981
1749,0.006423109087062095,0.7669289897510981
1750,0.006423109087062095,0.7673865300146413
1751,0.006428146819679399,0.7673865300146413
1752,0.006428146819679399,0.7674780380673499
1753,0.006433184552296702,0.7674780380673499
1754,0.006433184552296702,0.7676610541727672
1755,0.00644326001753131,0.7676610541727672
1756,0.00644326001753131,0.7677525622254758
1757,0.006453335482765917,0.7677525622254758
1758,0.006453335482765917,0.7679355783308931
1759,0.006458373215383221,0.7679355783308931
1760,0.006458373215383221,0.768210102489019
1761,0.0064734864132351315,0.768210102489019
1762,0.0064734864132351315,0.7683016105417276
1763,0.0064835618784697385,0.7683016105417276
1764,0.0064835618784697385,0.7683931185944363
1765,0.006488599611087042,0.7683931185944363
1766,0.006488599611087042,0.7684846266471449
1767,0.006493637343704345,0.7684846266471449
1768,0.006493637343704345,0.7685761346998536
1769,0.006498675076321649,0.7685761346998536
1770,0.006498675076321649,0.7689421669106882
1771,0.006508750541556256,0.7689421669106882
1772,0.006508750541556256,0.7690336749633968
1773,0.00651378827417356,0.7690336749633968
1774,0.00651378827417356,0.7693081991215227
1775,0.006528901472025471,0.7693081991215227
1776,0.006528901472025471,0.7693997071742313
1777,0.006533939204642774,0.7693997071742313
1778,0.006533939204642774,0.76949121522694
1779,0.006538976937260078,0.76949121522694
1780,0.006538976937260078,0.7695827232796486
1781,0.006544014669877382,0.7695827232796486
1782,0.006544014669877382,0.7697657393850659
1783,0.006564165600346596,0.7697657393850659
1784,0.006564165600346596,0.7698572474377745
1785,0.0065792787981985065,0.7698572474377745
1786,0.0065792787981985065,0.7699487554904831
1787,0.00658431653081581,0.7699487554904831
1788,0.00658431653081581,0.7700402635431918
1789,0.006609505193902328,0.7700402635431918
1790,0.006609505193902328,0.7701317715959004
1791,0.006614542926519632,0.7701317715959004
1792,0.006614542926519632,0.7703147877013177
1793,0.006624618391754239,0.7703147877013177
1794,0.006624618391754239,0.7704062957540263
1795,0.006629656124371543,0.7704062957540263
1796,0.006629656124371543,0.7705893118594437
1797,0.006654844787458061,0.7705893118594437
1798,0.006654844787458061,0.7706808199121523
1799,0.006664920252692668,0.7706808199121523
1800,0.006664920252692668,0.770772327964861
1801,0.006669957985309971,0.770772327964861
1802,0.006669957985309971,0.7708638360175696
1803,0.006680033450544579,0.7708638360175696
1804,0.006680033450544579,0.7709553440702782
1805,0.006690108915779186,0.7709553440702782
1806,0.006690108915779186,0.7710468521229868
1807,0.006705222113631097,0.7710468521229868
1808,0.006705222113631097,0.7711383601756955
1809,0.006710259846248401,0.7711383601756955
1810,0.006710259846248401,0.7712298682284041
1811,0.006715297578865704,0.7712298682284041
1812,0.006715297578865704,0.7714128843338214
1813,0.006720335311483008,0.7714128843338214
1814,0.006720335311483008,0.7715959004392386
1815,0.006730410776717615,0.7715959004392386
1816,0.006730410776717615,0.7716874084919473
1817,0.0067404862419522225,0.7716874084919473
1818,0.0067404862419522225,0.7717789165446559
1819,0.0067505617071868295,0.7717789165446559
1820,0.0067505617071868295,0.7718704245973645
1821,0.006755599439804133,0.7718704245973645
1822,0.006755599439804133,0.7719619326500732
1823,0.00676567490503874,0.7719619326500732
1824,0.00676567490503874,0.7720534407027818
1825,0.006770712637656044,0.7720534407027818
1826,0.006770712637656044,0.7721449487554904
1827,0.006775750370273347,0.7721449487554904
1828,0.006775750370273347,0.7722364568081991
1829,0.006790863568125258,0.7722364568081991
1830,0.006790863568125258,0.7724194729136163
1831,0.006800939033359865,0.7724194729136163
1832,0.006800939033359865,0.7726024890190337
1833,0.006805976765977169,0.7726024890190337
1834,0.006805976765977169,0.7728770131771596
1835,0.00682108996382908,0.7728770131771596
1836,0.00682108996382908,0.7730600292825769
1837,0.006826127696446384,0.7730600292825769
1838,0.006826127696446384,0.7733345534407028
1839,0.006831165429063687,0.7733345534407028
1840,0.006831165429063687,0.7734260614934114
1841,0.0068362031616809905,0.7734260614934114
1842,0.0068362031616809905,0.7739751098096632
1843,0.0068462786269155975,0.7739751098096632
1844,0.0068462786269155975,0.7740666178623719
1845,0.006861391824767508,0.7740666178623719
1846,0.006861391824767508,0.7742496339677891
1847,0.006876505022619419,0.7742496339677891
1848,0.006876505022619419,0.7743411420204978
1849,0.006906731418323241,0.7743411420204978
1850,0.006906731418323241,0.7745241581259151
1851,0.006911769150940545,0.7745241581259151
1852,0.006911769150940545,0.7748901903367497
1853,0.006921844616175152,0.7748901903367497
1854,0.006921844616175152,0.7750732064421669
1855,0.0069268823487924555,0.7750732064421669
1856,0.0069268823487924555,0.7753477306002928
1857,0.006931920081409759,0.7753477306002928
1858,0.006931920081409759,0.7754392386530015
1859,0.0069369578140270624,0.7754392386530015
1860,0.0069369578140270624,0.7755307467057101
1861,0.006962146477113581,0.7755307467057101
1862,0.006962146477113581,0.7756222547584187
1863,0.006967184209730884,0.7756222547584187
1864,0.006967184209730884,0.7757137628111274
1865,0.006977259674965492,0.7757137628111274
1866,0.006977259674965492,0.7761713030746705
1867,0.007012523803286617,0.7761713030746705
1868,0.007012523803286617,0.7762628111273792
1869,0.007022599268521224,0.7762628111273792
1870,0.007022599268521224,0.7763543191800878
1871,0.007032674733755831,0.7763543191800878
1872,0.007032674733755831,0.7764458272327965
1873,0.007042750198990438,0.7764458272327965
1874,0.007042750198990438,0.7765373352855052
1875,0.007057863396842349,0.7765373352855052
1876,0.007057863396842349,0.7766288433382138
1877,0.007062901129459653,0.7766288433382138
1878,0.007062901129459653,0.7768118594436311
1879,0.00707297659469426,0.7768118594436311
1880,0.00707297659469426,0.7769033674963397
1881,0.0071132784556326885,0.7769033674963397
1882,0.0071132784556326885,0.7769948755490483
1883,0.007128391653484599,0.7769948755490483
1884,0.007128391653484599,0.7771778916544656
1885,0.007138467118719207,0.7771778916544656
1886,0.007138467118719207,0.7772693997071742
1887,0.007148542583953814,0.7772693997071742
1888,0.007148542583953814,0.7775439238653001
1889,0.007153580316571118,0.7775439238653001
1890,0.007153580316571118,0.7776354319180088
1891,0.007158618049188421,0.7776354319180088
1892,0.007158618049188421,0.7779099560761347
1893,0.007163655781805725,0.7779099560761347
1894,0.007163655781805725,0.7784590043923866
1895,0.007173731247040332,0.7784590043923866
1896,0.007173731247040332,0.7786420204978038
1897,0.00718380671227494,0.7786420204978038
1898,0.00718380671227494,0.7788250366032211
1899,0.007188844444892243,0.7788250366032211
1900,0.007188844444892243,0.7789165446559297
1901,0.0071938821775095465,0.7789165446559297
1902,0.0071938821775095465,0.7792825768667643
1903,0.007239221771065279,0.7792825768667643
1904,0.007239221771065279,0.7794655929721815
1905,0.007244259503682583,0.7794655929721815
1906,0.007244259503682583,0.7795571010248902
1907,0.00725433496891719,0.7795571010248902
1908,0.00725433496891719,0.7797401171303074
1909,0.007259372701534494,0.7797401171303074
1910,0.007259372701534494,0.7798316251830161
1911,0.007269448166769101,0.7798316251830161
1912,0.007269448166769101,0.7799231332357247
1913,0.007279523632003708,0.7799231332357247
1914,0.007279523632003708,0.7800146412884333
1915,0.007299674562472922,0.7800146412884333
1916,0.007299674562472922,0.780106149341142
1917,0.007309750027707529,0.780106149341142
1918,0.007309750027707529,0.7802891654465594
1919,0.007314787760324833,0.7802891654465594
1920,0.007314787760324833,0.780380673499268
1921,0.007319825492942136,0.780380673499268
1922,0.007319825492942136,0.7804721815519766
1923,0.007329900958176744,0.7804721815519766
1924,0.007329900958176744,0.7806551976573939
1925,0.007345014156028655,0.7806551976573939
1926,0.007345014156028655,0.7809297218155198
1927,0.007350051888645958,0.7809297218155198
1928,0.007350051888645958,0.7812042459736457
1929,0.007365165086497869,0.7812042459736457
1930,0.007365165086497869,0.7814787701317716
1931,0.007390353749584387,0.7814787701317716
1932,0.007390353749584387,0.7816617862371888
1933,0.007400429214818994,0.7816617862371888
1934,0.007400429214818994,0.7818448023426061
1935,0.007425617877905512,0.7818448023426061
1936,0.007425617877905512,0.7819363103953147
1937,0.00743569334314012,0.7819363103953147
1938,0.00743569334314012,0.782393850658858
1939,0.007475995204078548,0.782393850658858
1940,0.007475995204078548,0.7824853587115667
1941,0.007481032936695852,0.7824853587115667
1942,0.007481032936695852,0.7826683748169839
1943,0.007496146134547763,0.7826683748169839
1944,0.007496146134547763,0.7827598828696926
1945,0.00750622159978237,0.7827598828696926
1946,0.00750622159978237,0.7828513909224012
1947,0.007541485728103496,0.7828513909224012
1948,0.007541485728103496,0.7830344070278185
1949,0.007546523460720799,0.7830344070278185
1950,0.007546523460720799,0.7832174231332357
1951,0.007556598925955406,0.7832174231332357
1952,0.007556598925955406,0.7833089311859444
1953,0.007566674391190013,0.7833089311859444
1954,0.007566674391190013,0.783400439238653
1955,0.007571712123807317,0.783400439238653
1956,0.007571712123807317,0.7834919472913616
1957,0.007581787589041924,0.7834919472913616
1958,0.007581787589041924,0.7836749633967789
1959,0.007596900786893835,0.7836749633967789
1960,0.007596900786893835,0.7837664714494875
1961,0.007601938519511138,0.7837664714494875
1962,0.007601938519511138,0.7839494875549048
1963,0.007617051717363049,0.7839494875549048
1964,0.007617051717363049,0.7842240117130308
1965,0.007627127182597657,0.7842240117130308
1966,0.007627127182597657,0.7844070278184481
1967,0.00763216491521496,0.7844070278184481
1968,0.00763216491521496,0.7845900439238653
1969,0.007637202647832264,0.7845900439238653
1970,0.007637202647832264,0.7847730600292826
1971,0.0076422403804495675,0.7847730600292826
1972,0.0076422403804495675,0.7848645680819912
1973,0.007657353578301478,0.7848645680819912
1974,0.007657353578301478,0.7849560761346999
1975,0.007667429043536085,0.7849560761346999
1976,0.007667429043536085,0.7850475841874085
1977,0.007672466776153389,0.7850475841874085
1978,0.007672466776153389,0.7851390922401171
1979,0.007682542241387996,0.7851390922401171
1980,0.007682542241387996,0.7853221083455344
1981,0.007707730904474514,0.7853221083455344
1982,0.007707730904474514,0.7855051244509517
1983,0.007712768637091818,0.7855051244509517
1984,0.007712768637091818,0.7855966325036603
1985,0.007717806369709122,0.7855966325036603
1986,0.007717806369709122,0.7856881405563689
1987,0.007722844102326425,0.7856881405563689
1988,0.007722844102326425,0.7857796486090776
1989,0.0077379573001783355,0.7857796486090776
1990,0.0077379573001783355,0.7858711566617862
1991,0.007742995032795639,0.7858711566617862
1992,0.007742995032795639,0.7859626647144948
1993,0.007748032765412943,0.7859626647144948
1994,0.007748032765412943,0.786694729136164
1995,0.007753070498030246,0.786694729136164
1996,0.007753070498030246,0.7868777452415813
1997,0.007768183695882157,0.7868777452415813
1998,0.007768183695882157,0.7869692532942899
1999,0.007788334626351372,0.7869692532942899
2000,0.007788334626351372,0.7872437774524158
2001,0.007798410091585979,0.7872437774524158
2002,0.007798410091585979,0.7874267935578331
2003,0.007818561022055193,0.7874267935578331
2004,0.007818561022055193,0.7876098096632503
2005,0.007833674219907103,0.7876098096632503
2006,0.007833674219907103,0.787701317715959
2007,0.007853825150376319,0.787701317715959
2008,0.007853825150376319,0.7879758418740849
2009,0.007858862882993622,0.7879758418740849
2010,0.007858862882993622,0.7880673499267935
2011,0.007914277941783962,0.7880673499267935
2012,0.007914277941783962,0.7885248901903368
2013,0.007919315674401265,0.7885248901903368
2014,0.007919315674401265,0.788707906295754
2015,0.007934428872253176,0.788707906295754
2016,0.007934428872253176,0.7887994143484627
2017,0.00793946660487048,0.7887994143484627
2018,0.00793946660487048,0.7890739385065886
2019,0.007944504337487784,0.7890739385065886
2020,0.007944504337487784,0.7891654465592972
2021,0.007949542070105087,0.7891654465592972
2022,0.007949542070105087,0.7893484626647145
2023,0.007969693000574301,0.7893484626647145
2024,0.007969693000574301,0.7894399707174231
2025,0.00799488166366082,0.7894399707174231
2026,0.00799488166366082,0.789714494875549
2027,0.008004957128895427,0.789714494875549
2028,0.008004957128895427,0.7898975109809663
2029,0.008020070326747338,0.7898975109809663
2030,0.008020070326747338,0.7899890190336749
2031,0.008025108059364641,0.7899890190336749
2032,0.008025108059364641,0.7900805270863837
2033,0.008030145791981944,0.7900805270863837
2034,0.008030145791981944,0.7902635431918009
2035,0.008035183524599249,0.7902635431918009
2036,0.008035183524599249,0.7903550512445096
2037,0.008045258989833855,0.7903550512445096
2038,0.008045258989833855,0.7904465592972182
2039,0.00805029672245116,0.7904465592972182
2040,0.00805029672245116,0.7905380673499268
2041,0.008060372187685766,0.7905380673499268
2042,0.008060372187685766,0.7906295754026355
2043,0.00806540992030307,0.7906295754026355
2044,0.00806540992030307,0.7909040995607614
2045,0.008075485385537677,0.7909040995607614
2046,0.008075485385537677,0.79099560761347
2047,0.008090598583389588,0.79099560761347
2048,0.008090598583389588,0.7911786237188873
2049,0.008130900444328017,0.7911786237188873
2050,0.008130900444328017,0.7914531478770132
2051,0.00813593817694532,0.7914531478770132
2052,0.00813593817694532,0.7916361639824304
2053,0.008140975909562625,0.7916361639824304
2054,0.008140975909562625,0.7918191800878477
2055,0.008161126840031839,0.7918191800878477
2056,0.008161126840031839,0.7919106881405563
2057,0.008181277770501053,0.7919106881405563
2058,0.008181277770501053,0.792276720351391
2059,0.008186315503118357,0.792276720351391
2060,0.008186315503118357,0.7923682284040996
2061,0.008216541898822179,0.7923682284040996
2062,0.008216541898822179,0.7924597364568082
2063,0.00823165509667409,0.7924597364568082
2064,0.00823165509667409,0.7925512445095169
2065,0.00826188149237791,0.7925512445095169
2066,0.00826188149237791,0.7926427525622255
2067,0.008271956957612518,0.7926427525622255
2068,0.008271956957612518,0.7927342606149341
2069,0.00827699469022982,0.7927342606149341
2070,0.00827699469022982,0.7929172767203514
2071,0.008297145620699036,0.7929172767203514
2072,0.008297145620699036,0.7931002928257687
2073,0.008307221085933642,0.7931002928257687
2074,0.008307221085933642,0.7931918008784773
2075,0.008312258818550947,0.7931918008784773
2076,0.008312258818550947,0.7932833089311859
2077,0.008322334283785553,0.7932833089311859
2078,0.008322334283785553,0.7935578330893118
2079,0.008327372016402858,0.7935578330893118
2080,0.008327372016402858,0.7936493411420205
2081,0.008342485214254769,0.7936493411420205
2082,0.008342485214254769,0.7938323572474377
2083,0.008347522946872072,0.7938323572474377
2084,0.008347522946872072,0.7939238653001464
2085,0.008352560679489375,0.7939238653001464
2086,0.008352560679489375,0.7940153733528551
2087,0.00835759841210668,0.7940153733528551
2088,0.00835759841210668,0.7945644216691069
2089,0.008367673877341286,0.7945644216691069
2090,0.008367673877341286,0.7946559297218155
2091,0.00837271160995859,0.7946559297218155
2092,0.00837271160995859,0.7947474377745242
2093,0.008382787075193196,0.7947474377745242
2094,0.008382787075193196,0.7949304538799414
2095,0.008387824807810501,0.7949304538799414
2096,0.008387824807810501,0.7950219619326501
2097,0.008392862540427804,0.7950219619326501
2098,0.008392862540427804,0.7951134699853587
2099,0.008402938005662412,0.7951134699853587
2100,0.008402938005662412,0.7952049780380673
2101,0.008418051203514323,0.7952049780380673
2102,0.008418051203514323,0.7953879941434846
2103,0.008428126668748929,0.7953879941434846
2104,0.008428126668748929,0.7954795021961932
2105,0.00844323986660084,0.7954795021961932
2106,0.00844323986660084,0.7955710102489019
2107,0.008448277599218144,0.7955710102489019
2108,0.008448277599218144,0.7956625183016105
2109,0.008453315331835447,0.7956625183016105
2110,0.008453315331835447,0.7957540263543191
2111,0.00845835306445275,0.7957540263543191
2112,0.00845835306445275,0.7959370424597365
2113,0.008488579460156572,0.7959370424597365
2114,0.008488579460156572,0.7960285505124451
2115,0.00849865492539118,0.7960285505124451
2116,0.00849865492539118,0.7961200585651538
2117,0.00851376812324309,0.7961200585651538
2118,0.00851376812324309,0.796303074670571
2119,0.008523843588477699,0.796303074670571
2120,0.008523843588477699,0.7964860907759883
2121,0.00853895678632961,0.7964860907759883
2122,0.00853895678632961,0.7969436310395315
2123,0.008549032251564215,0.7969436310395315
2124,0.008549032251564215,0.7970351390922401
2125,0.008564145449416126,0.7970351390922401
2126,0.008564145449416126,0.7974011713030746
2127,0.008569183182033431,0.7974011713030746
2128,0.008569183182033431,0.7974926793557833
2129,0.008609485042971859,0.7974926793557833
2130,0.008609485042971859,0.7976756954612005
2131,0.008614522775589164,0.7976756954612005
2132,0.008614522775589164,0.7978587115666179
2133,0.00862459824082377,0.7978587115666179
2134,0.00862459824082377,0.7979502196193266
2135,0.008644749171292985,0.7979502196193266
2136,0.008644749171292985,0.7980417276720352
2137,0.008649786903910288,0.7980417276720352
2138,0.008649786903910288,0.7981332357247438
2139,0.008664900101762199,0.7981332357247438
2140,0.008664900101762199,0.7982247437774525
2141,0.00868001329961411,0.7982247437774525
2142,0.00868001329961411,0.7984077598828697
2143,0.008685051032231413,0.7984077598828697
2144,0.008685051032231413,0.7984992679355783
2145,0.00869512649746602,0.7984992679355783
2146,0.00869512649746602,0.798590775988287
2147,0.008705201962700629,0.798590775988287
2148,0.008705201962700629,0.7986822840409956
2149,0.008730390625787145,0.7986822840409956
2150,0.008730390625787145,0.7987737920937042
2151,0.00873542835840445,0.7987737920937042
2152,0.00873542835840445,0.7988653001464129
2153,0.008755579288873664,0.7988653001464129
2154,0.008755579288873664,0.7989568081991215
2155,0.008780767951960181,0.7989568081991215
2156,0.008780767951960181,0.7991398243045388
2157,0.008785805684577486,0.7991398243045388
2158,0.008785805684577486,0.7992313323572474
2159,0.008790843417194789,0.7992313323572474
2160,0.008790843417194789,0.7995058565153733
2161,0.008795881149812092,0.7995058565153733
2162,0.008795881149812092,0.799597364568082
2163,0.00882106981289861,0.799597364568082
2164,0.00882106981289861,0.7996888726207906
2165,0.008831145278133218,0.7996888726207906
2166,0.008831145278133218,0.7997803806734992
2167,0.008846258475985129,0.7997803806734992
2168,0.008846258475985129,0.799871888726208
2169,0.00886137167383704,0.799871888726208
2170,0.00886137167383704,0.7999633967789166
2171,0.008866409406454343,0.7999633967789166
2172,0.008866409406454343,0.8001464128843339
2173,0.00887648487168895,0.8001464128843339
2174,0.00887648487168895,0.8005124450951684
2175,0.008881522604306254,0.8005124450951684
2176,0.008881522604306254,0.800603953147877
2177,0.008891598069540861,0.800603953147877
2178,0.008891598069540861,0.8006954612005857
2179,0.008901673534775468,0.8006954612005857
2180,0.008901673534775468,0.8007869692532943
2181,0.008921824465244683,0.8007869692532943
2182,0.008921824465244683,0.8008784773060029
2183,0.008926862197861986,0.8008784773060029
2184,0.008926862197861986,0.8010614934114202
2185,0.008936937663096594,0.8010614934114202
2186,0.008936937663096594,0.8011530014641288
2187,0.008941975395713897,0.8011530014641288
2188,0.008941975395713897,0.8013360175695461
2189,0.008952050860948505,0.8013360175695461
2190,0.008952050860948505,0.801610541727672
2191,0.008967164058800416,0.801610541727672
2192,0.008967164058800416,0.8017020497803806
2193,0.008972201791417719,0.8017020497803806
2194,0.008972201791417719,0.8017935578330894
2195,0.008982277256652326,0.8017935578330894
2196,0.008982277256652326,0.801885065885798
2197,0.00898731498926963,0.801885065885798
2198,0.00898731498926963,0.8020680819912153
2199,0.008992352721886933,0.8020680819912153
2200,0.008992352721886933,0.8021595900439239
2201,0.008997390454504237,0.8021595900439239
2202,0.008997390454504237,0.8022510980966325
2203,0.00900242818712154,0.8022510980966325
2204,0.00900242818712154,0.8023426061493412
2205,0.009007465919738843,0.8023426061493412
2206,0.009007465919738843,0.8025256222547584
2207,0.009017541384973451,0.8025256222547584
2208,0.009017541384973451,0.8026171303074671
2209,0.009037692315442665,0.8026171303074671
2210,0.009037692315442665,0.802891654465593
2211,0.009067918711146487,0.802891654465593
2212,0.009067918711146487,0.8029831625183016
2213,0.009072956443763791,0.8029831625183016
2214,0.009072956443763791,0.8030746705710102
2215,0.009093107374233005,0.8030746705710102
2216,0.009093107374233005,0.8031661786237189
2217,0.009103182839467613,0.8031661786237189
2218,0.009103182839467613,0.8033491947291361
2219,0.009108220572084916,0.8033491947291361
2220,0.009108220572084916,0.8034407027818448
2221,0.00914348470040604,0.8034407027818448
2222,0.00914348470040604,0.803623718887262
2223,0.009163635630875256,0.803623718887262
2224,0.009163635630875256,0.8037152269399708
2225,0.00916867336349256,0.8037152269399708
2226,0.00916867336349256,0.8038067349926794
2227,0.009178748828727167,0.8038067349926794
2228,0.009178748828727167,0.803898243045388
2229,0.00918378656134447,0.803898243045388
2230,0.00918378656134447,0.8039897510980967
2231,0.009188824293961773,0.8039897510980967
2232,0.009188824293961773,0.8041727672035139
2233,0.009198899759196381,0.8041727672035139
2234,0.009198899759196381,0.8042642752562226
2235,0.0092240884222829,0.8042642752562226
2236,0.0092240884222829,0.8043557833089312
2237,0.009244239352752114,0.8043557833089312
2238,0.009244239352752114,0.8044472913616398
2239,0.009264390283221327,0.8044472913616398
2240,0.009264390283221327,0.8045387994143485
2241,0.009274465748455935,0.8045387994143485
2242,0.009274465748455935,0.8046303074670571
2243,0.009294616678925149,0.8046303074670571
2244,0.009294616678925149,0.8048133235724744
2245,0.009304692144159757,0.8048133235724744
2246,0.009304692144159757,0.8050878477306003
2247,0.009314767609394363,0.8050878477306003
2248,0.009314767609394363,0.8051793557833089
2249,0.009319805342011668,0.8051793557833089
2250,0.009319805342011668,0.8054538799414348
2251,0.009360107202950095,0.8054538799414348
2252,0.009360107202950095,0.8055453879941434
2253,0.0093651449355674,0.8055453879941434
2254,0.0093651449355674,0.8056368960468521
2255,0.009370182668184703,0.8056368960468521
2256,0.009370182668184703,0.8060029282576867
2257,0.009385295866036614,0.8060029282576867
2258,0.009385295866036614,0.8060944363103953
2259,0.009390333598653917,0.8060944363103953
2260,0.009390333598653917,0.806185944363104
2261,0.009405446796505828,0.806185944363104
2262,0.009405446796505828,0.8062774524158126
2263,0.009410484529123133,0.8062774524158126
2264,0.009410484529123133,0.8063689604685212
2265,0.009415522261740436,0.8063689604685212
2266,0.009415522261740436,0.8064604685212299
2267,0.009420559994357739,0.8064604685212299
2268,0.009420559994357739,0.8065519765739385
2269,0.009425597726975043,0.8065519765739385
2270,0.009425597726975043,0.8067349926793558
2271,0.009445748657444257,0.8067349926793558
2272,0.009445748657444257,0.8068265007320644
2273,0.00945078639006156,0.8068265007320644
2274,0.00945078639006156,0.8070095168374817
2275,0.009460861855296168,0.8070095168374817
2276,0.009460861855296168,0.8071010248901903
2277,0.009465899587913471,0.8071010248901903
2278,0.009465899587913471,0.8071925329428989
2279,0.009470937320530776,0.8071925329428989
2280,0.009470937320530776,0.8073755490483162
2281,0.009496125983617293,0.8073755490483162
2282,0.009496125983617293,0.8075585651537335
2283,0.0095062014488519,0.8075585651537335
2284,0.0095062014488519,0.8080161054172768
2285,0.009541465577173025,0.8080161054172768
2286,0.009541465577173025,0.8081076134699854
2287,0.00954650330979033,0.8081076134699854
2288,0.00954650330979033,0.808199121522694
2289,0.009556578775024936,0.808199121522694
2290,0.009556578775024936,0.8083821376281113
2291,0.009561616507642241,0.8083821376281113
2292,0.009561616507642241,0.8084736456808199
2293,0.009566654240259544,0.8084736456808199
2294,0.009566654240259544,0.8086566617862372
2295,0.009571691972876847,0.8086566617862372
2296,0.009571691972876847,0.8087481698389458
2297,0.009586805170728758,0.8087481698389458
2298,0.009586805170728758,0.8088396778916545
2299,0.009601918368580669,0.8088396778916545
2300,0.009601918368580669,0.8089311859443631
2301,0.009606956101197973,0.8089311859443631
2302,0.009606956101197973,0.809205710102489
2303,0.009622069299049884,0.809205710102489
2304,0.009622069299049884,0.8098462664714495
2305,0.009627107031667187,0.8098462664714495
2306,0.009627107031667187,0.8100292825768668
2307,0.00963214476428449,0.8100292825768668
2308,0.00963214476428449,0.8101207906295754
2309,0.009647257962136401,0.8101207906295754
2310,0.009647257962136401,0.8103038067349927
2311,0.009667408892605617,0.8103038067349927
2312,0.009667408892605617,0.81048682284041
2313,0.009677484357840223,0.81048682284041
2314,0.009677484357840223,0.8106698389458272
2315,0.009717786218778652,0.8106698389458272
2316,0.009717786218778652,0.8107613469985359
2317,0.009732899416630563,0.8107613469985359
2318,0.009732899416630563,0.8108528550512445
2319,0.009737937149247866,0.8108528550512445
2320,0.009737937149247866,0.8110358711566618
2321,0.009748012614482474,0.8110358711566618
2322,0.009748012614482474,0.8111273792093704
2323,0.009768163544951688,0.8111273792093704
2324,0.009768163544951688,0.811218887262079
2325,0.009773201277568993,0.811218887262079
2326,0.009773201277568993,0.8114934114202049
2327,0.009778239010186296,0.8114934114202049
2328,0.009778239010186296,0.8115849194729137
2329,0.009793352208038206,0.8115849194729137
2330,0.009793352208038206,0.8116764275256223
2331,0.009808465405890117,0.8116764275256223
2332,0.009808465405890117,0.8117679355783309
2333,0.009823578603742028,0.8117679355783309
2334,0.009823578603742028,0.8118594436310396
2335,0.009843729534211242,0.8118594436310396
2336,0.009843729534211242,0.8119509516837482
2337,0.00986891819729776,0.8119509516837482
2338,0.00986891819729776,0.8120424597364568
2339,0.009873955929915064,0.8120424597364568
2340,0.009873955929915064,0.8121339677891655
2341,0.009884031395149671,0.8121339677891655
2342,0.009884031395149671,0.8124084919472914
2343,0.009889069127766974,0.8124084919472914
2344,0.009889069127766974,0.8125
2345,0.009894106860384277,0.8125
2346,0.009894106860384277,0.8127745241581259
2347,0.009899144593001582,0.8127745241581259
2348,0.009899144593001582,0.8128660322108345
2349,0.009904182325618885,0.8128660322108345
2350,0.009904182325618885,0.8129575402635432
2351,0.009929370988705404,0.8129575402635432
2352,0.009929370988705404,0.8130490483162518
2353,0.009934408721322707,0.8130490483162518
2354,0.009934408721322707,0.8133235724743777
2355,0.009974710582261136,0.8133235724743777
2356,0.009974710582261136,0.8134150805270863
2357,0.00999486151273035,0.8134150805270863
2358,0.00999486151273035,0.8135065885797951
2359,0.010070427501989904,0.8135065885797951
2360,0.010070427501989904,0.8138726207906296
2361,0.010075465234607207,0.8138726207906296
2362,0.010075465234607207,0.8139641288433382
2363,0.010080502967224512,0.8139641288433382
2364,0.010080502967224512,0.8140556368960469
2365,0.010115767095545637,0.8140556368960469
2366,0.010115767095545637,0.8141471449487555
2367,0.01013591802601485,0.8141471449487555
2368,0.01013591802601485,0.8144216691068814
2369,0.010140955758632155,0.8144216691068814
2370,0.010140955758632155,0.8148792093704246
2371,0.01016110668910137,0.8148792093704246
2372,0.01016110668910137,0.8150622254758418
2373,0.010166144421718672,0.8150622254758418
2374,0.010166144421718672,0.8151537335285505
2375,0.01017621988695328,0.8151537335285505
2376,0.01017621988695328,0.8152452415812591
2377,0.010206446282657102,0.8152452415812591
2378,0.010206446282657102,0.8154282576866764
2379,0.010226597213126316,0.8154282576866764
2380,0.010226597213126316,0.8156112737920937
2381,0.010292087737151264,0.8156112737920937
2382,0.010292087737151264,0.8157027818448024
2383,0.010307200935003175,0.8157027818448024
2384,0.010307200935003175,0.815794289897511
2385,0.01031727640023778,0.815794289897511
2386,0.01031727640023778,0.8159773060029283
2387,0.010322314132855085,0.8159773060029283
2388,0.010322314132855085,0.8160688140556369
2389,0.010337427330706996,0.8160688140556369
2390,0.010337427330706996,0.8161603221083455
2391,0.010352540528558907,0.8161603221083455
2392,0.010352540528558907,0.8162518301610542
2393,0.010372691459028121,0.8162518301610542
2394,0.010372691459028121,0.8164348462664714
2395,0.010418031052583853,0.8164348462664714
2396,0.010418031052583853,0.8165263543191801
2397,0.010433144250435764,0.8165263543191801
2398,0.010433144250435764,0.8166178623718887
2399,0.010448257448287675,0.8166178623718887
2400,0.010448257448287675,0.8167093704245973
2401,0.010458332913522281,0.8167093704245973
2402,0.010458332913522281,0.816800878477306
2403,0.010493597041843408,0.816800878477306
2404,0.010493597041843408,0.8168923865300146
2405,0.01049863477446071,0.8168923865300146
2406,0.01049863477446071,0.8169838945827232
2407,0.010518785704929924,0.8169838945827232
2408,0.010518785704929924,0.8170754026354319
2409,0.01052382343754723,0.8170754026354319
2410,0.01052382343754723,0.8171669106881405
2411,0.010528861170164532,0.8171669106881405
2412,0.010528861170164532,0.8172584187408491
2413,0.010533898902781835,0.8172584187408491
2414,0.010533898902781835,0.8173499267935578
2415,0.01053893663539914,0.8173499267935578
2416,0.01053893663539914,0.8175329428989752
2417,0.010564125298485657,0.8175329428989752
2418,0.010564125298485657,0.8176244509516838
2419,0.010574200763720265,0.8176244509516838
2420,0.010574200763720265,0.8177159590043924
2421,0.010589313961572176,0.8177159590043924
2422,0.010589313961572176,0.8178989751098097
2423,0.010599389426806783,0.8178989751098097
2424,0.010599389426806783,0.8179904831625183
2425,0.010604427159424086,0.8179904831625183
2426,0.010604427159424086,0.818081991215227
2427,0.0106245780898933,0.818081991215227
2428,0.0106245780898933,0.8182650073206442
2429,0.010629615822510605,0.8182650073206442
2430,0.010629615822510605,0.8184480234260615
2431,0.010674955416066337,0.8184480234260615
2432,0.010674955416066337,0.8186310395314788
2433,0.01070518181177016,0.8186310395314788
2434,0.01070518181177016,0.8187225475841874
2435,0.010740445940091284,0.8187225475841874
2436,0.010740445940091284,0.818814055636896
2437,0.010745483672708587,0.818814055636896
2438,0.010745483672708587,0.8189970717423133
2439,0.010755559137943195,0.8189970717423133
2440,0.010755559137943195,0.8191800878477306
2441,0.010816011929350838,0.8191800878477306
2442,0.010816011929350838,0.8192715959004392
2443,0.010831125127202749,0.8192715959004392
2444,0.010831125127202749,0.8193631039531479
2445,0.010851276057671963,0.8193631039531479
2446,0.010851276057671963,0.8196376281112738
2447,0.010856313790289267,0.8196376281112738
2448,0.010856313790289267,0.8199121522693997
2449,0.01086135152290657,0.8199121522693997
2450,0.01086135152290657,0.8200036603221084
2451,0.010876464720758481,0.8200036603221084
2452,0.010876464720758481,0.8201866764275256
2453,0.010926842046931517,0.8201866764275256
2454,0.010926842046931517,0.8205527086383602
2455,0.01093187977954882,0.8205527086383602
2456,0.01093187977954882,0.8206442166910688
2457,0.010936917512166125,0.8206442166910688
2458,0.010936917512166125,0.8209187408491947
2459,0.010962106175252641,0.8209187408491947
2460,0.010962106175252641,0.8210102489019033
2461,0.01097218164048725,0.8210102489019033
2462,0.01097218164048725,0.8214677891654466
2463,0.010977219373104552,0.8214677891654466
2464,0.010977219373104552,0.8217423133235725
2465,0.010982257105721857,0.8217423133235725
2466,0.010982257105721857,0.8218338213762811
2467,0.01098729483833916,0.8218338213762811
2468,0.01098729483833916,0.8219253294289898
2469,0.011002408036191071,0.8219253294289898
2470,0.011002408036191071,0.822108345534407
2471,0.011007445768808374,0.822108345534407
2472,0.011007445768808374,0.8222913616398243
2473,0.011017521234042982,0.8222913616398243
2474,0.011017521234042982,0.8223828696925329
2475,0.011077974025450625,0.8223828696925329
2476,0.011077974025450625,0.8224743777452416
2477,0.011088049490685233,0.8224743777452416
2478,0.011088049490685233,0.8225658857979502
2479,0.011103162688537144,0.8225658857979502
2480,0.011103162688537144,0.8226573938506588
2481,0.011118275886389055,0.8226573938506588
2482,0.011118275886389055,0.8230234260614934
2483,0.01112835135162366,0.8230234260614934
2484,0.01112835135162366,0.823114934114202
2485,0.011133389084240965,0.823114934114202
2486,0.011133389084240965,0.8232064421669106
2487,0.011163615479944787,0.8232064421669106
2488,0.011163615479944787,0.8234809663250366
2489,0.011178728677796698,0.8234809663250366
2490,0.011178728677796698,0.8235724743777453
2491,0.011183766410414001,0.8235724743777453
2492,0.011183766410414001,0.8236639824304539
2493,0.011188804143031304,0.8236639824304539
2494,0.011188804143031304,0.8237554904831625
2495,0.011239181469204341,0.8237554904831625
2496,0.011239181469204341,0.8238469985358712
2497,0.011254294667056252,0.8238469985358712
2498,0.011254294667056252,0.8239385065885798
2499,0.011274445597525466,0.8239385065885798
2500,0.011274445597525466,0.8240300146412884
2501,0.011279483330142769,0.8240300146412884
2502,0.011279483330142769,0.8243045387994143
2503,0.01130970972584659,0.8243045387994143
2504,0.01130970972584659,0.824396046852123
2505,0.011329860656315806,0.824396046852123
2506,0.011329860656315806,0.8244875549048316
2507,0.011339936121550412,0.8244875549048316
2508,0.011339936121550412,0.8245790629575402
2509,0.01135001158678502,0.8245790629575402
2510,0.01135001158678502,0.8246705710102489
2511,0.011355049319402323,0.8246705710102489
2512,0.011355049319402323,0.8247620790629575
2513,0.011360087052019628,0.8247620790629575
2514,0.011360087052019628,0.8248535871156661
2515,0.01136512478463693,0.8248535871156661
2516,0.01136512478463693,0.8250366032210834
2517,0.011370162517254234,0.8250366032210834
2518,0.011370162517254234,0.825128111273792
2519,0.011420539843427271,0.825128111273792
2520,0.011420539843427271,0.8252196193265008
2521,0.011425577576044574,0.8253111273792094
2522,0.011440690773896485,0.8253111273792094
2523,0.011440690773896485,0.8254941434846267
2524,0.011465879436983002,0.8254941434846267
2525,0.011465879436983002,0.8255856515373353
2526,0.011470917169600307,0.8255856515373353
2527,0.011470917169600307,0.825677159590044
2528,0.011480992634834913,0.825677159590044
2529,0.011480992634834913,0.8257686676427526
2530,0.011486030367452217,0.8257686676427526
2531,0.011486030367452217,0.8258601756954612
2532,0.011511219030538734,0.8258601756954612
2533,0.011511219030538734,0.8260431918008785
2534,0.011521294495773342,0.8260431918008785
2535,0.011521294495773342,0.8261346998535871
2536,0.01153136996100795,0.8261346998535871
2537,0.01153136996100795,0.826409224011713
2538,0.011541445426242556,0.826409224011713
2539,0.011541445426242556,0.8265922401171303
2540,0.01154648315885986,0.8265922401171303
2541,0.01154648315885986,0.8267752562225475
2542,0.011556558624094467,0.8267752562225475
2543,0.011556558624094467,0.8268667642752562
2544,0.011576709554563682,0.8268667642752562
2545,0.011576709554563682,0.8269582723279648
2546,0.011581747287180985,0.8269582723279648
2547,0.011581747287180985,0.8271412884333821
2548,0.011622049148119415,0.8271412884333821
2549,0.011622049148119415,0.8272327964860908
2550,0.011627086880736718,0.8272327964860908
2551,0.011627086880736718,0.8274158125915081
2552,0.011637162345971326,0.8274158125915081
2553,0.011637162345971326,0.8275988286969254
2554,0.011647237811205932,0.8275988286969254
2555,0.011647237811205932,0.827690336749634
2556,0.011667388741675147,0.827690336749634
2557,0.011667388741675147,0.8281478770131772
2558,0.01171272833523088,0.8281478770131772
2559,0.01171272833523088,0.8283308931185944
2560,0.011732879265700094,0.8283308931185944
2561,0.011732879265700094,0.8284224011713031
2562,0.011737916998317397,0.8284224011713031
2563,0.011737916998317397,0.8286054172767203
2564,0.011742954730934702,0.8286054172767203
2565,0.011742954730934702,0.8287884333821376
2566,0.011768143394021218,0.8287884333821376
2567,0.011768143394021218,0.8288799414348462
2568,0.011773181126638523,0.8288799414348462
2569,0.011773181126638523,0.8289714494875549
2570,0.01178325659187313,0.8289714494875549
2571,0.01178325659187313,0.8291544655929722
2572,0.011808445254959648,0.8291544655929722
2573,0.011808445254959648,0.8293374816983895
2574,0.01183867165066347,0.8293374816983895
2575,0.01183867165066347,0.8294289897510981
2576,0.011863860313749988,0.8294289897510981
2577,0.011863860313749988,0.8295204978038068
2578,0.011868898046367291,0.8295204978038068
2579,0.011868898046367291,0.8296120058565154
2580,0.011878973511601899,0.8296120058565154
2581,0.011878973511601899,0.829703513909224
2582,0.011904162174688416,0.829703513909224
2583,0.011904162174688416,0.8298865300146413
2584,0.011929350837774935,0.8298865300146413
2585,0.011929350837774935,0.8299780380673499
2586,0.011934388570392238,0.8299780380673499
2587,0.011934388570392238,0.8300695461200586
2588,0.011949501768244148,0.8300695461200586
2589,0.011949501768244148,0.8301610541727672
2590,0.011954539500861453,0.8301610541727672
2591,0.011954539500861453,0.8302525622254758
2592,0.011974690431330667,0.8302525622254758
2593,0.011974690431330667,0.8303440702781845
2594,0.012004916827034489,0.8303440702781845
2595,0.012004916827034489,0.8305270863836017
2596,0.012025067757503703,0.8305270863836017
2597,0.012025067757503703,0.8306185944363104
2598,0.012055294153207524,0.8306185944363104
2599,0.012055294153207524,0.830710102489019
2600,0.012060331885824827,0.830710102489019
2601,0.012060331885824827,0.8308016105417276
2602,0.012075445083676738,0.8308016105417276
2603,0.012075445083676738,0.8308931185944363
2604,0.012130860142467078,0.8308931185944363
2605,0.012130860142467078,0.8309846266471449
2606,0.012135897875084381,0.8309846266471449
2607,0.012135897875084381,0.8311676427525623
2608,0.01214597334031899,0.8311676427525623
2609,0.01214597334031899,0.8312591508052709
2610,0.012156048805553597,0.8312591508052709
2611,0.012156048805553597,0.8314421669106882
2612,0.012171162003405508,0.8314421669106882
2613,0.012171162003405508,0.8315336749633968
2614,0.012191312933874722,0.8315336749633968
2615,0.012191312933874722,0.8317166910688141
2616,0.012211463864343935,0.8317166910688141
2617,0.012211463864343935,0.8318081991215227
2618,0.01221650159696124,0.8318081991215227
2619,0.01221650159696124,0.8318997071742313
2620,0.012236652527430454,0.8318997071742313
2621,0.012236652527430454,0.8323572474377745
2622,0.012241690260047757,0.8323572474377745
2623,0.012241690260047757,0.8324487554904831
2624,0.012246727992665062,0.8324487554904831
2625,0.012246727992665062,0.8326317715959004
2626,0.012251765725282365,0.8326317715959004
2627,0.012251765725282365,0.8328147877013177
2628,0.012266878923134276,0.8328147877013177
2629,0.012266878923134276,0.8329062957540263
2630,0.012292067586220794,0.8329062957540263
2631,0.012292067586220794,0.8331808199121523
2632,0.012317256249307311,0.8331808199121523
2633,0.012317256249307311,0.8333638360175696
2634,0.012322293981924616,0.8333638360175696
2635,0.012322293981924616,0.8334553440702782
2636,0.012327331714541919,0.8334553440702782
2637,0.012327331714541919,0.8335468521229868
2638,0.012332369447159222,0.8335468521229868
2639,0.012332369447159222,0.8336383601756955
2640,0.012372671308097652,0.8336383601756955
2641,0.012372671308097652,0.8337298682284041
2642,0.01238274677333226,0.8337298682284041
2643,0.01238274677333226,0.8338213762811127
2644,0.012402897703801473,0.8338213762811127
2645,0.012402897703801473,0.8339128843338214
2646,0.012418010901653384,0.8339128843338214
2647,0.012418010901653384,0.8341874084919473
2648,0.012423048634270687,0.8341874084919473
2649,0.012423048634270687,0.8343704245973645
2650,0.012433124099505295,0.8343704245973645
2651,0.012433124099505295,0.8344619326500732
2652,0.012488539158295633,0.8344619326500732
2653,0.012488539158295633,0.8345534407027818
2654,0.012498614623530241,0.8345534407027818
2655,0.012498614623530241,0.8346449487554904
2656,0.012508690088764849,0.8346449487554904
2657,0.012508690088764849,0.8347364568081991
2658,0.01253891648446867,0.8347364568081991
2659,0.01253891648446867,0.8348279648609077
2660,0.012548991949703277,0.8348279648609077
2661,0.012548991949703277,0.8349194729136163
2662,0.01259433154325901,0.8349194729136163
2663,0.01259433154325901,0.8351024890190337
2664,0.012604407008493617,0.8351024890190337
2665,0.012604407008493617,0.8351939970717424
2666,0.012619520206345528,0.8351939970717424
2667,0.012619520206345528,0.835285505124451
2668,0.012624557938962831,0.835285505124451
2669,0.012624557938962831,0.8353770131771596
2670,0.012634633404197439,0.8353770131771596
2671,0.012634633404197439,0.8354685212298683
2672,0.012690048462987779,0.8354685212298683
2673,0.012690048462987779,0.8356515373352855
2674,0.012695086195605082,0.8356515373352855
2675,0.012695086195605082,0.8357430453879942
2676,0.012710199393456993,0.8357430453879942
2677,0.012710199393456993,0.8358345534407028
