,fpr,tpr
0,0.0,0.0
1,0.0,0.00018301610541727673
2,0.0,0.04666910688140556
3,5.037732617303604e-06,0.04666910688140556
4,5.037732617303604e-06,0.06240849194729136
5,5.037732617303604e-06,0.06259150805270863
6,5.037732617303604e-06,0.07174231332357248
7,5.037732617303604e-06,0.07192532942898976
8,5.037732617303604e-06,0.0763177159590044
9,5.037732617303604e-06,0.07650073206442166
10,5.037732617303604e-06,0.07942898975109809
11,1.0075465234607208e-05,0.07942898975109809
12,1.0075465234607208e-05,0.09580893118594436
13,1.0075465234607208e-05,0.09599194729136164
14,1.0075465234607208e-05,0.12316983894582724
15,1.5113197851910811e-05,0.12316983894582724
16,1.5113197851910811e-05,0.12399341142020498
17,1.5113197851910811e-05,0.12417642752562226
18,1.5113197851910811e-05,0.12701317715959004
19,2.0150930469214415e-05,0.12701317715959004
20,2.0150930469214415e-05,0.13369326500732065
21,2.0150930469214415e-05,0.13387628111273792
22,2.0150930469214415e-05,0.1402818448023426
23,2.0150930469214415e-05,0.1404648609077599
24,2.0150930469214415e-05,0.15730234260614934
25,2.0150930469214415e-05,0.15748535871156663
26,2.0150930469214415e-05,0.1803623718887262
27,2.518866308651802e-05,0.1803623718887262
28,2.518866308651802e-05,0.2154099560761347
29,3.0226395703821623e-05,0.2154099560761347
30,3.0226395703821623e-05,0.2397510980966325
31,3.526412832112523e-05,0.2397510980966325
32,3.526412832112523e-05,0.2433199121522694
33,4.030186093842883e-05,0.2433199121522694
34,4.030186093842883e-05,0.2581442166910688
35,4.533959355573244e-05,0.2581442166910688
36,4.533959355573244e-05,0.2716874084919473
37,5.037732617303604e-05,0.2716874084919473
38,5.037732617303604e-05,0.27296852122986826
39,5.5415058790339646e-05,0.27296852122986826
40,5.5415058790339646e-05,0.28083821376281115
41,6.549052402494685e-05,0.28083821376281115
42,6.549052402494685e-05,0.2929172767203514
43,7.052825664225046e-05,0.2929172767203514
44,7.052825664225046e-05,0.3010614934114202
45,7.556598925955406e-05,0.3010614934114202
46,7.556598925955406e-05,0.30188506588579794
47,7.556598925955406e-05,0.3020680819912152
48,7.556598925955406e-05,0.30316617862371886
49,8.060372187685766e-05,0.30316617862371886
50,8.060372187685766e-05,0.3232979502196193
51,8.564145449416126e-05,0.3232979502196193
52,8.564145449416126e-05,0.33290629575402636
53,9.067918711146488e-05,0.33290629575402636
54,9.067918711146488e-05,0.33857979502196195
55,9.571691972876848e-05,0.33857979502196195
56,9.571691972876848e-05,0.3444363103953148
57,0.00010075465234607208,0.3444363103953148
58,0.00010075465234607208,0.348188140556369
59,0.00010579238496337569,0.348188140556369
60,0.00010579238496337569,0.3497437774524158
61,0.00010579238496337569,0.34992679355783307
62,0.00011586785019798289,0.34992679355783307
63,0.00011586785019798289,0.3510248901903367
64,0.00012090558281528649,0.3510248901903367
65,0.00012090558281528649,0.3523060029282577
66,0.0001259433154325901,0.3523060029282577
67,0.0001259433154325901,0.35248901903367497
68,0.0001309810480498937,0.35248901903367497
69,0.0001309810480498937,0.3530380673499268
70,0.00013601878066719732,0.3530380673499268
71,0.00013601878066719732,0.36063323572474376
72,0.00014105651328450092,0.36063323572474376
73,0.00014105651328450092,0.36676427525622257
74,0.00014609424590180452,0.36676427525622257
75,0.00014609424590180452,0.3695095168374817
76,0.00015113197851910812,0.3695095168374817
77,0.00015113197851910812,0.37225475841874084
78,0.00015616971113641172,0.37225475841874084
79,0.00015616971113641172,0.3759150805270864
80,0.00016120744375371532,0.3759150805270864
81,0.00016120744375371532,0.37747071742313326
82,0.00016624517637101892,0.37747071742313326
83,0.00016624517637101892,0.38012445095168373
84,0.00017128290898832252,0.38012445095168373
85,0.00017128290898832252,0.381588579795022
86,0.00017632064160562615,0.381588579795022
87,0.00017632064160562615,0.383601756954612
88,0.00018135837422292975,0.383601756954612
89,0.00018135837422292975,0.3845168374816984
90,0.00018639610684023335,0.3845168374816984
91,0.00018639610684023335,0.38561493411420206
92,0.00019143383945753695,0.38561493411420206
93,0.00019143383945753695,0.3857064421669107
94,0.00019647157207484055,0.3857064421669107
95,0.00019647157207484055,0.39037335285505126
96,0.00020150930469214415,0.39037335285505126
97,0.00020150930469214415,0.3916544655929722
98,0.00020654703730944775,0.3916544655929722
99,0.00020654703730944775,0.3921120058565154
100,0.00021158476992675138,0.3921120058565154
101,0.00021158476992675138,0.3929355783308931
102,0.00021662250254405498,0.3929355783308931
103,0.00021662250254405498,0.3983345534407028
104,0.00022166023516135858,0.3983345534407028
105,0.00022166023516135858,0.4006222547584187
106,0.00022669796777866218,0.4006222547584187
107,0.00022669796777866218,0.401811859443631
108,0.00023173570039596578,0.401811859443631
109,0.00023173570039596578,0.41087115666178625
110,0.00023677343301326938,0.41087115666178625
111,0.00023677343301326938,0.4158125915080527
112,0.00024181116563057298,0.4158125915080527
113,0.00024181116563057298,0.41599560761347
114,0.0002468488982478766,0.41599560761347
115,0.0002468488982478766,0.41736822840409954
116,0.0002518866308651802,0.41736822840409954
117,0.0002518866308651802,0.4189238653001464
118,0.0002569243634824838,0.4189238653001464
119,0.0002569243634824838,0.42542093704245976
120,0.0002619620960997874,0.42542093704245976
121,0.0002619620960997874,0.42688506588579794
122,0.000266999828717091,0.42688506588579794
123,0.000266999828717091,0.4270680819912152
124,0.00027203756133439464,0.4270680819912152
125,0.00027203756133439464,0.42972181551976574
126,0.0002770752939516982,0.42972181551976574
127,0.0002770752939516982,0.43237554904831627
128,0.00028211302656900184,0.43237554904831627
129,0.00028211302656900184,0.4342972181551977
130,0.0002871507591863054,0.4342972181551977
131,0.0002871507591863054,0.4351207906295754
132,0.00029218849180360904,0.4351207906295754
133,0.00029218849180360904,0.43923865300146414
134,0.0002972262244209126,0.43923865300146414
135,0.0002972262244209126,0.4406112737920937
136,0.00030226395703821624,0.4406112737920937
137,0.00030226395703821624,0.44271595900439237
138,0.0003073016896555198,0.44271595900439237
139,0.0003073016896555198,0.4465592972181552
140,0.00031233942227282344,0.4465592972181552
141,0.00031233942227282344,0.44683382137628114
142,0.00031737715489012707,0.44683382137628114
143,0.00031737715489012707,0.4479319180087848
144,0.00032241488750743065,0.4479319180087848
145,0.00032241488750743065,0.44903001464128844
146,0.00033249035274203785,0.44903001464128844
147,0.00033249035274203785,0.44930453879941434
148,0.0003375280853593415,0.44930453879941434
149,0.0003375280853593415,0.45021961932650073
150,0.00034256581797664505,0.45021961932650073
151,0.00034256581797664505,0.4523243045387994
152,0.0003476035505939487,0.4523243045387994
153,0.0003476035505939487,0.4529648609077599
154,0.0003526412832112523,0.4529648609077599
155,0.0003526412832112523,0.45479502196193267
156,0.0003576790158285559,0.45479502196193267
157,0.0003576790158285559,0.4563506588579795
158,0.0003627167484458595,0.4563506588579795
159,0.0003627167484458595,0.45653367496339675
160,0.0003677544810631631,0.45653367496339675
161,0.0003677544810631631,0.45790629575402636
162,0.0003727922136804667,0.45790629575402636
163,0.0003727922136804667,0.4596449487554905
164,0.0003828676789150739,0.4596449487554905
165,0.0003828676789150739,0.46028550512445093
166,0.00038790541153237753,0.46028550512445093
167,0.00038790541153237753,0.4609260614934114
168,0.0003929431441496811,0.4609260614934114
169,0.0003929431441496811,0.4637628111273792
170,0.00039798087676698473,0.4637628111273792
171,0.00039798087676698473,0.4670571010248902
172,0.0004030186093842883,0.4670571010248902
173,0.0004030186093842883,0.4671486090775988
174,0.0004130940746188955,0.4671486090775988
175,0.0004130940746188955,0.46788067349926793
176,0.00041813180723619913,0.46788067349926793
177,0.00041813180723619913,0.46961932650073207
178,0.00042316953985350276,0.46961932650073207
179,0.00042316953985350276,0.471907027818448
180,0.00042820727247080634,0.471907027818448
181,0.00042820727247080634,0.47300512445095166
182,0.00043324500508810996,0.47300512445095166
183,0.00043324500508810996,0.4743777452415813
184,0.00043828273770541354,0.4743777452415813
185,0.00043828273770541354,0.47556734992679356
186,0.00044332047032271716,0.47556734992679356
187,0.00044332047032271716,0.4756588579795022
188,0.00044835820294002074,0.4756588579795022
189,0.00044835820294002074,0.4814238653001464
190,0.00045339593555732436,0.4814238653001464
191,0.00045339593555732436,0.48535871156661786
192,0.00045843366817462794,0.48535871156661786
193,0.00045843366817462794,0.4863653001464129
194,0.00046347140079193157,0.4863653001464129
195,0.00046347140079193157,0.48700585651537337
196,0.0004685091334092352,0.48700585651537337
197,0.0004685091334092352,0.48755490483162517
198,0.00047354686602653877,0.48755490483162517
199,0.00047354686602653877,0.49249633967789164
200,0.0004785845986438424,0.49249633967789164
201,0.0004785845986438424,0.4958821376281113
202,0.00048362233126114597,0.4958821376281113
203,0.00048362233126114597,0.49862737920937045
204,0.0004886600638784495,0.49862737920937045
205,0.0004886600638784495,0.4987188872620791
206,0.0004936977964957532,0.4987188872620791
207,0.0004936977964957532,0.5000915080527086
208,0.0004987355291130568,0.5000915080527086
209,0.0004987355291130568,0.5015556368960469
210,0.0005037732617303604,0.5015556368960469
211,0.0005037732617303604,0.50201317715959
212,0.000508810994347664,0.50201317715959
213,0.000508810994347664,0.5021046852122987
214,0.0005138487269649676,0.5021046852122987
215,0.0005138487269649676,0.5022877013177159
216,0.0005188864595822712,0.5022877013177159
217,0.0005188864595822712,0.5026537335285505
218,0.0005239241921995748,0.5026537335285505
219,0.0005239241921995748,0.5041178623718887
220,0.0005289619248168785,0.5041178623718887
221,0.0005289619248168785,0.5043923865300146
222,0.000533999657434182,0.5043923865300146
223,0.000533999657434182,0.5045754026354319
224,0.0005390373900514856,0.5045754026354319
225,0.0005390373900514856,0.5074121522693997
226,0.0005440751226687893,0.5074121522693997
227,0.0005440751226687893,0.5097913616398243
228,0.0005491128552860929,0.5097913616398243
229,0.0005491128552860929,0.5138177159590044
230,0.0005541505879033964,0.5138177159590044
231,0.0005541505879033964,0.5146412884333821
232,0.0005642260531380037,0.5146412884333821
233,0.0005642260531380037,0.5148243045387995
234,0.0005692637857553073,0.5148243045387995
235,0.0005692637857553073,0.5149158125915081
236,0.0005743015183726108,0.5149158125915081
237,0.0005743015183726108,0.515190336749634
238,0.0005793392509899145,0.515190336749634
239,0.0005793392509899145,0.516196925329429
240,0.0005843769836072181,0.516196925329429
241,0.0005843769836072181,0.5165629575402635
242,0.0005894147162245217,0.5165629575402635
243,0.0005894147162245217,0.5190336749633968
244,0.0005944524488418252,0.5190336749633968
245,0.0005944524488418252,0.51949121522694
246,0.0005994901814591289,0.51949121522694
247,0.0005994901814591289,0.5204978038067349
248,0.0006045279140764325,0.5204978038067349
249,0.0006045279140764325,0.5206808199121523
250,0.0006095656466937361,0.5206808199121523
251,0.0006095656466937361,0.5228770131771596
252,0.0006196411119283433,0.5228770131771596
253,0.0006196411119283433,0.5231515373352855
254,0.0006246788445456469,0.5231515373352855
255,0.0006246788445456469,0.5232430453879942
256,0.0006297165771629505,0.5232430453879942
257,0.0006297165771629505,0.5233345534407028
258,0.0006347543097802541,0.5233345534407028
259,0.0006347543097802541,0.5237005856515373
260,0.0006397920423975577,0.5237005856515373
261,0.0006397920423975577,0.5238836017569546
262,0.0006448297750148613,0.5238836017569546
263,0.0006448297750148613,0.5239751098096632
264,0.0006498675076321649,0.5239751098096632
265,0.0006498675076321649,0.5243411420204978
266,0.0006549052402494685,0.5243411420204978
267,0.0006549052402494685,0.5244326500732065
268,0.0006649807054840757,0.5244326500732065
269,0.0006649807054840757,0.5245241581259151
270,0.0006700184381013794,0.5245241581259151
271,0.0006700184381013794,0.5250732064421669
272,0.000675056170718683,0.5250732064421669
273,0.000675056170718683,0.5257137628111274
274,0.0006800939033359865,0.5257137628111274
275,0.0006800939033359865,0.527086383601757
276,0.0006901693685705938,0.527086383601757
277,0.0006901693685705938,0.5272693997071742
278,0.0007002448338052009,0.5272693997071742
279,0.0007002448338052009,0.5276354319180088
280,0.0007103202990398082,0.5276354319180088
281,0.0007103202990398082,0.5282759882869692
282,0.000725433496891719,0.5282759882869692
283,0.000725433496891719,0.5283674963396779
284,0.0007304712295090226,0.5283674963396779
285,0.0007304712295090226,0.5288250366032211
286,0.0007355089621263262,0.5288250366032211
287,0.0007355089621263262,0.529099560761347
288,0.0007405466947436298,0.529099560761347
289,0.0007405466947436298,0.5296486090775988
290,0.0007556598925955406,0.5296486090775988
291,0.0007556598925955406,0.5298316251830161
292,0.0007606976252128442,0.5298316251830161
293,0.0007606976252128442,0.531112737920937
294,0.0007657353578301478,0.531112737920937
295,0.0007657353578301478,0.5314787701317716
296,0.0007707730904474514,0.5314787701317716
297,0.0007707730904474514,0.532119326500732
298,0.0007758108230647551,0.532119326500732
299,0.0007758108230647551,0.532393850658858
300,0.0007909240209166658,0.532393850658858
301,0.0007909240209166658,0.5330344070278185
302,0.0007959617535339695,0.5330344070278185
303,0.0007959617535339695,0.5332174231332357
304,0.000800999486151273,0.5332174231332357
305,0.000800999486151273,0.5350475841874085
306,0.0008060372187685766,0.5350475841874085
307,0.0008060372187685766,0.5364202049780381
308,0.0008110749513858803,0.5364202049780381
309,0.0008110749513858803,0.5365117130307467
310,0.0008211504166204874,0.5365117130307467
311,0.0008211504166204874,0.537701317715959
312,0.000826188149237791,0.537701317715959
313,0.000826188149237791,0.5383418740849195
314,0.0008312258818550947,0.5383418740849195
315,0.0008312258818550947,0.539714494875549
316,0.0008362636144723983,0.539714494875549
317,0.0008362636144723983,0.5408125915080527
318,0.0008413013470897018,0.5408125915080527
319,0.0008413013470897018,0.5410871156661786
320,0.0008463390797070055,0.5410871156661786
321,0.0008463390797070055,0.5415446559297218
322,0.0008513768123243091,0.5415446559297218
323,0.0008513768123243091,0.5427342606149341
324,0.0008564145449416127,0.5427342606149341
325,0.0008564145449416127,0.54300878477306
326,0.0008614522775589162,0.54300878477306
327,0.0008614522775589162,0.5431002928257687
328,0.0008664900101762199,0.5431002928257687
329,0.0008664900101762199,0.5441983894582724
330,0.0008715277427935235,0.5441983894582724
331,0.0008715277427935235,0.5443814055636896
332,0.0008765654754108271,0.5443814055636896
333,0.0008765654754108271,0.5449304538799414
334,0.0008816032080281306,0.5449304538799414
335,0.0008816032080281306,0.545296486090776
336,0.0008916786732627379,0.545296486090776
337,0.0008916786732627379,0.5453879941434846
338,0.0008967164058800415,0.5453879941434846
339,0.0008967164058800415,0.546303074670571
340,0.0009017541384973452,0.546303074670571
341,0.0009017541384973452,0.5463945827232797
342,0.0009067918711146487,0.5463945827232797
343,0.0009067918711146487,0.5464860907759883
344,0.0009118296037319523,0.5464860907759883
345,0.0009118296037319523,0.5468521229868228
346,0.0009168673363492559,0.5468521229868228
347,0.0009168673363492559,0.5470351390922401
348,0.0009219050689665596,0.5470351390922401
349,0.0009219050689665596,0.5474926793557833
350,0.0009269428015838631,0.5474926793557833
351,0.0009269428015838631,0.549322840409956
352,0.0009370182668184704,0.549322840409956
353,0.0009370182668184704,0.550603953147877
354,0.000942055999435774,0.550603953147877
355,0.000942055999435774,0.5506954612005857
356,0.0009470937320530775,0.5506954612005857
357,0.0009470937320530775,0.551885065885798
358,0.0009622069299049884,0.551885065885798
359,0.0009622069299049884,0.5527086383601757
360,0.0009672446625222919,0.5527086383601757
361,0.0009672446625222919,0.5535322108345534
362,0.000977320127756899,0.5535322108345534
363,0.000977320127756899,0.553898243045388
364,0.0009823578603742028,0.553898243045388
365,0.0009823578603742028,0.5540812591508053
366,0.0009873955929915064,0.5540812591508053
367,0.0009873955929915064,0.5543557833089312
368,0.00099243332560881,0.5543557833089312
369,0.00099243332560881,0.5544472913616398
370,0.0010075465234607207,0.5544472913616398
371,0.0010075465234607207,0.5546303074670571
372,0.0010125842560780244,0.5546303074670571
373,0.0010125842560780244,0.5547218155197657
374,0.001017621988695328,0.5547218155197657
375,0.001017621988695328,0.554904831625183
376,0.0010226597213126316,0.554904831625183
377,0.0010226597213126316,0.5554538799414348
378,0.0010276974539299352,0.5554538799414348
379,0.0010276974539299352,0.5560029282576867
380,0.0010327351865472387,0.5560029282576867
381,0.0010327351865472387,0.5564604685212299
382,0.0010377729191645424,0.5564604685212299
383,0.0010377729191645424,0.5572840409956076
384,0.001042810651781846,0.5572840409956076
385,0.001042810651781846,0.5576500732064422
386,0.0010478483843991495,0.5576500732064422
387,0.0010478483843991495,0.5579245973645681
388,0.0010528861170164532,0.5579245973645681
389,0.0010528861170164532,0.5588396778916545
390,0.001057923849633757,0.5588396778916545
391,0.001057923849633757,0.5592972181551976
392,0.0010629615822510604,0.5592972181551976
393,0.0010629615822510604,0.5601207906295754
394,0.001067999314868364,0.5601207906295754
395,0.001067999314868364,0.5610358711566618
396,0.0010730370474856677,0.5610358711566618
397,0.0010730370474856677,0.5611273792093704
398,0.0010881502453375786,0.5611273792093704
399,0.0010881502453375786,0.561218887262079
400,0.001093187977954882,0.561218887262079
401,0.001093187977954882,0.5613103953147877
402,0.0010982257105721857,0.5613103953147877
403,0.0010982257105721857,0.5616764275256223
404,0.0011032634431894892,0.5616764275256223
405,0.0011032634431894892,0.5619509516837482
406,0.0011083011758067929,0.5619509516837482
407,0.0011083011758067929,0.5624084919472914
408,0.0011133389084240965,0.5624084919472914
409,0.0011133389084240965,0.5626830161054173
410,0.0011234143736587037,0.5626830161054173
411,0.0011234143736587037,0.5627745241581259
412,0.0011284521062760074,0.5627745241581259
413,0.0011284521062760074,0.5628660322108345
414,0.0011334898388933108,0.5628660322108345
415,0.0011334898388933108,0.5629575402635432
416,0.0011385275715106145,0.5629575402635432
417,0.0011385275715106145,0.5633235724743777
418,0.0011435653041279182,0.5633235724743777
419,0.0011435653041279182,0.5634150805270863
420,0.0011486030367452217,0.5634150805270863
421,0.0011486030367452217,0.5639641288433382
422,0.001158678501979829,0.5639641288433382
423,0.001158678501979829,0.5640556368960469
424,0.0011737916998317396,0.5640556368960469
425,0.0011737916998317396,0.5641471449487555
426,0.0011788294324490433,0.5641471449487555
427,0.0011788294324490433,0.5643301610541728
428,0.001183867165066347,0.5643301610541728
429,0.001183867165066347,0.5644216691068814
430,0.0011889048976836505,0.5644216691068814
431,0.0011889048976836505,0.5646961932650073
432,0.0011939426303009541,0.5646961932650073
433,0.0011939426303009541,0.5649707174231332
434,0.0011989803629182578,0.5649707174231332
435,0.0011989803629182578,0.5660688140556369
436,0.0012040180955355613,0.5660688140556369
437,0.0012040180955355613,0.5667093704245973
438,0.001209055828152865,0.5667093704245973
439,0.001209055828152865,0.5673499267935578
440,0.0012140935607701687,0.5673499267935578
441,0.0012140935607701687,0.5676244509516838
442,0.0012191312933874721,0.5676244509516838
443,0.0012191312933874721,0.568081991215227
444,0.001234244491239383,0.568081991215227
445,0.001234244491239383,0.5682650073206442
446,0.0012392822238566866,0.5682650073206442
447,0.0012392822238566866,0.5687225475841874
448,0.00124431995647399,0.5687225475841874
449,0.00124431995647399,0.5694546120058566
450,0.0012493576890912938,0.5694546120058566
451,0.0012493576890912938,0.5708272327964861
452,0.0012543954217085975,0.5708272327964861
453,0.0012543954217085975,0.5709187408491947
454,0.001259433154325901,0.5709187408491947
455,0.001259433154325901,0.5717423133235725
456,0.0012695086195605083,0.5717423133235725
457,0.0012695086195605083,0.5722913616398243
458,0.0012795840847951154,0.5722913616398243
459,0.0012795840847951154,0.5724743777452416
460,0.0012846218174124191,0.5724743777452416
461,0.0012846218174124191,0.5732979502196194
462,0.0012896595500297226,0.5732979502196194
463,0.0012896595500297226,0.5739385065885798
464,0.0012946972826470263,0.5739385065885798
465,0.0012946972826470263,0.5740300146412884
466,0.0012997350152643297,0.5740300146412884
467,0.0012997350152643297,0.5743045387994143
468,0.0013047727478816334,0.5743045387994143
469,0.0013047727478816334,0.5753111273792094
470,0.001309810480498937,0.5753111273792094
471,0.001309810480498937,0.5754941434846267
472,0.0013148482131162406,0.5754941434846267
473,0.0013148482131162406,0.5759516837481699
474,0.0013198859457335442,0.5759516837481699
475,0.0013198859457335442,0.5760431918008785
476,0.001324923678350848,0.5760431918008785
477,0.001324923678350848,0.576409224011713
478,0.0013299614109681514,0.576409224011713
479,0.0013299614109681514,0.5767752562225475
480,0.001334999143585455,0.5767752562225475
481,0.001334999143585455,0.5770497803806734
482,0.0013400368762027587,0.5770497803806734
483,0.0013400368762027587,0.5775988286969254
484,0.0013450746088200622,0.5775988286969254
485,0.0013450746088200622,0.5783308931185944
486,0.0013551500740546696,0.5783308931185944
487,0.0013551500740546696,0.578696925329429
488,0.001360187806671973,0.578696925329429
489,0.001360187806671973,0.5796120058565154
490,0.0013652255392892767,0.5796120058565154
491,0.0013652255392892767,0.5798865300146413
492,0.0013753010045238839,0.5798865300146413
493,0.0013753010045238839,0.5799780380673499
494,0.001385376469758491,0.5799780380673499
495,0.001385376469758491,0.5800695461200586
496,0.0013904142023757947,0.5800695461200586
497,0.0013904142023757947,0.5801610541727672
498,0.0013954519349930984,0.5801610541727672
499,0.0013954519349930984,0.5813506588579795
500,0.0014004896676104018,0.5813506588579795
501,0.0014004896676104018,0.5818997071742313
502,0.0014055274002277055,0.5818997071742313
503,0.0014055274002277055,0.5822657393850659
504,0.0014105651328450092,0.5822657393850659
505,0.0014105651328450092,0.5824487554904831
506,0.0014206405980796164,0.5824487554904831
507,0.0014206405980796164,0.5829062957540263
508,0.00142567833069692,0.5829062957540263
509,0.00142567833069692,0.5838213762811127
510,0.0014407915285488306,0.5838213762811127
511,0.0014407915285488306,0.5841874084919473
512,0.0014458292611661343,0.5841874084919473
513,0.0014458292611661343,0.5843704245973645
514,0.001450866993783438,0.5843704245973645
515,0.001450866993783438,0.585285505124451
516,0.0014559047264007415,0.585285505124451
517,0.0014559047264007415,0.5857430453879942
518,0.0014659801916353488,0.5857430453879942
519,0.0014659801916353488,0.5859260614934114
520,0.0014710179242526523,0.5859260614934114
521,0.0014710179242526523,0.58601756954612
522,0.001476055656869956,0.58601756954612
523,0.001476055656869956,0.5863836017569546
524,0.0014810933894872597,0.5863836017569546
525,0.0014810933894872597,0.5866581259150805
526,0.0014911688547218668,0.5866581259150805
527,0.0014911688547218668,0.5868411420204978
528,0.0014962065873391703,0.5868411420204978
529,0.0014962065873391703,0.5877562225475842
530,0.001501244319956474,0.5877562225475842
531,0.001501244319956474,0.5878477306002928
532,0.0015062820525737776,0.5878477306002928
533,0.0015062820525737776,0.5880307467057101
534,0.001511319785191081,0.5880307467057101
535,0.001511319785191081,0.588305270863836
536,0.0015163575178083848,0.588305270863836
537,0.0015163575178083848,0.5885797950219619
538,0.0015213952504256885,0.5885797950219619
539,0.0015213952504256885,0.5886713030746705
540,0.001526432983042992,0.5886713030746705
541,0.001526432983042992,0.5888543191800878
542,0.0015314707156602956,0.5888543191800878
543,0.0015314707156602956,0.5889458272327965
544,0.0015365084482775993,0.5889458272327965
545,0.0015365084482775993,0.5892203513909224
546,0.0015415461808949028,0.5892203513909224
547,0.0015415461808949028,0.5893118594436311
548,0.0015465839135122064,0.5893118594436311
549,0.0015465839135122064,0.5904099560761347
550,0.0015516216461295101,0.5904099560761347
551,0.0015516216461295101,0.5908674963396779
552,0.0015566593787468136,0.5908674963396779
553,0.0015566593787468136,0.5917825768667643
554,0.0015667348439814207,0.5917825768667643
555,0.0015667348439814207,0.5922401171303074
556,0.001576810309216028,0.5922401171303074
557,0.001576810309216028,0.5924231332357247
558,0.0015818480418333316,0.5924231332357247
559,0.0015818480418333316,0.5927891654465594
560,0.001591923507067939,0.5927891654465594
561,0.001591923507067939,0.5941617862371888
562,0.001601998972302546,0.5941617862371888
563,0.001601998972302546,0.5951683748169839
564,0.0016070367049198498,0.5951683748169839
565,0.0016070367049198498,0.5953513909224012
566,0.0016120744375371532,0.5953513909224012
567,0.0016120744375371532,0.5956259150805271
568,0.001617112170154457,0.5956259150805271
569,0.001617112170154457,0.595900439238653
570,0.0016221499027717606,0.595900439238653
571,0.0016221499027717606,0.5961749633967789
572,0.001627187635389064,0.5961749633967789
573,0.001627187635389064,0.5962664714494875
574,0.0016372631006236712,0.5962664714494875
575,0.0016372631006236712,0.5973645680819912
576,0.0016423008332409749,0.5973645680819912
577,0.0016423008332409749,0.5974560761346999
578,0.0016574140310928857,0.5974560761346999
579,0.0016574140310928857,0.5977306002928258
580,0.0016624517637101894,0.5977306002928258
581,0.0016624517637101894,0.597913616398243
582,0.0016674894963274929,0.597913616398243
583,0.0016674894963274929,0.5981881405563689
584,0.0016775649615621002,0.5981881405563689
585,0.0016775649615621002,0.5984626647144948
586,0.0016826026941794037,0.5984626647144948
587,0.0016826026941794037,0.5987371888726208
588,0.001692678159414011,0.5987371888726208
589,0.001692678159414011,0.5999267935578331
590,0.0016977158920313145,0.5999267935578331
591,0.0016977158920313145,0.6006588579795022
592,0.0017027536246486182,0.6006588579795022
593,0.0017027536246486182,0.6015739385065886
594,0.0017077913572659217,0.6015739385065886
595,0.0017077913572659217,0.6025805270863837
596,0.0017128290898832253,0.6025805270863837
597,0.0017128290898832253,0.6028550512445096
598,0.001717866822500529,0.6028550512445096
599,0.001717866822500529,0.6032210834553441
600,0.0017279422877351362,0.6032210834553441
601,0.0017279422877351362,0.6035871156661786
602,0.0017329800203524399,0.6035871156661786
603,0.0017329800203524399,0.6039531478770132
604,0.001743055485587047,0.6039531478770132
605,0.001743055485587047,0.6058748169838946
606,0.0017480932182043507,0.6058748169838946
607,0.0017480932182043507,0.6060578330893118
608,0.0017531309508216541,0.6060578330893118
609,0.0017531309508216541,0.6062408491947291
610,0.0017581686834389578,0.6062408491947291
611,0.0017581686834389578,0.6063323572474377
612,0.001768244148673565,0.6063323572474377
613,0.001768244148673565,0.6068814055636896
614,0.0017732818812908687,0.6068814055636896
615,0.0017732818812908687,0.6069729136163983
616,0.0017783196139081721,0.6069729136163983
617,0.0017783196139081721,0.6070644216691069
618,0.0017833573465254758,0.6070644216691069
619,0.0017833573465254758,0.6071559297218155
620,0.0017883950791427795,0.6071559297218155
621,0.0017883950791427795,0.6074304538799414
622,0.001793432811760083,0.6074304538799414
623,0.001793432811760083,0.6078879941434846
624,0.0017984705443773866,0.6078879941434846
625,0.0017984705443773866,0.6081625183016105
626,0.0018085460096119938,0.6081625183016105
627,0.0018085460096119938,0.6082540263543191
628,0.0018186214748466011,0.6082540263543191
629,0.0018186214748466011,0.6086200585651538
630,0.0018236592074639046,0.6086200585651538
631,0.0018236592074639046,0.6090775988286969
632,0.0018337346726985118,0.6090775988286969
633,0.0018337346726985118,0.6095351390922401
634,0.0018387724053158154,0.6095351390922401
635,0.0018387724053158154,0.6096266471449487
636,0.0018438101379331191,0.6096266471449487
637,0.0018438101379331191,0.609809663250366
638,0.0018488478705504226,0.609809663250366
639,0.0018488478705504226,0.6108162518301611
640,0.0018538856031677263,0.6108162518301611
641,0.0018538856031677263,0.6111822840409956
642,0.00185892333578503,0.6111822840409956
643,0.00185892333578503,0.6115483162518301
644,0.0018639610684023334,0.6115483162518301
645,0.0018639610684023334,0.611822840409956
646,0.0018740365336369408,0.611822840409956
647,0.0018740365336369408,0.6124633967789166
648,0.0018790742662542442,0.6124633967789166
649,0.0018790742662542442,0.6125549048316252
650,0.001884111998871548,0.6125549048316252
651,0.001884111998871548,0.6126464128843339
652,0.0018891497314888516,0.6126464128843339
653,0.0018891497314888516,0.6133784773060029
654,0.001894187464106155,0.6133784773060029
655,0.001894187464106155,0.6140190336749634
656,0.0019042629293407622,0.6140190336749634
657,0.0019042629293407622,0.614110541727672
658,0.0019143383945753696,0.614110541727672
659,0.0019143383945753696,0.6142020497803806
660,0.001919376127192673,0.6142020497803806
661,0.001919376127192673,0.6148426061493412
662,0.0019244138598099767,0.6148426061493412
663,0.0019244138598099767,0.6162152269399708
664,0.0019294515924272804,0.6162152269399708
665,0.0019294515924272804,0.616398243045388
666,0.0019395270576618876,0.616398243045388
667,0.0019395270576618876,0.6164897510980967
668,0.0019496025228964947,0.6164897510980967
669,0.0019496025228964947,0.6165812591508053
670,0.001954640255513798,0.6165812591508053
671,0.001954640255513798,0.6171303074670571
672,0.001959677988131102,0.6171303074670571
673,0.001959677988131102,0.617404831625183
674,0.0019647157207484055,0.617404831625183
675,0.0019647157207484055,0.6174963396778916
676,0.001969753453365709,0.6174963396778916
677,0.001969753453365709,0.6175878477306003
678,0.001974791185983013,0.6175878477306003
679,0.001974791185983013,0.6178623718887262
680,0.00198486665121762,0.6178623718887262
681,0.00198486665121762,0.6183199121522694
682,0.0019899043838349237,0.6183199121522694
683,0.0019899043838349237,0.6184114202049781
684,0.001994942116452227,0.6184114202049781
685,0.001994942116452227,0.6185029282576867
686,0.0019999798490695306,0.6185029282576867
687,0.0019999798490695306,0.6185944363103953
688,0.0020050175816868345,0.6185944363103953
689,0.0020050175816868345,0.6188689604685212
690,0.002010055314304138,0.6188689604685212
691,0.002010055314304138,0.6190519765739385
692,0.0020150930469214415,0.6190519765739385
693,0.0020150930469214415,0.6191434846266471
694,0.0020201307795387454,0.6191434846266471
695,0.0020201307795387454,0.6196010248901903
696,0.002025168512156049,0.6196010248901903
697,0.002025168512156049,0.6196925329428989
698,0.0020302062447733523,0.6196925329428989
699,0.0020302062447733523,0.6202415812591509
700,0.002035243977390656,0.6202415812591509
701,0.002035243977390656,0.6203330893118595
702,0.0020402817100079597,0.6203330893118595
703,0.0020402817100079597,0.6205161054172768
704,0.002045319442625263,0.6205161054172768
705,0.002045319442625263,0.6207906295754027
706,0.002060432640477174,0.6207906295754027
707,0.002060432640477174,0.6212481698389458
708,0.0020705081057117813,0.6212481698389458
709,0.0020705081057117813,0.6214311859443631
710,0.002075545838329085,0.6214311859443631
711,0.002075545838329085,0.6216142020497804
712,0.0020805835709463883,0.6216142020497804
713,0.0020805835709463883,0.6221632503660323
714,0.002085621303563692,0.6221632503660323
715,0.002085621303563692,0.6223462664714495
716,0.0020906590361809956,0.6223462664714495
717,0.0020906590361809956,0.6226207906295754
718,0.002095696768798299,0.6226207906295754
719,0.002095696768798299,0.6228953147877013
720,0.002100734501415603,0.6228953147877013
721,0.002100734501415603,0.6230783308931186
722,0.0021057722340329064,0.6230783308931186
723,0.0021057722340329064,0.6241764275256223
724,0.00211080996665021,0.6241764275256223
725,0.00211080996665021,0.6243594436310396
726,0.002115847699267514,0.6243594436310396
727,0.002115847699267514,0.6245424597364568
728,0.0021259231645021207,0.6245424597364568
729,0.0021259231645021207,0.6248169838945827
730,0.0021309608971194246,0.6248169838945827
731,0.0021309608971194246,0.6249084919472914
732,0.002135998629736728,0.6249084919472914
733,0.002135998629736728,0.6252745241581259
734,0.002151111827588639,0.6252745241581259
735,0.002151111827588639,0.6255490483162518
736,0.0021611872928232463,0.6255490483162518
737,0.0021611872928232463,0.6259150805270863
738,0.002176300490675157,0.6259150805270863
739,0.002176300490675157,0.6260065885797951
740,0.0021813382232924606,0.6260065885797951
741,0.0021813382232924606,0.6260980966325037
742,0.002191413688527068,0.6260980966325037
743,0.002191413688527068,0.6264641288433382
744,0.0021964514211443714,0.6264641288433382
745,0.0021964514211443714,0.6267386530014641
746,0.002201489153761675,0.6267386530014641
747,0.002201489153761675,0.6271046852122987
748,0.0022115646189962822,0.6271046852122987
749,0.0022115646189962822,0.6272877013177159
750,0.0022166023516135857,0.6272877013177159
751,0.0022166023516135857,0.6276537335285505
752,0.0022317155494654965,0.6276537335285505
753,0.0022317155494654965,0.6283857979502196
754,0.0022367532820828,0.6283857979502196
755,0.0022367532820828,0.6285688140556369
756,0.002241791014700104,0.6285688140556369
757,0.002241791014700104,0.6292093704245973
758,0.0022468287473174074,0.6292093704245973
759,0.0022468287473174074,0.6293923865300146
760,0.002251866479934711,0.6293923865300146
761,0.002251866479934711,0.6301244509516838
762,0.0022569042125520147,0.6301244509516838
763,0.0022569042125520147,0.6306734992679356
764,0.002261941945169318,0.6306734992679356
765,0.002261941945169318,0.6308565153733529
766,0.0022720174104039256,0.6308565153733529
767,0.0022720174104039256,0.6309480234260615
768,0.002277055143021229,0.6309480234260615
769,0.002277055143021229,0.6310395314787701
770,0.0022820928756385325,0.6310395314787701
771,0.0022820928756385325,0.6315885797950219
772,0.0022871306082558364,0.6315885797950219
773,0.0022871306082558364,0.6317715959004392
774,0.00229216834087314,0.6317715959004392
775,0.00229216834087314,0.6319546120058566
776,0.0022972060734904433,0.6319546120058566
777,0.0022972060734904433,0.6321376281112738
778,0.0023022438061077472,0.6321376281112738
779,0.0023022438061077472,0.6325036603221084
780,0.0023072815387250507,0.6325036603221084
781,0.0023072815387250507,0.6326866764275256
782,0.002317357003959658,0.6326866764275256
783,0.002317357003959658,0.6328696925329429
784,0.0023223947365769615,0.6328696925329429
785,0.0023223947365769615,0.6329612005856515
786,0.002327432469194265,0.6329612005856515
787,0.002327432469194265,0.6333272327964861
788,0.0023324702018115684,0.6333272327964861
789,0.0023324702018115684,0.633601756954612
790,0.0023375079344288723,0.633601756954612
791,0.0023375079344288723,0.6347913616398243
792,0.002342545667046176,0.6347913616398243
793,0.002342545667046176,0.6348828696925329
794,0.002352621132280783,0.6348828696925329
795,0.002352621132280783,0.6349743777452416
796,0.0023576588648980866,0.6349743777452416
797,0.0023576588648980866,0.6355234260614934
798,0.00236269659751539,0.6355234260614934
799,0.00236269659751539,0.6361639824304539
800,0.002367734330132694,0.6361639824304539
801,0.002367734330132694,0.6362554904831625
802,0.0023727720627499975,0.6362554904831625
803,0.0023727720627499975,0.6368045387994143
804,0.002377809795367301,0.6368045387994143
805,0.002377809795367301,0.6372620790629575
806,0.002382847527984605,0.6372620790629575
807,0.002382847527984605,0.6375366032210834
808,0.0023929229932192118,0.6375366032210834
809,0.0023929229932192118,0.637628111273792
810,0.0023979607258365157,0.637628111273792
811,0.0023979607258365157,0.637902635431918
812,0.002402998458453819,0.637902635431918
813,0.002402998458453819,0.6384516837481699
814,0.0024080361910711226,0.6384516837481699
815,0.0024080361910711226,0.6387262079062958
816,0.00241811165630573,0.6387262079062958
817,0.00241811165630573,0.6388177159590044
818,0.0024231493889230334,0.6388177159590044
819,0.0024231493889230334,0.6395497803806734
820,0.0024281871215403373,0.6395497803806734
821,0.0024281871215403373,0.6396412884333821
822,0.0024332248541576408,0.6396412884333821
823,0.0024332248541576408,0.6397327964860908
824,0.0024382625867749442,0.6397327964860908
825,0.0024382625867749442,0.6400073206442167
826,0.0024483380520095516,0.6400073206442167
827,0.0024483380520095516,0.6402818448023426
828,0.002453375784626855,0.6402818448023426
829,0.002453375784626855,0.6403733528550513
830,0.0024584135172441585,0.6403733528550513
831,0.0024584135172441585,0.6406478770131772
832,0.0024634512498614624,0.6406478770131772
833,0.0024634512498614624,0.6407393850658858
834,0.002468488982478766,0.6407393850658858
835,0.002468488982478766,0.6408308931185944
836,0.0024785644477133733,0.6408308931185944
837,0.0024785644477133733,0.641196925329429
838,0.00248863991294798,0.641196925329429
839,0.00248863991294798,0.6414714494875549
840,0.0024987153781825876,0.6414714494875549
841,0.0024987153781825876,0.6419289897510981
842,0.002503753110799891,0.6419289897510981
843,0.002503753110799891,0.642203513909224
844,0.002508790843417195,0.642203513909224
845,0.002508790843417195,0.6422950219619327
846,0.0025138285760344984,0.6422950219619327
847,0.0025138285760344984,0.6428440702781845
848,0.002518866308651802,0.6428440702781845
849,0.002518866308651802,0.6430270863836017
850,0.0025239040412691057,0.6430270863836017
851,0.0025239040412691057,0.6433016105417276
852,0.002528941773886409,0.6433016105417276
853,0.002528941773886409,0.6445827232796486
854,0.0025339795065037127,0.6445827232796486
855,0.0025339795065037127,0.645223279648609
856,0.00254405497173832,0.645223279648609
857,0.00254405497173832,0.6453147877013177
858,0.0025541304369729274,0.6453147877013177
859,0.0025541304369729274,0.6454062957540263
860,0.0025642059022075343,0.6454062957540263
861,0.0025642059022075343,0.6455893118594437
862,0.002579319100059445,0.6455893118594437
863,0.002579319100059445,0.6461383601756955
864,0.002584356832676749,0.6461383601756955
865,0.002584356832676749,0.6462298682284041
866,0.0025893945652940525,0.6462298682284041
867,0.0025893945652940525,0.6464128843338214
868,0.002594432297911356,0.6464128843338214
869,0.002594432297911356,0.64650439238653
870,0.0025994700305286595,0.64650439238653
871,0.0025994700305286595,0.6466874084919473
872,0.0026045077631459634,0.6466874084919473
873,0.0026045077631459634,0.6467789165446559
874,0.002609545495763267,0.6467789165446559
875,0.002609545495763267,0.6474194729136163
876,0.0026145832283805703,0.6474194729136163
877,0.0026145832283805703,0.6475109809663251
878,0.0026246586936151776,0.6475109809663251
879,0.0026246586936151776,0.647785505124451
880,0.002634734158849785,0.647785505124451
881,0.002634734158849785,0.6479685212298683
882,0.002644809624084392,0.6479685212298683
883,0.002644809624084392,0.6481515373352855
884,0.002649847356701696,0.6481515373352855
885,0.002649847356701696,0.64851756954612
886,0.0026548850893189993,0.64851756954612
887,0.0026548850893189993,0.6487005856515373
888,0.0026599228219363028,0.6487005856515373
889,0.0026599228219363028,0.6488836017569546
890,0.0026649605545536067,0.6488836017569546
891,0.0026649605545536067,0.6493411420204978
892,0.00266999828717091,0.6493411420204978
893,0.00266999828717091,0.6495241581259151
894,0.0026750360197882136,0.6495241581259151
895,0.0026750360197882136,0.6496156661786238
896,0.002685111485022821,0.6496156661786238
897,0.002685111485022821,0.6497071742313324
898,0.0026901492176401244,0.6497071742313324
899,0.0026901492176401244,0.6498901903367497
900,0.0026951869502574283,0.6498901903367497
901,0.0026951869502574283,0.6499816983894583
902,0.002700224682874732,0.6499816983894583
903,0.002700224682874732,0.6501647144948756
904,0.0027052624154920353,0.6501647144948756
905,0.0027052624154920353,0.6510797950219619
906,0.002710300148109339,0.6510797950219619
907,0.002710300148109339,0.6512628111273792
908,0.0027153378807266426,0.6512628111273792
909,0.0027153378807266426,0.6513543191800878
910,0.002720375613343946,0.6513543191800878
911,0.002720375613343946,0.6519033674963397
912,0.0027254133459612495,0.6519033674963397
913,0.0027254133459612495,0.6524524158125915
914,0.0027304510785785534,0.6524524158125915
915,0.0027304510785785534,0.6527269399707174
916,0.0027405265438131604,0.6527269399707174
917,0.0027405265438131604,0.6529099560761347
918,0.0027455642764304643,0.6529099560761347
919,0.0027455642764304643,0.6531844802342606
920,0.0027506020090477677,0.6531844802342606
921,0.0027506020090477677,0.654099560761347
922,0.002760677474282375,0.654099560761347
923,0.002760677474282375,0.6541910688140556
924,0.0027657152068996786,0.6541910688140556
925,0.0027657152068996786,0.6542825768667643
926,0.002770752939516982,0.6542825768667643
927,0.002770752939516982,0.6545571010248902
928,0.002775790672134286,0.6545571010248902
929,0.002775790672134286,0.6546486090775988
930,0.0027808284047515894,0.6546486090775988
931,0.0027808284047515894,0.6549231332357247
932,0.002785866137368893,0.6549231332357247
933,0.002785866137368893,0.6551976573938506
934,0.0027909038699861968,0.6551976573938506
935,0.0027909038699861968,0.6560212298682284
936,0.0027959416026035002,0.6560212298682284
937,0.0027959416026035002,0.6564787701317716
938,0.002811054800455411,0.6564787701317716
939,0.002811054800455411,0.6566617862371888
940,0.0028160925330727145,0.6566617862371888
941,0.0028160925330727145,0.6568448023426061
942,0.0028211302656900184,0.6568448023426061
943,0.0028211302656900184,0.6573023426061494
944,0.002826167998307322,0.6573023426061494
945,0.002826167998307322,0.657393850658858
946,0.0028312057309246253,0.657393850658858
947,0.0028312057309246253,0.6574853587115667
948,0.0028412811961592327,0.6574853587115667
949,0.0028412811961592327,0.6577598828696926
950,0.002846318928776536,0.6577598828696926
951,0.002846318928776536,0.6580344070278185
952,0.00285135666139384,0.6580344070278185
953,0.00285135666139384,0.6581259150805271
954,0.002861432126628447,0.6581259150805271
955,0.002861432126628447,0.6585834553440703
956,0.0028664698592457505,0.6585834553440703
957,0.0028664698592457505,0.6592240117130308
958,0.0028715075918630544,0.6592240117130308
959,0.0028715075918630544,0.6600475841874085
960,0.002876545324480358,0.6600475841874085
961,0.002876545324480358,0.6603221083455344
962,0.0028815830570976613,0.6603221083455344
963,0.0028815830570976613,0.660413616398243
964,0.002886620789714965,0.660413616398243
965,0.002886620789714965,0.6607796486090776
966,0.0028916585223322687,0.6607796486090776
967,0.0028916585223322687,0.6614202049780381
968,0.002896696254949572,0.6614202049780381
969,0.002896696254949572,0.6619692532942899
970,0.002901733987566876,0.6619692532942899
971,0.002901733987566876,0.6622437774524158
972,0.0029218849180360903,0.6622437774524158
973,0.0029218849180360903,0.6624267935578331
974,0.0029269226506533938,0.6624267935578331
975,0.0029269226506533938,0.6626098096632503
976,0.0029319603832706977,0.6626098096632503
977,0.0029319603832706977,0.662701317715959
978,0.002936998115888001,0.662701317715959
979,0.002936998115888001,0.6628843338213762
980,0.0029420358485053046,0.6628843338213762
981,0.0029420358485053046,0.6630673499267935
982,0.0029470735811226085,0.6630673499267935
983,0.0029470735811226085,0.6635248901903368
984,0.002952111313739912,0.6635248901903368
985,0.002952111313739912,0.663707906295754
986,0.0029571490463572154,0.663707906295754
987,0.0029571490463572154,0.6641654465592972
988,0.0029621867789745193,0.6641654465592972
989,0.0029621867789745193,0.6649890190336749
990,0.002967224511591823,0.6649890190336749
991,0.002967224511591823,0.6652635431918009
992,0.00297729997682643,0.6652635431918009
993,0.00297729997682643,0.6654465592972182
994,0.0029823377094437336,0.6654465592972182
995,0.0029823377094437336,0.6660871156661786
996,0.002987375442061037,0.6660871156661786
997,0.002987375442061037,0.6661786237188873
998,0.0029924131746783406,0.6661786237188873
999,0.0029924131746783406,0.6663616398243045
1000,0.0029974509072956445,0.6663616398243045
1001,0.0029974509072956445,0.6666361639824304
1002,0.003002488639912948,0.6666361639824304
1003,0.003002488639912948,0.6670937042459737
1004,0.0030075263725302514,0.6670937042459737
1005,0.0030075263725302514,0.6675512445095169
1006,0.0030176018377648588,0.6675512445095169
1007,0.0030176018377648588,0.6676427525622255
1008,0.003022639570382162,0.6676427525622255
1009,0.003022639570382162,0.6679172767203514
1010,0.003027677302999466,0.6679172767203514
1011,0.003027677302999466,0.66800878477306
1012,0.003037752768234073,0.66800878477306
1013,0.003037752768234073,0.6681918008784773
1014,0.003042790500851377,0.6681918008784773
1015,0.003042790500851377,0.6682833089311859
1016,0.003052865966085984,0.6682833089311859
1017,0.003052865966085984,0.6683748169838946
1018,0.0030579036987032878,0.6683748169838946
1019,0.0030579036987032878,0.6684663250366032
1020,0.0030730168965551986,0.6684663250366032
1021,0.0030730168965551986,0.6687408491947291
1022,0.003078054629172502,0.6687408491947291
1023,0.003078054629172502,0.6690153733528551
1024,0.0030830923617898055,0.6690153733528551
1025,0.0030830923617898055,0.6691983894582724
1026,0.0030982055596417164,0.6691983894582724
1027,0.0030982055596417164,0.669289897510981
1028,0.0031032432922590203,0.669289897510981
1029,0.0031032432922590203,0.6696559297218155
1030,0.0031082810248763237,0.6696559297218155
1031,0.0031082810248763237,0.6697474377745242
1032,0.003113318757493627,0.6697474377745242
1033,0.003113318757493627,0.670296486090776
1034,0.0031334696879628415,0.670296486090776
1035,0.0031334696879628415,0.6707540263543191
1036,0.0031385074205801454,0.6707540263543191
1037,0.0031385074205801454,0.6708455344070278
1038,0.0031485828858147523,0.6708455344070278
1039,0.0031485828858147523,0.6710285505124451
1040,0.0031586583510493597,0.6710285505124451
1041,0.0031586583510493597,0.6711200585651538
1042,0.0031737715489012705,0.6711200585651538
1043,0.0031737715489012705,0.6712115666178624
1044,0.003178809281518574,0.6712115666178624
1045,0.003178809281518574,0.6713945827232797
1046,0.003183847014135878,0.6713945827232797
1047,0.003183847014135878,0.6725841874084919
1048,0.0031888847467531813,0.6725841874084919
1049,0.0031888847467531813,0.6728587115666179
1050,0.003193922479370485,0.6728587115666179
1051,0.003193922479370485,0.6729502196193266
1052,0.0031989602119877887,0.6729502196193266
1053,0.0031989602119877887,0.6732247437774525
1054,0.003203997944605092,0.6732247437774525
1055,0.003203997944605092,0.6733162518301611
1056,0.0032090356772223956,0.6733162518301611
1057,0.0032090356772223956,0.6734077598828697
1058,0.0032140734098396995,0.6734077598828697
1059,0.0032140734098396995,0.6738653001464129
1060,0.003219111142457003,0.6738653001464129
1061,0.003219111142457003,0.6739568081991215
1062,0.0032241488750743065,0.6739568081991215
1063,0.0032241488750743065,0.6741398243045388
1064,0.0032291866076916103,0.6741398243045388
1065,0.0032291866076916103,0.6742313323572474
1066,0.0032392620729262173,0.6742313323572474
1067,0.0032392620729262173,0.674322840409956
1068,0.003244299805543521,0.674322840409956
1069,0.003244299805543521,0.6749633967789166
1070,0.0032493375381608246,0.6749633967789166
1071,0.0032493375381608246,0.6754209370424598
1072,0.003254375270778128,0.6754209370424598
1073,0.003254375270778128,0.6756954612005857
1074,0.0032594130033954316,0.6756954612005857
1075,0.0032594130033954316,0.6757869692532943
1076,0.0032644507360127355,0.6757869692532943
1077,0.0032644507360127355,0.6760614934114202
1078,0.003269488468630039,0.6760614934114202
1079,0.003269488468630039,0.6761530014641288
1080,0.0032745262012473424,0.6761530014641288
1081,0.0032745262012473424,0.6762445095168375
1082,0.0032795639338646463,0.6762445095168375
1083,0.0032795639338646463,0.676610541727672
1084,0.0032896393990992532,0.676610541727672
1085,0.0032896393990992532,0.6767020497803806
1086,0.003294677131716557,0.6767020497803806
1087,0.003294677131716557,0.6767935578330894
1088,0.003304752596951164,0.6767935578330894
1089,0.003304752596951164,0.676885065885798
1090,0.003309790329568468,0.676885065885798
1091,0.003309790329568468,0.6772510980966325
1092,0.003319865794803075,0.6772510980966325
1093,0.003319865794803075,0.6773426061493412
1094,0.003324903527420379,0.6773426061493412
1095,0.003324903527420379,0.6775256222547584
1096,0.003345054457889593,0.6775256222547584
1097,0.003345054457889593,0.6776171303074671
1098,0.0033500921905068965,0.6776171303074671
1099,0.0033500921905068965,0.6777086383601757
1100,0.0033551299231242004,0.6777086383601757
1101,0.0033551299231242004,0.6780746705710102
1102,0.003360167655741504,0.6780746705710102
1103,0.003360167655741504,0.6783491947291361
1104,0.0033652053883588074,0.6783491947291361
1105,0.0033652053883588074,0.6784407027818448
1106,0.003380318586210718,0.6784407027818448
1107,0.003380318586210718,0.6789897510980967
1108,0.003385356318828022,0.6789897510980967
1109,0.003385356318828022,0.6791727672035139
1110,0.0033903940514453256,0.6791727672035139
1111,0.0033903940514453256,0.6798133235724744
1112,0.003395431784062629,0.6798133235724744
1113,0.003395431784062629,0.6803623718887262
1114,0.0034004695166799325,0.6803623718887262
1115,0.0034004695166799325,0.6808199121522694
1116,0.0034055072492972364,0.6808199121522694
1117,0.0034055072492972364,0.6818265007320644
1118,0.0034155827145318433,0.6818265007320644
1119,0.0034155827145318433,0.681918008784773
1120,0.0034256581797664507,0.681918008784773
1121,0.0034256581797664507,0.6820095168374817
1122,0.003430695912383754,0.6820095168374817
1123,0.003430695912383754,0.6821010248901903
1124,0.0034407713776183615,0.6821010248901903
1125,0.0034407713776183615,0.6823755490483162
1126,0.003445809110235665,0.6823755490483162
1127,0.003445809110235665,0.6825585651537335
1128,0.003450846842852969,0.6825585651537335
1129,0.003450846842852969,0.683199121522694
1130,0.0034558845754702723,0.683199121522694
1131,0.0034558845754702723,0.6832906295754027
1132,0.003460922308087576,0.6832906295754027
1133,0.003460922308087576,0.6834736456808199
1134,0.0034659600407048797,0.6834736456808199
1135,0.0034659600407048797,0.6835651537335286
1136,0.003470997773322183,0.6835651537335286
1137,0.003470997773322183,0.6838396778916545
1138,0.0034810732385567905,0.6838396778916545
1139,0.0034810732385567905,0.6839311859443631
1140,0.0034911487037913975,0.6839311859443631
1141,0.0034911487037913975,0.6840226939970717
1142,0.003501224169026005,0.6840226939970717
1143,0.003501224169026005,0.6842972181551976
1144,0.0035163373668779157,0.6842972181551976
1145,0.0035163373668779157,0.6843887262079063
1146,0.003521375099495219,0.6843887262079063
1147,0.003521375099495219,0.6850292825768668
1148,0.0035264128321125226,0.6850292825768668
1149,0.0035264128321125226,0.6852122986822841
1150,0.0035314505647298265,0.6852122986822841
1151,0.0035314505647298265,0.6857613469985359
1152,0.0035516014951990408,0.6857613469985359
1153,0.0035516014951990408,0.6859443631039531
1154,0.0035566392278163442,0.6859443631039531
1155,0.0035566392278163442,0.6864019033674963
1156,0.0035667146930509516,0.6864019033674963
1157,0.0035667146930509516,0.6865849194729137
1158,0.003576790158285559,0.6865849194729137
1159,0.003576790158285559,0.6866764275256223
1160,0.0035818278909028624,0.6866764275256223
1161,0.0035818278909028624,0.6869509516837482
1162,0.003586865623520166,0.6869509516837482
1163,0.003586865623520166,0.6871339677891655
1164,0.00359190335613747,0.6871339677891655
1165,0.00359190335613747,0.6873169838945827
1166,0.0036019788213720767,0.6873169838945827
1167,0.0036019788213720767,0.6874084919472914
1168,0.0036070165539893806,0.6874084919472914
1169,0.0036070165539893806,0.6876830161054173
1170,0.0036372429496932023,0.6876830161054173
1171,0.0036372429496932023,0.6881405563689604
1172,0.0036422806823105057,0.6881405563689604
1173,0.0036422806823105057,0.6882320644216691
1174,0.003652356147545113,0.6882320644216691
1175,0.003652356147545113,0.6883235724743777
1176,0.0036573938801624166,0.6883235724743777
1177,0.0036573938801624166,0.6884150805270863
1178,0.00366243161277972,0.6884150805270863
1179,0.00366243161277972,0.6885980966325037
1180,0.003677544810631631,0.6885980966325037
1181,0.003677544810631631,0.6886896046852123
1182,0.0036825825432489343,0.6886896046852123
1183,0.0036825825432489343,0.688781112737921
1184,0.0036876202758662382,0.688781112737921
1185,0.0036876202758662382,0.6890556368960469
1186,0.0036926580084835417,0.6890556368960469
1187,0.0036926580084835417,0.6891471449487555
1188,0.003697695741100845,0.6891471449487555
1189,0.003697695741100845,0.68951317715959
1190,0.003702733473718149,0.68951317715959
1191,0.003702733473718149,0.6897877013177159
1192,0.0037077712063354525,0.6897877013177159
1193,0.0037077712063354525,0.6901537335285505
1194,0.00371784667157006,0.6901537335285505
1195,0.00371784667157006,0.6906112737920937
1196,0.0037228844041873634,0.6906112737920937
1197,0.0037228844041873634,0.6908857979502196
1198,0.003727922136804667,0.6908857979502196
1199,0.003727922136804667,0.6912518301610542
1200,0.0037430353346565776,0.6912518301610542
1201,0.0037430353346565776,0.6914348462664714
1202,0.003753110799891185,0.6914348462664714
1203,0.003753110799891185,0.6917093704245973
1204,0.003768223997743096,0.6917093704245973
1205,0.003768223997743096,0.6918923865300146
1206,0.0037732617303603993,0.6918923865300146
1207,0.0037732617303603993,0.6920754026354319
1208,0.003778299462977703,0.6920754026354319
1209,0.003778299462977703,0.6923499267935578
1210,0.0037833371955950067,0.6923499267935578
1211,0.0037833371955950067,0.6925329428989752
1212,0.003803488126064221,0.6925329428989752
1213,0.003803488126064221,0.6926244509516838
1214,0.0038135635912988283,0.6926244509516838
1215,0.0038135635912988283,0.6932650073206442
1216,0.0038236390565334353,0.6932650073206442
1217,0.0038236390565334353,0.6934480234260615
1218,0.003828676789150739,0.6934480234260615
1219,0.003828676789150739,0.6935395314787701
1220,0.003838752254385346,0.6935395314787701
1221,0.003838752254385346,0.6936310395314788
1222,0.00384378998700265,0.6936310395314788
1223,0.00384378998700265,0.6937225475841874
1224,0.0038488277196199534,0.6937225475841874
1225,0.0038488277196199534,0.6939055636896047
1226,0.0038689786500891677,0.6939055636896047
1227,0.0038689786500891677,0.6939970717423133
1228,0.003879054115323775,0.6939970717423133
1229,0.003879054115323775,0.6944546120058566
1230,0.0038840918479410786,0.6944546120058566
1231,0.0038840918479410786,0.6946376281112738
1232,0.0038891295805583825,0.6946376281112738
1233,0.0038891295805583825,0.6948206442166911
1234,0.003894167313175686,0.6948206442166911
1235,0.003894167313175686,0.6950036603221084
1236,0.0038992050457929894,0.6950036603221084
1237,0.0038992050457929894,0.6954612005856515
1238,0.0039042427784102933,0.6954612005856515
1239,0.0039042427784102933,0.6955527086383602
1240,0.0039143182436449,0.6955527086383602
1241,0.0039143182436449,0.6957357247437774
1242,0.003919355976262204,0.6957357247437774
1243,0.003919355976262204,0.6958272327964861
1244,0.003934469174114115,0.6958272327964861
1245,0.003934469174114115,0.6960102489019033
1246,0.003939506906731418,0.6960102489019033
1247,0.003939506906731418,0.696101756954612
1248,0.003944544639348722,0.696101756954612
1249,0.003944544639348722,0.6961932650073206
1250,0.003949582371966026,0.6961932650073206
1251,0.003949582371966026,0.6964677891654466
1252,0.003954620104583329,0.6964677891654466
1253,0.003954620104583329,0.6965592972181552
1254,0.003964695569817937,0.6965592972181552
1255,0.003964695569817937,0.6967423133235725
1256,0.00396973330243524,0.6967423133235725
1257,0.00396973330243524,0.6969253294289898
1258,0.0039747710350525435,0.6969253294289898
1259,0.0039747710350525435,0.6970168374816984
1260,0.0039798087676698474,0.6970168374816984
1261,0.0039798087676698474,0.697108345534407
1262,0.003989884232904454,0.697108345534407
1263,0.003989884232904454,0.6971998535871157
1264,0.003994921965521758,0.6971998535871157
1265,0.003994921965521758,0.6973828696925329
1266,0.004004997430756365,0.6973828696925329
1267,0.004004997430756365,0.6974743777452416
1268,0.004015072895990972,0.6974743777452416
1269,0.004015072895990972,0.6976573938506588
1270,0.004020110628608276,0.6976573938506588
1271,0.004020110628608276,0.6978404099560761
1272,0.00402514836122558,0.6978404099560761
1273,0.00402514836122558,0.6979319180087847
1274,0.004030186093842883,0.6979319180087847
1275,0.004030186093842883,0.6980234260614934
1276,0.004040261559077491,0.6980234260614934
1277,0.004040261559077491,0.698114934114202
1278,0.004050337024312098,0.698114934114202
1279,0.004050337024312098,0.6984809663250366
1280,0.004055374756929402,0.6984809663250366
1281,0.004055374756929402,0.6985724743777453
1282,0.004060412489546705,0.6985724743777453
1283,0.004060412489546705,0.6987554904831625
1284,0.0040654502221640085,0.6987554904831625
1285,0.0040654502221640085,0.6995790629575402
1286,0.004070487954781312,0.6995790629575402
1287,0.004070487954781312,0.6997620790629575
1288,0.0040755256873986154,0.6997620790629575
1289,0.0040755256873986154,0.6999450951683748
1290,0.004080563420015919,0.6999450951683748
1291,0.004080563420015919,0.700128111273792
1292,0.004090638885250526,0.700128111273792
1293,0.004090638885250526,0.7003111273792094
1294,0.00409567661786783,0.7003111273792094
1295,0.00409567661786783,0.7004941434846267
1296,0.004100714350485134,0.7004941434846267
1297,0.004100714350485134,0.7005856515373353
1298,0.004110789815719741,0.7005856515373353
1299,0.004110789815719741,0.700677159590044
1300,0.004120865280954348,0.700677159590044
1301,0.004120865280954348,0.7008601756954612
1302,0.004125903013571652,0.7008601756954612
1303,0.004125903013571652,0.7009516837481699
1304,0.004135978478806259,0.7009516837481699
1305,0.004135978478806259,0.7010431918008785
1306,0.004141016211423563,0.7010431918008785
1307,0.004141016211423563,0.7012262079062958
1308,0.00415109167665817,0.7012262079062958
1309,0.00415109167665817,0.7013177159590044
1310,0.0041561294092754735,0.7013177159590044
1311,0.0041561294092754735,0.7015007320644217
1312,0.0041611671418927765,0.7015007320644217
1313,0.0041611671418927765,0.7018667642752562
1314,0.00416620487451008,0.7018667642752562
1315,0.00416620487451008,0.7020497803806734
1316,0.004176280339744687,0.7020497803806734
1317,0.004176280339744687,0.7022327964860908
1318,0.004181318072361991,0.7022327964860908
1319,0.004181318072361991,0.7024158125915081
1320,0.004191393537596598,0.7024158125915081
1321,0.004191393537596598,0.7025988286969254
1322,0.004206506735448509,0.7025988286969254
1323,0.004206506735448509,0.702690336749634
1324,0.004211544468065813,0.702690336749634
1325,0.004211544468065813,0.7029648609077599
1326,0.00422161993330042,0.7029648609077599
1327,0.00422161993330042,0.7030563689604685
1328,0.004226657665917724,0.7030563689604685
1329,0.004226657665917724,0.7031478770131772
1330,0.004231695398535028,0.7031478770131772
1331,0.004231695398535028,0.7034224011713031
1332,0.004236733131152331,0.7034224011713031
1333,0.004236733131152331,0.7035139092240117
1334,0.0042417708637696346,0.7035139092240117
1335,0.0042417708637696346,0.703696925329429
1336,0.0042468085963869385,0.703696925329429
1337,0.0042468085963869385,0.7039714494875549
1338,0.0042518463290042415,0.7039714494875549
1339,0.0042518463290042415,0.7041544655929722
1340,0.004266959526856152,0.7041544655929722
1341,0.004266959526856152,0.7044289897510981
1342,0.00427703499209076,0.7044289897510981
1343,0.00427703499209076,0.7046120058565154
1344,0.004282072724708063,0.7046120058565154
1345,0.004282072724708063,0.7048865300146413
1346,0.004287110457325367,0.7048865300146413
1347,0.004287110457325367,0.7050695461200586
1348,0.004292148189942671,0.7050695461200586
1349,0.004292148189942671,0.7052525622254758
1350,0.004307261387794582,0.7052525622254758
1351,0.004307261387794582,0.7058016105417276
1352,0.004312299120411885,0.7058016105417276
1353,0.004312299120411885,0.7058931185944363
1354,0.004322374585646493,0.7058931185944363
1355,0.004322374585646493,0.7059846266471449
1356,0.0043425255161157065,0.7059846266471449
1357,0.0043425255161157065,0.7063506588579795
1358,0.00434756324873301,0.7063506588579795
1359,0.00434756324873301,0.7065336749633968
1360,0.004362676446584921,0.7065336749633968
1361,0.004362676446584921,0.7073572474377745
1362,0.004367714179202225,0.7073572474377745
1363,0.004367714179202225,0.7074487554904831
1364,0.004382827377054136,0.7074487554904831
1365,0.004382827377054136,0.7076317715959004
1366,0.004387865109671439,0.7076317715959004
1367,0.004387865109671439,0.707723279648609
1368,0.00440297830752335,0.707723279648609
1369,0.00440297830752335,0.7078147877013177
1370,0.004408016040140654,0.7078147877013177
1371,0.004408016040140654,0.7079062957540263
1372,0.0044281669706098675,0.7079062957540263
1373,0.0044281669706098675,0.7080893118594437
1374,0.004448317901079082,0.7080893118594437
1375,0.004448317901079082,0.7081808199121523
1376,0.004453355633696386,0.7081808199121523
1377,0.004453355633696386,0.708272327964861
1378,0.004458393366313689,0.708272327964861
1379,0.004458393366313689,0.7083638360175696
1380,0.004463431098930993,0.7083638360175696
1381,0.004463431098930993,0.7084553440702782
1382,0.004468468831548297,0.7084553440702782
1383,0.004468468831548297,0.7088213762811127
1384,0.0044735065641656,0.7088213762811127
1385,0.0044735065641656,0.7090959004392386
1386,0.004478544296782904,0.7090959004392386
1387,0.004478544296782904,0.7092789165446559
1388,0.004493657494634815,0.7092789165446559
1389,0.004493657494634815,0.7095534407027818
1390,0.0045087706924867256,0.7095534407027818
1391,0.0045087706924867256,0.7099194729136163
1392,0.004523883890338636,0.7099194729136163
1393,0.004523883890338636,0.7100109809663251
1394,0.00452892162295594,0.7100109809663251
1395,0.00452892162295594,0.7101939970717424
1396,0.004533959355573243,0.710285505124451
1397,0.004533959355573243,0.7104685212298683
1398,0.004544034820807851,0.7104685212298683
1399,0.004544034820807851,0.7105600292825769
1400,0.004549072553425154,0.7105600292825769
1401,0.004549072553425154,0.7107430453879942
1402,0.004559148018659762,0.7107430453879942
1403,0.004559148018659762,0.7108345534407028
1404,0.004564185751277065,0.7108345534407028
1405,0.004564185751277065,0.7112005856515373
1406,0.004569223483894369,0.7112005856515373
1407,0.004569223483894369,0.7113836017569546
1408,0.00458433668174628,0.7113836017569546
1409,0.00458433668174628,0.7114751098096632
1410,0.004589374414363584,0.7114751098096632
1411,0.004589374414363584,0.7118411420204978
1412,0.004594412146980887,0.7118411420204978
1413,0.004594412146980887,0.7119326500732065
1414,0.0045994498795981905,0.7119326500732065
1415,0.0045994498795981905,0.7122071742313324
1416,0.0046044876122154944,0.7122071742313324
1417,0.0046044876122154944,0.7125732064421669
1418,0.0046095253448327975,0.7125732064421669
1419,0.0046095253448327975,0.7128477306002928
1420,0.004624638542684708,0.7128477306002928
1421,0.004624638542684708,0.7129392386530015
1422,0.004649827205771226,0.7129392386530015
1423,0.004649827205771226,0.7131222547584187
1424,0.00465486493838853,0.7131222547584187
1425,0.00465486493838853,0.7132137628111274
1426,0.004664940403623137,0.7132137628111274
1427,0.004664940403623137,0.713305270863836
1428,0.004669978136240441,0.713305270863836
1429,0.004669978136240441,0.7134882869692533
1430,0.004680053601475048,0.7134882869692533
1431,0.004680053601475048,0.7138543191800878
1432,0.004685091334092352,0.7138543191800878
1433,0.004685091334092352,0.7140373352855052
1434,0.0046901290667096555,0.7140373352855052
1435,0.0046901290667096555,0.7144033674963397
1436,0.0047002045319442624,0.7144033674963397
1437,0.0047002045319442624,0.714586383601757
1438,0.004705242264561566,0.714586383601757
1439,0.004705242264561566,0.7147693997071742
1440,0.004715317729796173,0.7147693997071742
1441,0.004715317729796173,0.7148609077598829
1442,0.004720355462413477,0.7148609077598829
1443,0.004720355462413477,0.7151354319180088
1444,0.004740506392882691,0.7151354319180088
1445,0.004740506392882691,0.7152269399707174
1446,0.004750581858117299,0.7152269399707174
1447,0.004750581858117299,0.715318448023426
1448,0.004755619590734602,0.715318448023426
1449,0.004755619590734602,0.7155929721815519
1450,0.00476569505596921,0.7155929721815519
1451,0.00476569505596921,0.7156844802342606
1452,0.004775770521203817,0.7156844802342606
1453,0.004775770521203817,0.7157759882869692
1454,0.0047808082538211205,0.7157759882869692
1455,0.0047808082538211205,0.7158674963396779
1456,0.0047858459864384235,0.7158674963396779
1457,0.0047858459864384235,0.7159590043923866
1458,0.004800959184290334,0.7159590043923866
1459,0.004800959184290334,0.7160505124450952
1460,0.004805996916907638,0.7160505124450952
1461,0.004805996916907638,0.7161420204978038
1462,0.004821110114759549,0.7161420204978038
1463,0.004821110114759549,0.7162335285505125
1464,0.004846298777846067,0.7162335285505125
1465,0.004846298777846067,0.7164165446559297
1466,0.004856374243080675,0.7164165446559297
1467,0.004856374243080675,0.7165080527086384
1468,0.0048714874409325854,0.7165080527086384
1469,0.0048714874409325854,0.716599560761347
1470,0.0048765251735498885,0.716599560761347
1471,0.0048765251735498885,0.7169655929721815
1472,0.004881562906167192,0.7169655929721815
1473,0.004881562906167192,0.7170571010248902
1474,0.004891638371401799,0.7170571010248902
1475,0.004891638371401799,0.7171486090775988
1476,0.004901713836636407,0.7171486090775988
1477,0.004901713836636407,0.7172401171303074
1478,0.00490675156925371,0.7172401171303074
1479,0.00490675156925371,0.7175146412884333
1480,0.004916827034488317,0.7175146412884333
1481,0.004916827034488317,0.717606149341142
1482,0.004921864767105621,0.717606149341142
1483,0.004921864767105621,0.7176976573938506
1484,0.004936977964957532,0.7176976573938506
1485,0.004936977964957532,0.717880673499268
1486,0.004947053430192139,0.717880673499268
1487,0.004947053430192139,0.7182467057101025
1488,0.004952091162809443,0.7182467057101025
1489,0.004952091162809443,0.7184297218155198
1490,0.0049571288954267465,0.7184297218155198
1491,0.0049571288954267465,0.718612737920937
1492,0.0049621666280440496,0.718612737920937
1493,0.0049621666280440496,0.7187042459736457
1494,0.004972242093278657,0.7187042459736457
1495,0.004972242093278657,0.7187957540263543
1496,0.00497727982589596,0.7187957540263543
1497,0.00497727982589596,0.718887262079063
1498,0.004982317558513264,0.718887262079063
1499,0.004982317558513264,0.7189787701317716
1500,0.004997430756365175,0.7189787701317716
1501,0.004997430756365175,0.7190702781844802
1502,0.005012543954217086,0.7190702781844802
1503,0.005012543954217086,0.7192532942898975
1504,0.00501758168683439,0.7192532942898975
1505,0.00501758168683439,0.7197108345534406
1506,0.005027657152068997,0.7197108345534406
1507,0.005027657152068997,0.719893850658858
1508,0.005042770349920908,0.719893850658858
1509,0.005042770349920908,0.7199853587115667
1510,0.0050478080825382115,0.7199853587115667
1511,0.0050478080825382115,0.7200768667642753
1512,0.005067959013007425,0.7200768667642753
1513,0.005067959013007425,0.7203513909224012
1514,0.005072996745624729,0.7203513909224012
1515,0.005072996745624729,0.7204428989751098
1516,0.005083072210859336,0.7204428989751098
1517,0.005083072210859336,0.7207174231332357
1518,0.00508810994347664,0.7207174231332357
1519,0.00508810994347664,0.720900439238653
1520,0.005098185408711247,0.720900439238653
1521,0.005098185408711247,0.7209919472913616
1522,0.005113298606563158,0.7209919472913616
1523,0.005113298606563158,0.7211749633967789
1524,0.005118336339180462,0.7211749633967789
1525,0.005118336339180462,0.7213579795021962
1526,0.005128411804415069,0.7213579795021962
1527,0.005128411804415069,0.7216325036603221
1528,0.005148562734884283,0.7216325036603221
1529,0.005148562734884283,0.7217240117130308
1530,0.005163675932736194,0.7217240117130308
1531,0.005163675932736194,0.7218155197657394
1532,0.005168713665353498,0.7218155197657394
1533,0.005168713665353498,0.7219070278184481
1534,0.005178789130588105,0.7219070278184481
1535,0.005178789130588105,0.7219985358711567
1536,0.005188864595822712,0.7219985358711567
1537,0.005188864595822712,0.7220900439238653
1538,0.005203977793674623,0.7220900439238653
1539,0.005203977793674623,0.722181551976574
1540,0.005209015526291927,0.722181551976574
1541,0.005209015526291927,0.7222730600292826
1542,0.005219090991526534,0.7222730600292826
1543,0.005219090991526534,0.7223645680819912
1544,0.0052291664567611406,0.7223645680819912
1545,0.0052291664567611406,0.7225475841874085
1546,0.0052342041893784445,0.7225475841874085
1547,0.0052342041893784445,0.7227306002928258
1548,0.005239241921995748,0.7227306002928258
1549,0.005239241921995748,0.722913616398243
1550,0.005249317387230355,0.722913616398243
1551,0.005249317387230355,0.7230051244509517
1552,0.005254355119847659,0.7230051244509517
1553,0.005254355119847659,0.7232796486090776
1554,0.005264430585082266,0.7232796486090776
1555,0.005264430585082266,0.7233711566617862
1556,0.005274506050316873,0.7233711566617862
1557,0.005274506050316873,0.7234626647144948
1558,0.005279543782934177,0.7234626647144948
1559,0.005279543782934177,0.7235541727672035
1560,0.005284581515551481,0.7235541727672035
1561,0.005284581515551481,0.7240117130307467
1562,0.005289619248168784,0.7240117130307467
1563,0.005289619248168784,0.7241032210834554
1564,0.005294656980786088,0.7241032210834554
1565,0.005294656980786088,0.7245607613469985
1566,0.005299694713403392,0.7245607613469985
1567,0.005299694713403392,0.7247437774524158
1568,0.005304732446020695,0.7247437774524158
1569,0.005304732446020695,0.7248352855051244
1570,0.005309770178637999,0.7248352855051244
1571,0.005309770178637999,0.7249267935578331
1572,0.0053148079112553025,0.7249267935578331
1573,0.0053148079112553025,0.725201317715959
1574,0.0053198456438726055,0.725201317715959
1575,0.0053198456438726055,0.7254758418740849
1576,0.0053248833764899094,0.7254758418740849
1577,0.0053248833764899094,0.7255673499267935
1578,0.00533999657434182,0.7255673499267935
1579,0.00533999657434182,0.7259333821376281
1580,0.005345034306959124,0.7259333821376281
1581,0.005345034306959124,0.7260248901903368
1582,0.005350072039576427,0.7260248901903368
1583,0.005350072039576427,0.7261163982430454
1584,0.005360147504811035,0.7261163982430454
1585,0.005360147504811035,0.7265739385065886
1586,0.005375260702662946,0.7265739385065886
1587,0.005375260702662946,0.7267569546120058
1588,0.005380298435280249,0.7267569546120058
1589,0.005380298435280249,0.7268484626647145
1590,0.005390373900514857,0.7268484626647145
1591,0.005390373900514857,0.727214494875549
1592,0.0054054870983667675,0.727214494875549
1593,0.0054054870983667675,0.7273060029282576
1594,0.0054105248309840705,0.7273060029282576
1595,0.0054105248309840705,0.7274890190336749
1596,0.005435713494070589,0.7274890190336749
1597,0.005435713494070589,0.7275805270863837
1598,0.005440751226687892,0.7275805270863837
1599,0.005440751226687892,0.7276720351390923
1600,0.005460902157157107,0.7276720351390923
1601,0.005460902157157107,0.7278550512445096
1602,0.005476015355009018,0.7278550512445096
1603,0.005476015355009018,0.7282210834553441
1604,0.005481053087626321,0.7282210834553441
1605,0.005481053087626321,0.7283125915080527
1606,0.0054911285528609285,0.7283125915080527
1607,0.0054911285528609285,0.7284040995607614
1608,0.005496166285478232,0.7284040995607614
1609,0.005496166285478232,0.72849560761347
1610,0.0055012040180955355,0.72849560761347
1611,0.0055012040180955355,0.7286786237188873
1612,0.005506241750712839,0.7286786237188873
1613,0.005506241750712839,0.7287701317715959
1614,0.005511279483330142,0.7287701317715959
1615,0.005511279483330142,0.7288616398243045
1616,0.005516317215947446,0.7288616398243045
1617,0.005516317215947446,0.729227672035139
1618,0.00552135494856475,0.729227672035139
1619,0.00552135494856475,0.7295937042459737
1620,0.005526392681182053,0.7295937042459737
1621,0.005526392681182053,0.729776720351391
1622,0.005536468146416661,0.729776720351391
1623,0.005536468146416661,0.7300512445095169
1624,0.005541505879033964,0.7300512445095169
1625,0.005541505879033964,0.7301427525622255
1626,0.005566694542120483,0.7301427525622255
1627,0.005566694542120483,0.7303257686676428
1628,0.005571732274737786,0.7303257686676428
1629,0.005571732274737786,0.7304172767203514
1630,0.0055818077399723935,0.7304172767203514
1631,0.0055818077399723935,0.73050878477306
1632,0.0055868454725896965,0.73050878477306
1633,0.0055868454725896965,0.7307833089311859
1634,0.005596920937824304,0.7307833089311859
1635,0.005596920937824304,0.7308748169838946
1636,0.00564729826399734,0.7308748169838946
1637,0.00564729826399734,0.7309663250366032
1638,0.005667449194466555,0.7309663250366032
1639,0.005667449194466555,0.7310578330893118
1640,0.0056775246597011615,0.7310578330893118
1641,0.0056775246597011615,0.7312408491947291
1642,0.005682562392318465,0.7312408491947291
1643,0.005682562392318465,0.7314238653001464
1644,0.00570271332278768,0.7314238653001464
1645,0.00570271332278768,0.7315153733528551
1646,0.005707751055404983,0.7315153733528551
1647,0.005707751055404983,0.7318814055636896
1648,0.005712788788022287,0.7318814055636896
1649,0.005712788788022287,0.7319729136163983
1650,0.005722864253256894,0.7319729136163983
1651,0.005722864253256894,0.7321559297218155
1652,0.005732939718491501,0.7321559297218155
1653,0.005732939718491501,0.7322474377745242
1654,0.005737977451108805,0.7322474377745242
1655,0.005737977451108805,0.7324304538799414
1656,0.005743015183726109,0.7324304538799414
1657,0.005743015183726109,0.7325219619326501
1658,0.005763166114195323,0.7325219619326501
1659,0.005763166114195323,0.7327049780380673
1660,0.0057682038468126265,0.7327049780380673
1661,0.0057682038468126265,0.7328879941434846
1662,0.005793392509899144,0.7328879941434846
1663,0.005793392509899144,0.7329795021961932
1664,0.005798430242516448,0.7329795021961932
1665,0.005798430242516448,0.7332540263543191
1666,0.005813543440368359,0.7332540263543191
1667,0.005813543440368359,0.7334370424597365
1668,0.005843769836072181,0.7334370424597365
1669,0.005843769836072181,0.7336200585651538
1670,0.0058488075686894845,0.7336200585651538
1671,0.0058488075686894845,0.7337115666178624
1672,0.0058538453013067876,0.7337115666178624
1673,0.0058538453013067876,0.733803074670571
1674,0.005863920766541395,0.733803074670571
1675,0.005863920766541395,0.7338945827232797
1676,0.005873996231776002,0.7338945827232797
1677,0.005873996231776002,0.7339860907759883
1678,0.005879033964393306,0.7339860907759883
1679,0.005879033964393306,0.7341691068814056
1680,0.005889109429627913,0.7341691068814056
1681,0.005889109429627913,0.7343521229868228
1682,0.005904222627479824,0.7343521229868228
1683,0.005904222627479824,0.7344436310395315
1684,0.005919335825331735,0.7344436310395315
1685,0.005919335825331735,0.7345351390922401
1686,0.005934449023183646,0.7345351390922401
1687,0.005934449023183646,0.7352672035139092
1688,0.005969713151504771,0.7352672035139092
1689,0.005969713151504771,0.7354502196193266
1690,0.005984826349356681,0.7354502196193266
1691,0.005984826349356681,0.7355417276720352
1692,0.005989864081973985,0.7355417276720352
1693,0.005989864081973985,0.7358162518301611
1694,0.005994901814591289,0.7358162518301611
1695,0.005994901814591289,0.7363653001464129
1696,0.006004977279825896,0.7363653001464129
1697,0.006004977279825896,0.7366398243045388
1698,0.0060100150124432,0.7366398243045388
1699,0.0060100150124432,0.7367313323572474
1700,0.006020090477677807,0.7367313323572474
1701,0.006020090477677807,0.7370058565153733
1702,0.006030165942912414,0.7370058565153733
1703,0.006030165942912414,0.737097364568082
1704,0.006045279140764324,0.737097364568082
1705,0.006045279140764324,0.7371888726207906
1706,0.006075505536468146,0.7371888726207906
1707,0.006075505536468146,0.7375549048316252
1708,0.00608054326908545,0.7375549048316252
1709,0.00608054326908545,0.7376464128843339
1710,0.006095656466937361,0.7376464128843339
1711,0.006095656466937361,0.7377379209370425
1712,0.006100694199554665,0.7377379209370425
1713,0.006100694199554665,0.7379209370424598
1714,0.006105731932171968,0.7379209370424598
1715,0.006105731932171968,0.7380124450951684
1716,0.006110769664789272,0.7380124450951684
1717,0.006110769664789272,0.738103953147877
1718,0.0061158073974065755,0.738103953147877
1719,0.0061158073974065755,0.7382869692532943
1720,0.006120845130023879,0.7382869692532943
1721,0.006120845130023879,0.7383784773060029
1722,0.0061258828626411825,0.7383784773060029
1723,0.0061258828626411825,0.7385614934114202
1724,0.006130920595258486,0.7385614934114202
1725,0.006130920595258486,0.7387445095168375
1726,0.006135958327875789,0.7387445095168375
1727,0.006135958327875789,0.7390190336749634
1728,0.006140996060493093,0.7390190336749634
1729,0.006140996060493093,0.7392020497803806
1730,0.006161146990962308,0.7392020497803806
1731,0.006161146990962308,0.739385065885798
1732,0.006176260188814219,0.739385065885798
1733,0.006176260188814219,0.7394765739385066
1734,0.006181297921431522,0.7394765739385066
1735,0.006181297921431522,0.7400256222547584
1736,0.006196411119283433,0.7400256222547584
1737,0.006196411119283433,0.7406661786237189
1738,0.0062115243171353435,0.7406661786237189
1739,0.0062115243171353435,0.7409407027818448
1740,0.006221599782369951,0.7409407027818448
1741,0.006221599782369951,0.7410322108345534
1742,0.006226637514987254,0.7410322108345534
1743,0.006226637514987254,0.741123718887262
1744,0.006236712980221862,0.741123718887262
1745,0.006236712980221862,0.741398243045388
1746,0.006246788445456469,0.741398243045388
1747,0.006246788445456469,0.7416727672035139
1748,0.006251826178073772,0.7416727672035139
1749,0.006251826178073772,0.7420387994143485
1750,0.006256863910691076,0.7420387994143485
1751,0.006256863910691076,0.7421303074670571
1752,0.006282052573777594,0.7421303074670571
1753,0.006282052573777594,0.7422218155197657
1754,0.006307241236864112,0.7422218155197657
1755,0.006307241236864112,0.7423133235724744
1756,0.0063122789694814154,0.7423133235724744
1757,0.0063122789694814154,0.742404831625183
1758,0.006317316702098719,0.742404831625183
1759,0.006317316702098719,0.7424963396778916
1760,0.00633242989995063,0.7424963396778916
1761,0.00633242989995063,0.7425878477306003
1762,0.006337467632567934,0.7425878477306003
1763,0.006337467632567934,0.7426793557833089
1764,0.006352580830419845,0.7426793557833089
1765,0.006352580830419845,0.7427708638360175
1766,0.006362656295654452,0.7427708638360175
1767,0.006362656295654452,0.7428623718887262
1768,0.006367694028271756,0.7428623718887262
1769,0.006367694028271756,0.7430453879941434
1770,0.0063828072261236666,0.7430453879941434
1771,0.0063828072261236666,0.7433199121522694
1772,0.006397920423975577,0.7433199121522694
1773,0.006397920423975577,0.7434114202049781
1774,0.00640295815659288,0.7434114202049781
1775,0.00640295815659288,0.7435944363103953
1776,0.006413033621827488,0.7435944363103953
1777,0.006413033621827488,0.7437774524158126
1778,0.006418071354444791,0.7437774524158126
1779,0.006418071354444791,0.7439604685212299
1780,0.006428146819679399,0.7439604685212299
1781,0.006428146819679399,0.7442349926793558
1782,0.0064734864132351315,0.7442349926793558
1783,0.0064734864132351315,0.7445095168374817
1784,0.006488599611087042,0.7445095168374817
1785,0.006488599611087042,0.7446010248901903
1786,0.006493637343704345,0.7446010248901903
1787,0.006493637343704345,0.7446925329428989
1788,0.006518826006790863,0.7446925329428989
1789,0.006518826006790863,0.7448755490483162
1790,0.006528901472025471,0.7448755490483162
1791,0.006528901472025471,0.7449670571010248
1792,0.006533939204642774,0.7449670571010248
1793,0.006533939204642774,0.7450585651537335
1794,0.006544014669877382,0.7450585651537335
1795,0.006544014669877382,0.7452415812591509
1796,0.006554090135111989,0.7452415812591509
1797,0.006554090135111989,0.7453330893118595
1798,0.006559127867729293,0.7453330893118595
1799,0.006559127867729293,0.7456076134699854
1800,0.0065692033329638995,0.7456076134699854
1801,0.0065692033329638995,0.7457906295754027
1802,0.0065792787981985065,0.7457906295754027
1803,0.0065792787981985065,0.7459736456808199
1804,0.006594391996050417,0.7459736456808199
1805,0.006594391996050417,0.7460651537335286
1806,0.006599429728667721,0.7460651537335286
1807,0.006599429728667721,0.7461566617862372
1808,0.006619580659136936,0.7461566617862372
1809,0.006619580659136936,0.7462481698389458
1810,0.006629656124371543,0.7462481698389458
1811,0.006629656124371543,0.7466142020497804
1812,0.006644769322223454,0.7466142020497804
1813,0.006644769322223454,0.7469802342606149
1814,0.006649807054840758,0.7469802342606149
1815,0.006649807054840758,0.7470717423133236
1816,0.006654844787458061,0.7470717423133236
1817,0.006654844787458061,0.7472547584187409
1818,0.006669957985309971,0.7472547584187409
1819,0.006669957985309971,0.7473462664714495
1820,0.006680033450544579,0.7473462664714495
1821,0.006680033450544579,0.7474377745241582
1822,0.006730410776717615,0.7474377745241582
1823,0.006730410776717615,0.7475292825768668
1824,0.006755599439804133,0.7475292825768668
1825,0.006755599439804133,0.7477122986822841
1826,0.006780788102890651,0.7477122986822841
1827,0.006780788102890651,0.7478038067349927
1828,0.006790863568125258,0.7478038067349927
1829,0.006790863568125258,0.7478953147877013
1830,0.006795901300742562,0.7478953147877013
1831,0.006795901300742562,0.74798682284041
1832,0.006816052231211776,0.74798682284041
1833,0.006816052231211776,0.7480783308931186
1834,0.00682108996382908,0.7480783308931186
1835,0.00682108996382908,0.7481698389458272
1836,0.006826127696446384,0.7481698389458272
1837,0.006826127696446384,0.7482613469985359
1838,0.0068412408942982944,0.7482613469985359
1839,0.0068412408942982944,0.748718887262079
1840,0.0068462786269155975,0.748718887262079
1841,0.0068462786269155975,0.7489019033674963
1842,0.006851316359532901,0.7489019033674963
1843,0.006851316359532901,0.7490849194729137
1844,0.006861391824767508,0.7490849194729137
1845,0.006861391824767508,0.7491764275256223
1846,0.006871467290002116,0.7491764275256223
1847,0.006871467290002116,0.7492679355783309
1848,0.00689161822047133,0.7492679355783309
1849,0.00689161822047133,0.7493594436310396
1850,0.006906731418323241,0.7493594436310396
1851,0.006906731418323241,0.7496339677891655
1852,0.006916806883557849,0.7496339677891655
1853,0.006916806883557849,0.7497254758418741
1854,0.006921844616175152,0.7497254758418741
1855,0.006921844616175152,0.7498169838945827
1856,0.0069268823487924555,0.7498169838945827
1857,0.0069268823487924555,0.7499084919472914
1858,0.006931920081409759,0.7499084919472914
1859,0.006931920081409759,0.75
1860,0.006941995546644366,0.75
1861,0.006941995546644366,0.7502745241581259
1862,0.006957108744496277,0.7502745241581259
1863,0.006957108744496277,0.7503660322108345
1864,0.006962146477113581,0.7503660322108345
1865,0.006962146477113581,0.7504575402635432
1866,0.006972221942348188,0.7504575402635432
1867,0.006972221942348188,0.7506405563689604
1868,0.006977259674965492,0.7506405563689604
1869,0.006977259674965492,0.7509150805270863
1870,0.006992372872817403,0.7509150805270863
1871,0.006992372872817403,0.751281112737921
1872,0.007012523803286617,0.751281112737921
1873,0.007012523803286617,0.7513726207906296
1874,0.007022599268521224,0.7513726207906296
1875,0.007022599268521224,0.7514641288433382
1876,0.007032674733755831,0.7514641288433382
1877,0.007032674733755831,0.7515556368960469
1878,0.0071032029903980816,0.7515556368960469
1879,0.0071032029903980816,0.7517386530014641
1880,0.0071132784556326885,0.7517386530014641
1881,0.0071132784556326885,0.7519216691068814
1882,0.007123353920867296,0.7519216691068814
1883,0.007123353920867296,0.7521046852122987
1884,0.007128391653484599,0.7521046852122987
1885,0.007128391653484599,0.7522877013177159
1886,0.007138467118719207,0.7522877013177159
1887,0.007138467118719207,0.7524707174231332
1888,0.00714350485133651,0.7524707174231332
1889,0.00714350485133651,0.7525622254758418
1890,0.007148542583953814,0.7525622254758418
1891,0.007148542583953814,0.7526537335285505
1892,0.007158618049188421,0.7526537335285505
1893,0.007158618049188421,0.7528367496339677
1894,0.007163655781805725,0.7528367496339677
1895,0.007163655781805725,0.7530197657393851
1896,0.007168693514423029,0.7530197657393851
1897,0.007168693514423029,0.7532027818448024
1898,0.007214033107978761,0.7532027818448024
1899,0.007214033107978761,0.753294289897511
1900,0.007224108573213368,0.753294289897511
1901,0.007224108573213368,0.7533857979502196
1902,0.007269448166769101,0.7533857979502196
1903,0.007269448166769101,0.7534773060029283
1904,0.0072845613646210115,0.7534773060029283
1905,0.0072845613646210115,0.7535688140556369
1906,0.007294636829855618,0.7535688140556369
1907,0.007294636829855618,0.7536603221083455
1908,0.007299674562472922,0.7536603221083455
1909,0.007299674562472922,0.7537518301610542
1910,0.007304712295090226,0.7537518301610542
1911,0.007304712295090226,0.7538433382137628
1912,0.007314787760324833,0.7538433382137628
1913,0.007314787760324833,0.7541178623718887
1914,0.007319825492942136,0.7541178623718887
1915,0.007319825492942136,0.7545754026354319
1916,0.007329900958176744,0.7545754026354319
1917,0.007329900958176744,0.7547584187408491
1918,0.007334938690794047,0.7547584187408491
1919,0.007334938690794047,0.7549414348462665
1920,0.007339976423411351,0.7549414348462665
1921,0.007339976423411351,0.7551244509516838
1922,0.007360127353880566,0.7551244509516838
1923,0.007360127353880566,0.7553074670571011
1924,0.0073752405517324765,0.7553074670571011
1925,0.0073752405517324765,0.7553989751098097
1926,0.007385316016967083,0.7553989751098097
1927,0.007385316016967083,0.7554904831625183
1928,0.007400429214818994,0.7554904831625183
1929,0.007400429214818994,0.7558565153733529
1930,0.007410504680053601,0.7558565153733529
1931,0.007410504680053601,0.7559480234260615
1932,0.007415542412670905,0.7559480234260615
1933,0.007415542412670905,0.7562225475841874
1934,0.007420580145288209,0.7562225475841874
1935,0.007420580145288209,0.756314055636896
1936,0.007440731075757423,0.756314055636896
1937,0.007440731075757423,0.7565885797950219
1938,0.007445768808374727,0.7565885797950219
1939,0.007445768808374727,0.7568631039531479
1940,0.007450806540992031,0.7568631039531479
1941,0.007450806540992031,0.7569546120058566
1942,0.0074608820062266375,0.7569546120058566
1943,0.0074608820062266375,0.7570461200585652
1944,0.0074709574714612445,0.7570461200585652
1945,0.0074709574714612445,0.7571376281112738
1946,0.007475995204078548,0.7571376281112738
1947,0.007475995204078548,0.7575036603221084
1948,0.007481032936695852,0.7575036603221084
1949,0.007481032936695852,0.757595168374817
1950,0.00750622159978237,0.757595168374817
1951,0.00750622159978237,0.7576866764275256
1952,0.007526372530251585,0.7576866764275256
1953,0.007526372530251585,0.7577781844802343
1954,0.007536447995486192,0.7577781844802343
1955,0.007536447995486192,0.7579612005856515
1956,0.007566674391190013,0.7579612005856515
1957,0.007566674391190013,0.7580527086383602
1958,0.007571712123807317,0.7580527086383602
1959,0.007571712123807317,0.7581442166910688
1960,0.007586825321659227,0.7581442166910688
1961,0.007586825321659227,0.7584187408491947
1962,0.007622089449980353,0.7584187408491947
1963,0.007622089449980353,0.7587847730600292
1964,0.00763216491521496,0.7587847730600292
1965,0.00763216491521496,0.7589677891654466
1966,0.0076472781130668705,0.7589677891654466
1967,0.0076472781130668705,0.7590592972181552
1968,0.007672466776153389,0.7590592972181552
1969,0.007672466776153389,0.7591508052708639
1970,0.0076875799740053,0.7591508052708639
1971,0.0076875799740053,0.7592423133235725
1972,0.007692617706622603,0.7592423133235725
1973,0.007692617706622603,0.7593338213762811
1974,0.007712768637091818,0.7593338213762811
1975,0.007712768637091818,0.7594253294289898
1976,0.007717806369709122,0.7594253294289898
1977,0.007717806369709122,0.7595168374816984
1978,0.007722844102326425,0.7595168374816984
1979,0.007722844102326425,0.759608345534407
1980,0.0077329195675610325,0.759608345534407
1981,0.0077329195675610325,0.7596998535871157
1982,0.007742995032795639,0.7596998535871157
1983,0.007742995032795639,0.7598828696925329
1984,0.007798410091585979,0.7598828696925329
1985,0.007798410091585979,0.7599743777452416
1986,0.007803447824203283,0.7599743777452416
1987,0.007803447824203283,0.7601573938506588
1988,0.00781352328943789,0.7601573938506588
1989,0.00781352328943789,0.7602489019033675
1990,0.007818561022055193,0.7602489019033675
1991,0.007818561022055193,0.7605234260614934
1992,0.007823598754672497,0.7605234260614934
1993,0.007823598754672497,0.760614934114202
1994,0.007838711952524408,0.760614934114202
1995,0.007838711952524408,0.7607064421669106
1996,0.007843749685141711,0.7607064421669106
1997,0.007843749685141711,0.760889458272328
1998,0.007848787417759014,0.760889458272328
1999,0.007848787417759014,0.7610724743777453
2000,0.007858862882993622,0.7610724743777453
2001,0.007858862882993622,0.7612554904831625
2002,0.007863900615610925,0.7612554904831625
2003,0.007863900615610925,0.7613469985358712
2004,0.00786893834822823,0.7613469985358712
2005,0.00786893834822823,0.7615300146412884
2006,0.007889089278697444,0.7615300146412884
2007,0.007889089278697444,0.7616215226939971
2008,0.007894127011314747,0.7616215226939971
2009,0.007894127011314747,0.7617130307467057
2010,0.007899164743932052,0.7617130307467057
2011,0.007899164743932052,0.7618045387994143
2012,0.007909240209166658,0.7618045387994143
2013,0.007909240209166658,0.761896046852123
2014,0.007914277941783962,0.761896046852123
2015,0.007914277941783962,0.7619875549048316
2016,0.007924353407018568,0.7619875549048316
2017,0.007924353407018568,0.7622620790629575
2018,0.007944504337487784,0.7622620790629575
2019,0.007944504337487784,0.7624450951683748
2020,0.007959617535339695,0.7624450951683748
2021,0.007959617535339695,0.7627196193265008
2022,0.007974730733191606,0.7627196193265008
2023,0.007974730733191606,0.7628111273792094
2024,0.007979768465808909,0.7628111273792094
2025,0.007979768465808909,0.762902635431918
2026,0.007984806198426212,0.762902635431918
2027,0.007984806198426212,0.7633601756954612
2028,0.007999919396278123,0.7633601756954612
2029,0.007999919396278123,0.7634516837481699
2030,0.00800999486151273,0.7634516837481699
2031,0.00800999486151273,0.7637262079062958
2032,0.008015032594130033,0.7637262079062958
2033,0.008015032594130033,0.7638177159590044
2034,0.008020070326747338,0.7638177159590044
2035,0.008020070326747338,0.763909224011713
2036,0.00805029672245116,0.763909224011713
2037,0.00805029672245116,0.7640922401171303
2038,0.008060372187685766,0.7640922401171303
2039,0.008060372187685766,0.7642752562225475
2040,0.00806540992030307,0.7642752562225475
2041,0.00806540992030307,0.7644582723279648
2042,0.008070447652920374,0.7644582723279648
2043,0.008070447652920374,0.7648243045387995
2044,0.008075485385537677,0.7648243045387995
2045,0.008075485385537677,0.7650073206442167
2046,0.008095636316006892,0.7650073206442167
2047,0.008095636316006892,0.7652818448023426
2048,0.008100674048624195,0.7652818448023426
2049,0.008100674048624195,0.7653733528550513
2050,0.008115787246476106,0.7653733528550513
2051,0.008115787246476106,0.7654648609077599
2052,0.00812082497909341,0.7654648609077599
2053,0.00812082497909341,0.7655563689604685
2054,0.008125862711710714,0.7655563689604685
2055,0.008125862711710714,0.7656478770131772
2056,0.008140975909562625,0.7656478770131772
2057,0.008140975909562625,0.7657393850658858
2058,0.008156089107414536,0.7657393850658858
2059,0.008156089107414536,0.7658308931185944
2060,0.008161126840031839,0.7658308931185944
2061,0.008161126840031839,0.7659224011713031
2062,0.00817624003788375,0.7659224011713031
2063,0.00817624003788375,0.7661054172767203
2064,0.008181277770501053,0.7661054172767203
2065,0.008181277770501053,0.766196925329429
2066,0.008206466433587571,0.766196925329429
2067,0.008206466433587571,0.7662884333821376
2068,0.008211504166204874,0.7662884333821376
2069,0.008211504166204874,0.7663799414348462
2070,0.008226617364056785,0.7663799414348462
2071,0.008226617364056785,0.7664714494875549
2072,0.008236692829291393,0.7664714494875549
2073,0.008236692829291393,0.7665629575402635
2074,0.008241730561908696,0.7665629575402635
2075,0.008241730561908696,0.7668374816983895
2076,0.008246768294525999,0.7668374816983895
2077,0.008246768294525999,0.7672950219619327
2078,0.008271956957612518,0.7672950219619327
2079,0.008271956957612518,0.7673865300146413
2080,0.008287070155464428,0.7673865300146413
2081,0.008287070155464428,0.7674780380673499
2082,0.008292107888081731,0.7674780380673499
2083,0.008292107888081731,0.7675695461200586
2084,0.00830218335331634,0.7675695461200586
2085,0.00830218335331634,0.7676610541727672
2086,0.008307221085933642,0.7676610541727672
2087,0.008307221085933642,0.7677525622254758
2088,0.008322334283785553,0.7677525622254758
2089,0.008322334283785553,0.7681185944363104
2090,0.00837271160995859,0.7681185944363104
2091,0.00837271160995859,0.768210102489019
2092,0.008387824807810501,0.768210102489019
2093,0.008387824807810501,0.7683016105417276
2094,0.008392862540427804,0.7683016105417276
2095,0.008392862540427804,0.7683931185944363
2096,0.008418051203514323,0.7683931185944363
2097,0.008418051203514323,0.7684846266471449
2098,0.008438202133983537,0.7684846266471449
2099,0.008438202133983537,0.7685761346998536
2100,0.008453315331835447,0.7685761346998536
2101,0.008453315331835447,0.7686676427525623
2102,0.008463390797070055,0.7686676427525623
2103,0.008463390797070055,0.7688506588579795
2104,0.008468428529687358,0.7688506588579795
2105,0.008468428529687358,0.7689421669106882
2106,0.008483541727539269,0.7689421669106882
2107,0.008483541727539269,0.7690336749633968
2108,0.008493617192773877,0.7690336749633968
2109,0.008493617192773877,0.7693081991215227
2110,0.00849865492539118,0.7693081991215227
2111,0.00849865492539118,0.7693997071742313
2112,0.008508730390625788,0.7693997071742313
2113,0.008508730390625788,0.76949121522694
2114,0.008523843588477699,0.76949121522694
2115,0.008523843588477699,0.7695827232796486
2116,0.008528881321095002,0.7695827232796486
2117,0.008528881321095002,0.7696742313323572
2118,0.008559107716798823,0.7696742313323572
2119,0.008559107716798823,0.7697657393850659
2120,0.008569183182033431,0.7697657393850659
2121,0.008569183182033431,0.7700402635431918
2122,0.008584296379885342,0.7700402635431918
2123,0.008584296379885342,0.7701317715959004
2124,0.008604447310354556,0.7701317715959004
2125,0.008604447310354556,0.770223279648609
2126,0.008609485042971859,0.770223279648609
2127,0.008609485042971859,0.7703147877013177
2128,0.00862459824082377,0.7703147877013177
2129,0.00862459824082377,0.7704062957540263
2130,0.008629635973441074,0.7704062957540263
2131,0.008629635973441074,0.7706808199121523
2132,0.00863971143867568,0.7706808199121523
2133,0.00863971143867568,0.7708638360175696
2134,0.008644749171292985,0.7708638360175696
2135,0.008644749171292985,0.7710468521229868
2136,0.008649786903910288,0.7710468521229868
2137,0.008649786903910288,0.7712298682284041
2138,0.008654824636527591,0.7712298682284041
2139,0.008654824636527591,0.7713213762811127
2140,0.008659862369144896,0.7713213762811127
2141,0.008659862369144896,0.7714128843338214
2142,0.008664900101762199,0.7714128843338214
2143,0.008664900101762199,0.7718704245973645
2144,0.008669937834379502,0.7718704245973645
2145,0.008669937834379502,0.7719619326500732
2146,0.00868001329961411,0.7719619326500732
2147,0.00868001329961411,0.7724194729136163
2148,0.008690088764848718,0.7724194729136163
2149,0.008690088764848718,0.7726939970717424
2150,0.008700164230083324,0.7726939970717424
2151,0.008700164230083324,0.772785505124451
2152,0.008730390625787145,0.772785505124451
2153,0.008730390625787145,0.7729685212298683
2154,0.00873542835840445,0.7729685212298683
2155,0.00873542835840445,0.7730600292825769
2156,0.008750541556256361,0.7730600292825769
2157,0.008750541556256361,0.7733345534407028
2158,0.008755579288873664,0.7733345534407028
2159,0.008755579288873664,0.7734260614934114
2160,0.008790843417194789,0.7734260614934114
2161,0.008790843417194789,0.77351756954612
2162,0.008795881149812092,0.77351756954612
2163,0.008795881149812092,0.7736090775988287
2164,0.008816032080281307,0.7736090775988287
2165,0.008816032080281307,0.7737005856515373
2166,0.008831145278133218,0.7737005856515373
2167,0.008831145278133218,0.773792093704246
2168,0.008836183010750521,0.773792093704246
2169,0.008836183010750521,0.7738836017569546
2170,0.008851296208602432,0.7738836017569546
2171,0.008851296208602432,0.7739751098096632
2172,0.00887648487168895,0.7739751098096632
2173,0.00887648487168895,0.7741581259150805
2174,0.008886560336923557,0.7741581259150805
2175,0.008886560336923557,0.7744326500732065
2176,0.008891598069540861,0.7744326500732065
2177,0.008891598069540861,0.7746156661786238
2178,0.008906711267392772,0.7746156661786238
2179,0.008906711267392772,0.7747071742313324
2180,0.008916786732627378,0.7747071742313324
2181,0.008916786732627378,0.774798682284041
2182,0.008926862197861986,0.774798682284041
2183,0.008926862197861986,0.7749816983894583
2184,0.008941975395713897,0.7749816983894583
2185,0.008941975395713897,0.7752562225475842
2186,0.008957088593565808,0.7752562225475842
2187,0.008957088593565808,0.7753477306002928
2188,0.00896212632618311,0.7753477306002928
2189,0.00896212632618311,0.7754392386530015
2190,0.008967164058800416,0.7754392386530015
2191,0.008967164058800416,0.7759882869692533
2192,0.008972201791417719,0.7759882869692533
2193,0.008972201791417719,0.7760797950219619
2194,0.008982277256652326,0.7760797950219619
2195,0.008982277256652326,0.7761713030746705
2196,0.00898731498926963,0.7761713030746705
2197,0.00898731498926963,0.7764458272327965
2198,0.008997390454504237,0.7764458272327965
2199,0.008997390454504237,0.7765373352855052
2200,0.009012503652356148,0.7765373352855052
2201,0.009012503652356148,0.7771778916544656
2202,0.009037692315442665,0.7771778916544656
2203,0.009037692315442665,0.7773609077598829
2204,0.00905784324591188,0.7773609077598829
2205,0.00905784324591188,0.7775439238653001
2206,0.009072956443763791,0.7775439238653001
2207,0.009072956443763791,0.7776354319180088
2208,0.009077994176381094,0.7776354319180088
2209,0.009077994176381094,0.777818448023426
2210,0.009083031908998397,0.777818448023426
2211,0.009083031908998397,0.7779099560761347
2212,0.009098145106850308,0.7779099560761347
2213,0.009098145106850308,0.7780929721815519
2214,0.009103182839467613,0.7780929721815519
2215,0.009103182839467613,0.7782759882869692
2216,0.009108220572084916,0.7782759882869692
2217,0.009108220572084916,0.7783674963396779
2218,0.00911325830470222,0.7783674963396779
2219,0.00911325830470222,0.7786420204978038
2220,0.009123333769936827,0.7786420204978038
2221,0.009123333769936827,0.7787335285505125
2222,0.009133409235171435,0.7787335285505125
2223,0.009133409235171435,0.7789165446559297
2224,0.009138446967788738,0.7789165446559297
2225,0.009138446967788738,0.7790080527086384
2226,0.00914348470040604,0.7790080527086384
2227,0.00914348470040604,0.779099560761347
2228,0.009153560165640649,0.779099560761347
2229,0.009153560165640649,0.7794655929721815
2230,0.009158597898257952,0.7794655929721815
2231,0.009158597898257952,0.7798316251830161
2232,0.00916867336349256,0.7798316251830161
2233,0.00916867336349256,0.7799231332357247
2234,0.009178748828727167,0.7799231332357247
2235,0.009178748828727167,0.7800146412884333
2236,0.009208975224430989,0.7800146412884333
2237,0.009208975224430989,0.780106149341142
2238,0.0092240884222829,0.780106149341142
2239,0.0092240884222829,0.780380673499268
2240,0.009229126154900203,0.780380673499268
2241,0.009229126154900203,0.7804721815519766
2242,0.009234163887517506,0.7804721815519766
2243,0.009234163887517506,0.7805636896046853
2244,0.00923920162013481,0.7805636896046853
2245,0.00923920162013481,0.7806551976573939
2246,0.009279503481073238,0.7806551976573939
2247,0.009279503481073238,0.7807467057101025
2248,0.009284541213690543,0.7807467057101025
2249,0.009284541213690543,0.7808382137628112
2250,0.009289578946307846,0.7808382137628112
2251,0.009289578946307846,0.7810212298682284
2252,0.009304692144159757,0.7810212298682284
2253,0.009304692144159757,0.781112737920937
2254,0.009314767609394363,0.781112737920937
2255,0.009314767609394363,0.7812042459736457
2256,0.00932484307462897,0.7812042459736457
2257,0.00932484307462897,0.7814787701317716
2258,0.00935003173771549,0.7814787701317716
2259,0.00935003173771549,0.7817532942898975
2260,0.009360107202950095,0.7817532942898975
2261,0.009360107202950095,0.7818448023426061
2262,0.0093651449355674,0.7818448023426061
2263,0.0093651449355674,0.7819363103953147
2264,0.009375220400802006,0.7819363103953147
2265,0.009375220400802006,0.7820278184480234
2266,0.009410484529123133,0.7820278184480234
2267,0.009410484529123133,0.782119326500732
2268,0.009415522261740436,0.782119326500732
2269,0.009415522261740436,0.7822108345534406
2270,0.00943567319220965,0.7822108345534406
2271,0.00943567319220965,0.7823023426061494
2272,0.009440710924826954,0.7823023426061494
2273,0.009440710924826954,0.782393850658858
2274,0.00945078639006156,0.782393850658858
2275,0.00945078639006156,0.7825768667642753
2276,0.009465899587913471,0.7825768667642753
2277,0.009465899587913471,0.7829428989751098
2278,0.009486050518382687,0.7829428989751098
2279,0.009486050518382687,0.7830344070278185
2280,0.00949108825099999,0.7830344070278185
2281,0.00949108825099999,0.7832174231332357
2282,0.009501163716234598,0.7832174231332357
2283,0.009501163716234598,0.7833089311859444
2284,0.009516276914086508,0.7833089311859444
2285,0.009516276914086508,0.783400439238653
2286,0.009541465577173025,0.783400439238653
2287,0.009541465577173025,0.7834919472913616
2288,0.009561616507642241,0.7834919472913616
2289,0.009561616507642241,0.7836749633967789
2290,0.009586805170728758,0.7836749633967789
2291,0.009586805170728758,0.7837664714494875
2292,0.009591842903346063,0.7837664714494875
2293,0.009591842903346063,0.7838579795021962
2294,0.009596880635963366,0.7838579795021962
2295,0.009596880635963366,0.7840409956076134
2296,0.009642220229519098,0.7840409956076134
2297,0.009642220229519098,0.7841325036603221
2298,0.009662371159988312,0.7841325036603221
2299,0.009662371159988312,0.7842240117130308
2300,0.009677484357840223,0.7842240117130308
2301,0.009677484357840223,0.7843155197657394
2302,0.00968755982307483,0.7843155197657394
2303,0.00968755982307483,0.7844985358711567
2304,0.009702673020926741,0.7844985358711567
2305,0.009702673020926741,0.7845900439238653
2306,0.009707710753544044,0.7845900439238653
2307,0.009707710753544044,0.7847730600292826
2308,0.009722823951395955,0.7847730600292826
2309,0.009722823951395955,0.7848645680819912
2310,0.009763125812334385,0.7848645680819912
2311,0.009763125812334385,0.7850475841874085
2312,0.00981350313850742,0.7850475841874085
2313,0.00981350313850742,0.7852306002928258
2314,0.009818540871124725,0.7852306002928258
2315,0.009818540871124725,0.7853221083455344
2316,0.009823578603742028,0.7853221083455344
2317,0.009823578603742028,0.785413616398243
2318,0.009838691801593939,0.785413616398243
2319,0.009838691801593939,0.7855051244509517
2320,0.00985380499944585,0.7855051244509517
2321,0.00985380499944585,0.7855966325036603
2322,0.009858842732063153,0.7855966325036603
2323,0.009858842732063153,0.7856881405563689
2324,0.00986891819729776,0.7856881405563689
2325,0.00986891819729776,0.7858711566617862
2326,0.009878993662532367,0.7858711566617862
2327,0.009878993662532367,0.7859626647144948
2328,0.009884031395149671,0.7859626647144948
2329,0.009884031395149671,0.7861456808199122
2330,0.009889069127766974,0.7861456808199122
2331,0.009889069127766974,0.7864202049780381
2332,0.009894106860384277,0.7864202049780381
2333,0.009894106860384277,0.7865117130307467
2334,0.009929370988705404,0.7865117130307467
2335,0.009929370988705404,0.7866032210834554
2336,0.009934408721322707,0.7866032210834554
2337,0.009934408721322707,0.7868777452415813
2338,0.009944484186557315,0.7868777452415813
2339,0.009944484186557315,0.7871522693997072
2340,0.00995455965179192,0.7871522693997072
2341,0.00995455965179192,0.7872437774524158
2342,0.009964635117026529,0.7872437774524158
2343,0.009964635117026529,0.7875183016105417
2344,0.009974710582261136,0.7875183016105417
2345,0.009974710582261136,0.7876098096632503
2346,0.00999486151273035,0.7876098096632503
2347,0.00999486151273035,0.787701317715959
2348,0.009999899245347653,0.787701317715959
2349,0.009999899245347653,0.7877928257686676
2350,0.010004936977964958,0.7877928257686676
2351,0.010004936977964958,0.7878843338213762
2352,0.010009974710582261,0.7878843338213762
2353,0.010009974710582261,0.7879758418740849
2354,0.010015012443199564,0.7879758418740849
2355,0.010015012443199564,0.7880673499267935
2356,0.010030125641051475,0.7880673499267935
2357,0.010030125641051475,0.7881588579795022
2358,0.010040201106286083,0.7881588579795022
2359,0.010040201106286083,0.7884333821376281
2360,0.010045238838903386,0.7884333821376281
2361,0.010045238838903386,0.7886163982430454
2362,0.01005027657152069,0.7886163982430454
2363,0.01005027657152069,0.788707906295754
2364,0.010065389769372601,0.788707906295754
2365,0.010065389769372601,0.7888909224011713
2366,0.010080502967224512,0.7888909224011713
2367,0.010080502967224512,0.7893484626647145
2368,0.010090578432459118,0.7893484626647145
2369,0.010090578432459118,0.7895314787701317
2370,0.010100653897693726,0.7895314787701317
2371,0.010100653897693726,0.7896229868228404
2372,0.010105691630311029,0.7896229868228404
2373,0.010105691630311029,0.7898060029282576
2374,0.010125842560780245,0.7898060029282576
2375,0.010125842560780245,0.7900805270863837
2376,0.010156068956484066,0.7900805270863837
2377,0.010156068956484066,0.7903550512445096
2378,0.01016110668910137,0.7903550512445096
2379,0.01016110668910137,0.7904465592972182
2380,0.010166144421718672,0.7904465592972182
2381,0.010166144421718672,0.7905380673499268
2382,0.010181257619570583,0.7905380673499268
2383,0.010181257619570583,0.7907210834553441
2384,0.010206446282657102,0.7907210834553441
2385,0.010206446282657102,0.7909040995607614
2386,0.010226597213126316,0.7909040995607614
2387,0.010226597213126316,0.79099560761347
2388,0.010236672678360923,0.79099560761347
2389,0.010236672678360923,0.7910871156661786
2390,0.010246748143595531,0.7910871156661786
2391,0.010246748143595531,0.7913616398243045
2392,0.010251785876212834,0.7913616398243045
2393,0.010251785876212834,0.7914531478770132
2394,0.010271936806682048,0.7914531478770132
2395,0.010271936806682048,0.791727672035139
2396,0.010276974539299353,0.791727672035139
2397,0.010276974539299353,0.7918191800878477
2398,0.01030216320238587,0.7918191800878477
2399,0.01030216320238587,0.7919106881405563
2400,0.010307200935003175,0.7919106881405563
2401,0.010307200935003175,0.7921852122986823
2402,0.010312238667620478,0.7921852122986823
2403,0.010312238667620478,0.792276720351391
2404,0.010322314132855085,0.792276720351391
2405,0.010322314132855085,0.7923682284040996
2406,0.010332389598089691,0.7923682284040996
2407,0.010332389598089691,0.7924597364568082
2408,0.010337427330706996,0.7924597364568082
2409,0.010337427330706996,0.7925512445095169
2410,0.010347502795941602,0.7925512445095169
2411,0.010347502795941602,0.7928257686676428
2412,0.010352540528558907,0.7928257686676428
2413,0.010352540528558907,0.7929172767203514
2414,0.010382766924262727,0.7929172767203514
2415,0.010382766924262727,0.7931002928257687
2416,0.010397880122114638,0.7931002928257687
2417,0.010397880122114638,0.7931918008784773
2418,0.010402917854731943,0.7931918008784773
2419,0.010402917854731943,0.7932833089311859
2420,0.010407955587349246,0.7932833089311859
2421,0.010407955587349246,0.7933748169838946
2422,0.01044321971567037,0.7933748169838946
2423,0.01044321971567037,0.7934663250366032
2424,0.010458332913522281,0.7934663250366032
2425,0.010458332913522281,0.7935578330893118
2426,0.010468408378756889,0.7935578330893118
2427,0.010468408378756889,0.7936493411420205
2428,0.010478483843991497,0.7936493411420205
2429,0.010478483843991497,0.7938323572474377
2430,0.0104835215766088,0.7938323572474377
2431,0.0104835215766088,0.7941068814055637
2432,0.010493597041843408,0.7941068814055637
2433,0.010493597041843408,0.794289897510981
2434,0.01049863477446071,0.794289897510981
2435,0.01049863477446071,0.7947474377745242
2436,0.010503672507078014,0.7947474377745242
2437,0.010503672507078014,0.7949304538799414
2438,0.01053893663539914,0.7949304538799414
2439,0.01053893663539914,0.7950219619326501
2440,0.01055404983325105,0.7950219619326501
2441,0.01055404983325105,0.7951134699853587
2442,0.010559087565868354,0.7951134699853587
2443,0.010559087565868354,0.7952049780380673
2444,0.010564125298485657,0.7952049780380673
2445,0.010564125298485657,0.795296486090776
2446,0.010589313961572176,0.795296486090776
2447,0.010589313961572176,0.7953879941434846
2448,0.010604427159424086,0.7953879941434846
2449,0.010604427159424086,0.7954795021961932
2450,0.01060946489204139,0.7954795021961932
2451,0.01060946489204139,0.7955710102489019
2452,0.010614502624658694,0.7955710102489019
2453,0.010614502624658694,0.7956625183016105
2454,0.010629615822510605,0.7956625183016105
2455,0.010629615822510605,0.7957540263543191
2456,0.010634653555127908,0.7957540263543191
2457,0.010634653555127908,0.7958455344070278
2458,0.010639691287745211,0.7958455344070278
2459,0.010639691287745211,0.7959370424597365
2460,0.010644729020362516,0.7959370424597365
2461,0.010644729020362516,0.7961200585651538
2462,0.010649766752979819,0.7961200585651538
2463,0.010649766752979819,0.7963945827232797
2464,0.010654804485597122,0.7963945827232797
2465,0.010654804485597122,0.7964860907759883
2466,0.010659842218214427,0.7964860907759883
2467,0.010659842218214427,0.7967606149341142
2468,0.01066487995083173,0.7967606149341142
2469,0.01066487995083173,0.7968521229868228
2470,0.010674955416066337,0.7968521229868228
2471,0.010674955416066337,0.7969436310395315
2472,0.01067999314868364,0.7969436310395315
2473,0.01067999314868364,0.7971266471449487
2474,0.010715257277004765,0.7971266471449487
2475,0.010715257277004765,0.7972181551976574
2476,0.01072029500962207,0.7972181551976574
2477,0.01072029500962207,0.7974926793557833
2478,0.010725332742239373,0.7974926793557833
2479,0.010725332742239373,0.7976756954612005
2480,0.010760596870560498,0.7976756954612005
2481,0.010760596870560498,0.7977672035139092
2482,0.010770672335795105,0.7977672035139092
2483,0.010770672335795105,0.7978587115666179
2484,0.010780747801029713,0.7978587115666179
2485,0.010780747801029713,0.7979502196193266
2486,0.010785785533647016,0.7979502196193266
2487,0.010785785533647016,0.7980417276720352
2488,0.01079082326626432,0.7980417276720352
2489,0.01079082326626432,0.7981332357247438
2490,0.010800898731498927,0.7981332357247438
2491,0.010800898731498927,0.7982247437774525
2492,0.010810974196733535,0.7982247437774525
2493,0.010810974196733535,0.7983162518301611
2494,0.010816011929350838,0.7983162518301611
2495,0.010816011929350838,0.7984077598828697
2496,0.010821049661968141,0.7984077598828697
2497,0.010821049661968141,0.7984992679355783
2498,0.010836162859820052,0.7984992679355783
2499,0.010836162859820052,0.7986822840409956
2500,0.010856313790289267,0.7986822840409956
2501,0.010856313790289267,0.7987737920937042
2502,0.010866389255523873,0.7987737920937042
2503,0.010866389255523873,0.7990483162518301
2504,0.010876464720758481,0.7990483162518301
2505,0.010876464720758481,0.7992313323572474
2506,0.010906691116462303,0.7992313323572474
2507,0.010906691116462303,0.799322840409956
2508,0.010957068442635338,0.799322840409956
2509,0.010957068442635338,0.7994143484626647
2510,0.010967143907869946,0.7994143484626647
2511,0.010967143907869946,0.799597364568082
2512,0.01097218164048725,0.799597364568082
2513,0.01097218164048725,0.7996888726207906
2514,0.010982257105721857,0.7996888726207906
2515,0.010982257105721857,0.7999633967789166
2516,0.010992332570956463,0.7999633967789166
2517,0.010992332570956463,0.8000549048316252
2518,0.011012483501425679,0.8000549048316252
2519,0.011012483501425679,0.8001464128843339
2520,0.0110427098971295,0.8001464128843339
2521,0.0110427098971295,0.8003294289897511
2522,0.011052785362364106,0.8003294289897511
2523,0.011052785362364106,0.8005124450951684
2524,0.011057823094981411,0.8005124450951684
2525,0.011057823094981411,0.800603953147877
2526,0.011077974025450625,0.800603953147877
2527,0.011077974025450625,0.8007869692532943
2528,0.011088049490685233,0.8007869692532943
2529,0.011088049490685233,0.8008784773060029
2530,0.011118275886389055,0.8008784773060029
2531,0.011118275886389055,0.8009699853587116
2532,0.011123313619006358,0.8009699853587116
2533,0.011123313619006358,0.8010614934114202
2534,0.01116865321256209,0.8010614934114202
2535,0.01116865321256209,0.8011530014641288
2536,0.011173690945179393,0.8011530014641288
2537,0.011173690945179393,0.8013360175695461
2538,0.011183766410414001,0.8013360175695461
2539,0.011183766410414001,0.8015190336749634
2540,0.011198879608265912,0.8015190336749634
2541,0.011198879608265912,0.801610541727672
2542,0.01120895507350052,0.801610541727672
2543,0.01120895507350052,0.8017020497803806
2544,0.011213992806117823,0.8017020497803806
2545,0.011213992806117823,0.8017935578330894
2546,0.011219030538735126,0.8017935578330894
2547,0.011219030538735126,0.8022510980966325
2548,0.01122406827135243,0.8022510980966325
2549,0.01122406827135243,0.8023426061493412
2550,0.011234143736587036,0.8023426061493412
2551,0.011234143736587036,0.8027086383601757
2552,0.011254294667056252,0.8027086383601757
2553,0.011254294667056252,0.8028001464128843
2554,0.011259332399673555,0.8028001464128843
2555,0.011259332399673555,0.8029831625183016
2556,0.011279483330142769,0.8029831625183016
2557,0.011279483330142769,0.8031661786237189
2558,0.011284521062760074,0.8031661786237189
2559,0.011284521062760074,0.8032576866764275
2560,0.01129459652799468,0.8032576866764275
2561,0.01129459652799468,0.8033491947291361
2562,0.011304671993229288,0.8033491947291361
2563,0.011304671993229288,0.8034407027818448
2564,0.01130970972584659,0.8034407027818448
2565,0.01130970972584659,0.8037152269399708
2566,0.011319785191081198,0.8037152269399708
2567,0.011319785191081198,0.803898243045388
2568,0.011370162517254234,0.803898243045388
2569,0.011370162517254234,0.8040812591508053
2570,0.011395351180340752,0.8040812591508053
2571,0.011395351180340752,0.8042642752562226
2572,0.01140542664557536,0.8042642752562226
2573,0.01140542664557536,0.8043557833089312
2574,0.011410464378192663,0.8043557833089312
2575,0.011410464378192663,0.8045387994143485
2576,0.011415502110809966,0.8045387994143485
2577,0.011415502110809966,0.8046303074670571
2578,0.011430615308661877,0.8046303074670571
2579,0.011430615308661877,0.8047218155197657
2580,0.01143565304127918,0.8047218155197657
2581,0.01143565304127918,0.8048133235724744
2582,0.011450766239131091,0.8048133235724744
2583,0.011450766239131091,0.804904831625183
2584,0.011465879436983002,0.804904831625183
2585,0.011465879436983002,0.8052708638360175
2586,0.01147595490221761,0.8052708638360175
2587,0.01147595490221761,0.8053623718887262
2588,0.011480992634834913,0.8053623718887262
2589,0.011480992634834913,0.8054538799414348
2590,0.011486030367452217,0.8054538799414348
2591,0.011486030367452217,0.8055453879941434
2592,0.011516256763156039,0.8055453879941434
2593,0.011516256763156039,0.8056368960468521
2594,0.011536407693625253,0.8056368960468521
2595,0.011536407693625253,0.8057284040995608
2596,0.01154648315885986,0.8057284040995608
2597,0.01154648315885986,0.8060029282576867
2598,0.011561596356711772,0.8060029282576867
2599,0.011561596356711772,0.8060944363103953
2600,0.011566634089329075,0.8060944363103953
2601,0.011566634089329075,0.8062774524158126
2602,0.011571671821946378,0.8062774524158126
2603,0.011571671821946378,0.8063689604685212
2604,0.011576709554563682,0.8063689604685212
2605,0.011576709554563682,0.8064604685212299
2606,0.011581747287180985,0.8064604685212299
2607,0.011581747287180985,0.8068265007320644
2608,0.011586785019798288,0.8068265007320644
2609,0.011586785019798288,0.806918008784773
2610,0.01161701141550211,0.806918008784773
2611,0.01161701141550211,0.8070095168374817
2612,0.011622049148119415,0.8070095168374817
2613,0.011622049148119415,0.8071010248901903
2614,0.011642200078588629,0.8071010248901903
2615,0.011642200078588629,0.8071925329428989
2616,0.011652275543823237,0.8071925329428989
2617,0.011652275543823237,0.8072840409956076
2618,0.01167242647429245,0.8072840409956076
2619,0.01167242647429245,0.8073755490483162
2620,0.011697615137378969,0.8073755490483162
2621,0.011697615137378969,0.8074670571010248
2622,0.011717766067848183,0.8074670571010248
2623,0.011717766067848183,0.8077415812591509
2624,0.011732879265700094,0.8077415812591509
2625,0.011732879265700094,0.8078330893118595
2626,0.011747992463552005,0.8078330893118595
2627,0.011747992463552005,0.8079245973645681
2628,0.011763105661403915,0.8079245973645681
2629,0.011763105661403915,0.8081076134699854
2630,0.011778218859255826,0.8081076134699854
2631,0.011778218859255826,0.808199121522694
2632,0.011818520720194256,0.808199121522694
2633,0.011818520720194256,0.8082906295754027
2634,0.011843709383280773,0.8082906295754027
2635,0.011843709383280773,0.8084736456808199
2636,0.011848747115898077,0.8084736456808199
2637,0.011848747115898077,0.8086566617862372
2638,0.011858822581132683,0.8086566617862372
2639,0.011858822581132683,0.8087481698389458
2640,0.011863860313749988,0.8087481698389458
2641,0.011863860313749988,0.809205710102489
2642,0.011873935778984594,0.809205710102489
2643,0.011873935778984594,0.8092972181551976
2644,0.011878973511601899,0.8092972181551976
2645,0.011878973511601899,0.8095717423133236
2646,0.011884011244219202,0.8095717423133236
2647,0.011884011244219202,0.8096632503660323
2648,0.011904162174688416,0.8096632503660323
2649,0.011904162174688416,0.8097547584187409
2650,0.011919275372540327,0.8097547584187409
2651,0.011919275372540327,0.8098462664714495
2652,0.011924313105157631,0.8098462664714495
2653,0.011924313105157631,0.8099377745241582
2654,0.011939426303009542,0.8099377745241582
2655,0.011939426303009542,0.8101207906295754
2656,0.011944464035626845,0.8101207906295754
2657,0.011944464035626845,0.8102122986822841
2658,0.011969652698713362,0.8102122986822841
2659,0.011969652698713362,0.8103038067349927
2660,0.011999879094417184,0.8103038067349927
2661,0.011999879094417184,0.81048682284041
2662,0.012004916827034489,0.81048682284041
2663,0.012004916827034489,0.8105783308931186
2664,0.012009954559651792,0.8105783308931186
2665,0.012009954559651792,0.8107613469985359
2666,0.012014992292269095,0.8107613469985359
2667,0.012014992292269095,0.8108528550512445
2668,0.01203514322273831,0.8108528550512445
2669,0.01203514322273831,0.8109443631039531
2670,0.012040180955355613,0.8109443631039531
2671,0.012045218687972916,0.8110358711566618
2672,0.012065369618442132,0.8110358711566618
2673,0.012065369618442132,0.8111273792093704
2674,0.012075445083676738,0.8111273792093704
2675,0.012075445083676738,0.811218887262079
2676,0.012080482816294043,0.811218887262079
2677,0.012080482816294043,0.8113103953147877
