,fpr,tpr
0,0.0,0.0
1,1.6518004625041296e-05,0.0
2,3.303600925008259e-05,0.0
3,3.303600925008259e-05,0.001388888888888889
4,4.955401387512388e-05,0.001388888888888889
5,4.955401387512388e-05,0.00625
6,6.607201850016519e-05,0.00625
7,6.607201850016519e-05,0.019444444444444445
8,6.607201850016519e-05,0.020833333333333332
9,6.607201850016519e-05,0.04652777777777778
10,8.259002312520647e-05,0.04652777777777778
11,8.259002312520647e-05,0.06527777777777778
12,9.910802775024777e-05,0.06527777777777778
13,9.910802775024777e-05,0.06944444444444445
14,0.00011562603237528906,0.06944444444444445
15,0.00011562603237528906,0.07222222222222222
16,0.00013214403700033037,0.07222222222222222
17,0.00013214403700033037,0.08194444444444444
18,0.00013214403700033037,0.08333333333333333
19,0.00013214403700033037,0.08402777777777778
20,0.00014866204162537167,0.08402777777777778
21,0.00014866204162537167,0.08541666666666667
22,0.00016518004625041294,0.08541666666666667
23,0.00016518004625041294,0.08680555555555555
24,0.00018169805087545423,0.08680555555555555
25,0.00018169805087545423,0.08888888888888889
26,0.00019821605550049553,0.08888888888888889
27,0.00019821605550049553,0.08958333333333333
28,0.00021473406012553683,0.08958333333333333
29,0.00021473406012553683,0.09444444444444444
30,0.00021473406012553683,0.09583333333333334
31,0.00021473406012553683,0.09652777777777778
32,0.00021473406012553683,0.09791666666666667
33,0.00021473406012553683,0.10347222222222222
34,0.00023125206475057812,0.10347222222222222
35,0.00023125206475057812,0.10625
36,0.0002477700693756194,0.10625
37,0.0002477700693756194,0.11041666666666666
38,0.00026428807400066074,0.1111111111111111
39,0.00026428807400066074,0.11180555555555556
40,0.000280806078625702,0.11180555555555556
41,0.000280806078625702,0.11597222222222223
42,0.00029732408325074334,0.11597222222222223
43,0.00029732408325074334,0.12986111111111112
44,0.0003138420878757846,0.12986111111111112
45,0.0003138420878757846,0.13194444444444445
46,0.0003138420878757846,0.13333333333333333
47,0.0003138420878757846,0.1486111111111111
48,0.0003468780971258672,0.1486111111111111
49,0.0003468780971258672,0.15347222222222223
50,0.00036339610175090847,0.15347222222222223
51,0.00036339610175090847,0.1625
52,0.0003799141063759498,0.1625
53,0.0003799141063759498,0.16458333333333333
54,0.00039643211100099106,0.16458333333333333
55,0.00039643211100099106,0.16597222222222222
56,0.0004129501156260324,0.16597222222222222
57,0.0004129501156260324,0.17083333333333334
58,0.00042946812025107365,0.17083333333333334
59,0.00042946812025107365,0.17291666666666666
60,0.000445986124876115,0.17291666666666666
61,0.000445986124876115,0.1840277777777778
62,0.00046250412950115625,0.1840277777777778
63,0.00046250412950115625,0.19027777777777777
64,0.00047902213412619757,0.19027777777777777
65,0.00047902213412619757,0.19375
66,0.0004955401387512388,0.19375
67,0.0004955401387512388,0.20069444444444445
68,0.0005120581433762802,0.20069444444444445
69,0.0005120581433762802,0.20208333333333334
70,0.0005285761480013215,0.20208333333333334
71,0.0005285761480013215,0.21041666666666667
72,0.0005450941526263627,0.21041666666666667
73,0.0005450941526263627,0.2263888888888889
74,0.000561612157251404,0.2263888888888889
75,0.000561612157251404,0.22777777777777777
76,0.0005946481665014867,0.22777777777777777
77,0.0005946481665014867,0.23541666666666666
78,0.0006111661711265279,0.23541666666666666
79,0.0006111661711265279,0.24513888888888888
80,0.0006442021803766105,0.24513888888888888
81,0.0006442021803766105,0.2465277777777778
82,0.0006607201850016518,0.2465277777777778
83,0.0006607201850016518,0.24722222222222223
84,0.0006772381896266931,0.24722222222222223
85,0.0006772381896266931,0.25
86,0.0006937561942517344,0.25
87,0.0006937561942517344,0.25555555555555554
88,0.0007102741988767757,0.25555555555555554
89,0.0007102741988767757,0.2604166666666667
90,0.0007267922035018169,0.2604166666666667
91,0.0007267922035018169,0.26180555555555557
92,0.0007433102081268583,0.26180555555555557
93,0.0007433102081268583,0.2625
94,0.0007598282127518996,0.2625
95,0.0007598282127518996,0.2638888888888889
96,0.0007763462173769409,0.2638888888888889
97,0.0007763462173769409,0.27291666666666664
98,0.0007928642220019821,0.27291666666666664
99,0.0007928642220019821,0.28055555555555556
100,0.0008093822266270234,0.28055555555555556
101,0.0008093822266270234,0.28194444444444444
102,0.0008424182358771061,0.28194444444444444
103,0.0008424182358771061,0.2847222222222222
104,0.0008589362405021473,0.2847222222222222
105,0.0008589362405021473,0.2875
106,0.0008754542451271886,0.2875
107,0.0008754542451271886,0.2902777777777778
108,0.0008754542451271886,0.2916666666666667
109,0.0008754542451271886,0.29791666666666666
110,0.00089197224975223,0.29791666666666666
111,0.00089197224975223,0.3
112,0.0009084902543772713,0.3
113,0.0009084902543772713,0.30486111111111114
114,0.0009250082590023125,0.30486111111111114
115,0.0009250082590023125,0.3111111111111111
116,0.0009415262636273538,0.3111111111111111
117,0.0009415262636273538,0.3125
118,0.0009415262636273538,0.3138888888888889
119,0.0009415262636273538,0.3194444444444444
120,0.0009910802775024777,0.3194444444444444
121,0.0009910802775024777,0.32430555555555557
122,0.001007598282127519,0.32430555555555557
123,0.001007598282127519,0.3284722222222222
124,0.0010241162867525603,0.3284722222222222
125,0.0010241162867525603,0.3298611111111111
126,0.0010241162867525603,0.33125
127,0.0010241162867525603,0.33194444444444443
128,0.0010406342913776017,0.33194444444444443
129,0.0010406342913776017,0.33541666666666664
130,0.001057152296002643,0.33541666666666664
131,0.001057152296002643,0.34097222222222223
132,0.001057152296002643,0.3423611111111111
133,0.001057152296002643,0.3451388888888889
134,0.001073670300627684,0.3451388888888889
135,0.001073670300627684,0.34791666666666665
136,0.0010901883052527254,0.34791666666666665
137,0.0010901883052527254,0.35694444444444445
138,0.0011067063098777667,0.35694444444444445
139,0.0011067063098777667,0.3576388888888889
140,0.0011562603237528907,0.3576388888888889
141,0.0011562603237528907,0.3597222222222222
142,0.001172778328377932,0.3597222222222222
143,0.001172778328377932,0.36527777777777776
144,0.0011892963330029733,0.36527777777777776
145,0.0011892963330029733,0.3736111111111111
146,0.0012223323422530558,0.3736111111111111
147,0.0012223323422530558,0.38333333333333336
148,0.001238850346878097,0.38333333333333336
149,0.001238850346878097,0.3888888888888889
150,0.0012553683515031384,0.3888888888888889
151,0.0012553683515031384,0.3909722222222222
152,0.0012718863561281797,0.3909722222222222
153,0.0012718863561281797,0.3958333333333333
154,0.001288404360753221,0.3958333333333333
155,0.001288404360753221,0.39861111111111114
156,0.0013214403700033035,0.39861111111111114
157,0.0013214403700033035,0.4041666666666667
158,0.0013379583746283448,0.4041666666666667
159,0.0013379583746283448,0.4048611111111111
160,0.0013544763792533861,0.4048611111111111
161,0.0013544763792533861,0.40902777777777777
162,0.0013709943838784275,0.40902777777777777
163,0.0013709943838784275,0.425
164,0.0013875123885034688,0.425
165,0.0013875123885034688,0.4270833333333333
166,0.0014040303931285101,0.4270833333333333
167,0.0014040303931285101,0.42777777777777776
168,0.0014205483977535514,0.42777777777777776
169,0.0014205483977535514,0.4284722222222222
170,0.0014370664023785928,0.4284722222222222
171,0.0014370664023785928,0.42986111111111114
172,0.0014535844070036339,0.42986111111111114
173,0.0014535844070036339,0.43194444444444446
174,0.0015031384208787578,0.43194444444444446
175,0.0015031384208787578,0.4326388888888889
176,0.0015031384208787578,0.4340277777777778
177,0.0015031384208787578,0.4375
178,0.0015196564255037992,0.4375
179,0.0015361744301288405,0.43819444444444444
180,0.0015526924347538818,0.43819444444444444
181,0.0015526924347538818,0.4423611111111111
182,0.001569210439378923,0.4423611111111111
183,0.001569210439378923,0.44375
184,0.001569210439378923,0.4444444444444444
185,0.0015857284440039642,0.4444444444444444
186,0.0015857284440039642,0.44513888888888886
187,0.001618764453254047,0.44513888888888886
188,0.001618764453254047,0.4513888888888889
189,0.0016352824578790882,0.4513888888888889
190,0.0016352824578790882,0.46041666666666664
191,0.0016518004625041295,0.46041666666666664
192,0.0016518004625041295,0.4618055555555556
193,0.0016683184671291709,0.4618055555555556
194,0.0016683184671291709,0.46944444444444444
195,0.0016848364717542122,0.46944444444444444
196,0.0016848364717542122,0.47847222222222224
197,0.0017013544763792533,0.47847222222222224
198,0.0017013544763792533,0.48194444444444445
199,0.0017178724810042946,0.48194444444444445
200,0.0017178724810042946,0.48333333333333334
201,0.001734390485629336,0.48333333333333334
202,0.001734390485629336,0.4840277777777778
203,0.0017674264948794186,0.4840277777777778
204,0.0017674264948794186,0.48541666666666666
205,0.00178394449950446,0.48541666666666666
206,0.00178394449950446,0.4875
207,0.0018004625041295012,0.4875
208,0.0018004625041295012,0.4895833333333333
209,0.0018334985133795837,0.4895833333333333
210,0.0018334985133795837,0.5020833333333333
211,0.001850016518004625,0.5020833333333333
212,0.001850016518004625,0.5027777777777778
213,0.0018665345226296663,0.5027777777777778
214,0.0018665345226296663,0.5041666666666667
215,0.0018830525272547076,0.5041666666666667
216,0.0018830525272547076,0.5048611111111111
217,0.001899570531879749,0.5048611111111111
218,0.001899570531879749,0.5097222222222222
219,0.001965642550379914,0.5097222222222222
220,0.001965642550379914,0.5152777777777777
221,0.0019821605550049554,0.5152777777777777
222,0.0019821605550049554,0.5159722222222223
223,0.0019986785596299967,0.5159722222222223
224,0.0019986785596299967,0.5236111111111111
225,0.002015196564255038,0.5236111111111111
226,0.002015196564255038,0.5277777777777778
227,0.0020317145688800793,0.5277777777777778
228,0.0020317145688800793,0.5284722222222222
229,0.0020482325735051207,0.5284722222222222
230,0.0020482325735051207,0.5291666666666667
231,0.002064750578130162,0.5291666666666667
232,0.002064750578130162,0.5368055555555555
233,0.0020812685827552033,0.5368055555555555
234,0.0020812685827552033,0.5388888888888889
235,0.002114304592005286,0.5388888888888889
236,0.002114304592005286,0.5402777777777777
237,0.0021638586058804095,0.5402777777777777
238,0.0021638586058804095,0.5409722222222222
239,0.002196894615130492,0.5409722222222222
240,0.002196894615130492,0.5416666666666666
241,0.0022299306243805748,0.5416666666666666
242,0.0022299306243805748,0.5430555555555555
243,0.002246448629005616,0.5430555555555555
244,0.002246448629005616,0.5465277777777777
245,0.0022629666336306574,0.5465277777777777
246,0.0022629666336306574,0.5472222222222223
247,0.0022794846382556988,0.5472222222222223
248,0.0022794846382556988,0.5493055555555556
249,0.00229600264288074,0.5493055555555556
250,0.00229600264288074,0.5506944444444445
251,0.0023125206475057814,0.5506944444444445
252,0.0023125206475057814,0.5541666666666667
253,0.0023290386521308227,0.5541666666666667
254,0.0023290386521308227,0.5555555555555556
255,0.002345556656755864,0.5555555555555556
256,0.002345556656755864,0.5583333333333333
257,0.0023620746613809054,0.5583333333333333
258,0.0023620746613809054,0.5604166666666667
259,0.0023785926660059467,0.5604166666666667
260,0.0023785926660059467,0.5645833333333333
261,0.0023951106706309876,0.5645833333333333
262,0.0023951106706309876,0.5652777777777778
263,0.002411628675256029,0.5652777777777778
264,0.002411628675256029,0.56875
265,0.002461182689131153,0.56875
266,0.002461182689131153,0.5694444444444444
267,0.002477700693756194,0.5694444444444444
268,0.002477700693756194,0.5701388888888889
269,0.0024942186983812355,0.5701388888888889
270,0.0024942186983812355,0.5729166666666666
271,0.002527254707631318,0.5729166666666666
272,0.002527254707631318,0.5736111111111111
273,0.0025437727122563595,0.5736111111111111
274,0.0025437727122563595,0.5743055555555555
275,0.002560290716881401,0.5743055555555555
276,0.002560290716881401,0.5763888888888888
277,0.002576808721506442,0.5763888888888888
278,0.002576808721506442,0.5777777777777777
279,0.0025933267261314835,0.5777777777777777
280,0.0025933267261314835,0.5784722222222223
281,0.002609844730756525,0.5784722222222223
282,0.002609844730756525,0.5791666666666667
283,0.002626362735381566,0.5791666666666667
284,0.002626362735381566,0.5805555555555556
285,0.002642880740006607,0.5805555555555556
286,0.002642880740006607,0.5833333333333334
287,0.0026593987446316483,0.5833333333333334
288,0.0026593987446316483,0.5868055555555556
289,0.0027089527585067723,0.5868055555555556
290,0.0027089527585067723,0.5909722222222222
291,0.002741988767756855,0.5909722222222222
292,0.002741988767756855,0.5923611111111111
293,0.0027585067723818963,0.5923611111111111
294,0.0027585067723818963,0.59375
295,0.002791542781631979,0.59375
296,0.002791542781631979,0.5944444444444444
297,0.0028245787908820616,0.5944444444444444
298,0.0028245787908820616,0.5951388888888889
299,0.002857614800132144,0.5951388888888889
300,0.002857614800132144,0.5986111111111111
301,0.0028741328047571855,0.5986111111111111
302,0.0028741328047571855,0.6013888888888889
303,0.0029071688140072677,0.6013888888888889
304,0.0029071688140072677,0.6020833333333333
305,0.0029071688140072677,0.6034722222222222
306,0.0029567228278823917,0.6034722222222222
307,0.0029567228278823917,0.6048611111111111
308,0.002973240832507433,0.6048611111111111
309,0.002973240832507433,0.6055555555555555
310,0.0029897588371324744,0.6055555555555555
311,0.0029897588371324744,0.6083333333333333
312,0.0030062768417575157,0.6083333333333333
313,0.0030062768417575157,0.6097222222222223
314,0.0030393128510075983,0.6097222222222223
315,0.0030393128510075983,0.6104166666666667
316,0.003072348860257681,0.6104166666666667
317,0.003072348860257681,0.6111111111111112
318,0.003121902874132805,0.6111111111111112
319,0.003121902874132805,0.6138888888888889
320,0.003138420878757846,0.6138888888888889
321,0.003138420878757846,0.6152777777777778
322,0.003204492897258011,0.6152777777777778
323,0.003204492897258011,0.6166666666666667
324,0.0032210109018830525,0.6166666666666667
325,0.0032210109018830525,0.6173611111111111
326,0.003303600925008259,0.6173611111111111
327,0.003303600925008259,0.6180555555555556
328,0.0033201189296333004,0.6180555555555556
329,0.0033201189296333004,0.61875
330,0.0033366369342583417,0.61875
331,0.0033366369342583417,0.6201388888888889
332,0.0033696729435084244,0.6201388888888889
333,0.0033696729435084244,0.6208333333333333
334,0.0033861909481334653,0.6208333333333333
335,0.0033861909481334653,0.6215277777777778
336,0.0034027089527585066,0.6215277777777778
337,0.0034027089527585066,0.6243055555555556
338,0.003534852989758837,0.6243055555555556
339,0.003534852989758837,0.6256944444444444
340,0.0035513709943838785,0.6256944444444444
341,0.0035513709943838785,0.6277777777777778
342,0.0036669970267591673,0.6277777777777778
343,0.0036669970267591673,0.6291666666666667
344,0.0036835150313842087,0.6291666666666667
345,0.0036835150313842087,0.6305555555555555
346,0.00370003303600925,0.6305555555555555
347,0.00370003303600925,0.6319444444444444
348,0.0037165510406342913,0.6319444444444444
349,0.0037165510406342913,0.6326388888888889
350,0.0037330690452593326,0.6326388888888889
351,0.0037330690452593326,0.6333333333333333
352,0.003749587049884374,0.6333333333333333
353,0.003749587049884374,0.6354166666666666
354,0.0037826230591344566,0.6354166666666666
355,0.0037826230591344566,0.6361111111111111
356,0.003799141063759498,0.6361111111111111
357,0.003799141063759498,0.6368055555555555
358,0.0038156590683845392,0.6368055555555555
359,0.0038156590683845392,0.6375
360,0.0038321770730095806,0.6375
361,0.0038321770730095806,0.6409722222222223
362,0.003865213082259663,0.6409722222222223
363,0.003865213082259663,0.6423611111111112
364,0.0038982490915097454,0.6423611111111112
365,0.0038982490915097454,0.64375
366,0.003914767096134787,0.64375
367,0.003914767096134787,0.6444444444444445
368,0.003964321110009911,0.6444444444444445
369,0.003964321110009911,0.6451388888888889
370,0.0039808391146349525,0.6451388888888889
371,0.0039808391146349525,0.6472222222222223
372,0.003997357119259993,0.6472222222222223
373,0.003997357119259993,0.6486111111111111
374,0.004030393128510076,0.6486111111111111
375,0.004030393128510076,0.6493055555555556
376,0.004046911133135117,0.6493055555555556
377,0.004046911133135117,0.6527777777777778
378,0.004063429137760159,0.6527777777777778
379,0.004063429137760159,0.6541666666666667
380,0.004096465147010241,0.6541666666666667
381,0.004096465147010241,0.65625
382,0.004162537165510407,0.65625
383,0.004162537165510407,0.6569444444444444
384,0.0042781631978856954,0.6569444444444444
385,0.0042781631978856954,0.6583333333333333
386,0.004327717211760819,0.6583333333333333
387,0.004327717211760819,0.6590277777777778
388,0.004426825239511067,0.6590277777777778
389,0.004426825239511067,0.6597222222222222
390,0.004443343244136109,0.6597222222222222
391,0.004443343244136109,0.6604166666666667
392,0.004476379253386191,0.6604166666666667
393,0.004476379253386191,0.6618055555555555
394,0.004492897258011232,0.6618055555555555
395,0.004492897258011232,0.6625
396,0.004525933267261315,0.6625
397,0.004525933267261315,0.6631944444444444
398,0.004542451271886356,0.6631944444444444
399,0.004542451271886356,0.6638888888888889
400,0.00459200528576148,0.6638888888888889
401,0.00459200528576148,0.6645833333333333
402,0.0046580773042616454,0.6645833333333333
403,0.0046580773042616454,0.6666666666666666
404,0.004674595308886686,0.6666666666666666
405,0.004674595308886686,0.6673611111111111
406,0.004691113313511728,0.6673611111111111
407,0.004691113313511728,0.6680555555555555
408,0.004707631318136769,0.6680555555555555
409,0.004707631318136769,0.66875
410,0.004724149322761811,0.66875
411,0.004724149322761811,0.6694444444444444
412,0.004757185332011893,0.6694444444444444
413,0.004757185332011893,0.6708333333333333
414,0.004773703336636934,0.6708333333333333
415,0.004773703336636934,0.6715277777777777
416,0.004790221341261975,0.6715277777777777
417,0.004790221341261975,0.6722222222222223
418,0.004922365378262306,0.6722222222222223
419,0.004922365378262306,0.675
420,0.004955401387512388,0.675
421,0.004955401387512388,0.6756944444444445
422,0.00497191939213743,0.6756944444444445
423,0.00497191939213743,0.6770833333333334
424,0.004988437396762471,0.6770833333333334
425,0.004988437396762471,0.6777777777777778
426,0.005071027419887677,0.6777777777777778
427,0.005071027419887677,0.6791666666666667
428,0.005087545424512719,0.6791666666666667
429,0.005087545424512719,0.6798611111111111
430,0.00510406342913776,0.6798611111111111
431,0.00510406342913776,0.68125
432,0.0051370994383878425,0.68125
433,0.0051370994383878425,0.6833333333333333
434,0.005170135447637925,0.6833333333333333
435,0.005170135447637925,0.6847222222222222
436,0.005186653452262967,0.6847222222222222
437,0.005186653452262967,0.6881944444444444
438,0.005252725470763132,0.6881944444444444
439,0.005252725470763132,0.6888888888888889
440,0.005269243475388173,0.6888888888888889
441,0.005269243475388173,0.6895833333333333
442,0.005302279484638256,0.6895833333333333
443,0.005302279484638256,0.6909722222222222
444,0.005384869507763462,0.6909722222222222
445,0.005384869507763462,0.6923611111111111
446,0.005434423521638586,0.6923611111111111
447,0.005434423521638586,0.6944444444444444
448,0.005533531549388833,0.6944444444444444
449,0.005533531549388833,0.6951388888888889
450,0.005649157581764123,0.6951388888888889
451,0.005649157581764123,0.6958333333333333
452,0.005764783614139412,0.6958333333333333
453,0.005764783614139412,0.6972222222222222
454,0.005781301618764453,0.6972222222222222
455,0.005781301618764453,0.6986111111111111
456,0.0058969276511397425,0.6986111111111111
457,0.0058969276511397425,0.6993055555555555
458,0.0059960356788899905,0.6993055555555555
459,0.0059960356788899905,0.7
460,0.006045589692765114,0.7
461,0.006045589692765114,0.7006944444444444
462,0.006062107697390155,0.7006944444444444
463,0.006062107697390155,0.7013888888888888
464,0.0060951437066402376,0.7013888888888888
465,0.0060951437066402376,0.7020833333333333
466,0.006111661711265279,0.7020833333333333
467,0.006111661711265279,0.7027777777777777
468,0.00612817971589032,0.7027777777777777
469,0.00612817971589032,0.7034722222222223
470,0.006177733729765445,0.7034722222222223
471,0.006177733729765445,0.7041666666666667
472,0.006227287743640568,0.7041666666666667
473,0.006227287743640568,0.7048611111111112
474,0.006260323752890651,0.7048611111111112
475,0.006260323752890651,0.7055555555555556
476,0.006276841757515692,0.7055555555555556
477,0.006276841757515692,0.70625
478,0.0062933597621407334,0.70625
479,0.0062933597621407334,0.7097222222222223
480,0.006392467789890981,0.7097222222222223
481,0.006392467789890981,0.7104166666666667
482,0.006408985794516022,0.7104166666666667
483,0.006408985794516022,0.7111111111111111
484,0.006425503799141064,0.7111111111111111
485,0.006425503799141064,0.7118055555555556
486,0.006442021803766105,0.7118055555555556
487,0.006442021803766105,0.7125
488,0.006458539808391147,0.7125
489,0.006458539808391147,0.7131944444444445
490,0.006524611826891311,0.7131944444444445
491,0.006524611826891311,0.7138888888888889
492,0.0065741658407664355,0.7138888888888889
493,0.0065741658407664355,0.7152777777777778
494,0.006590683845391476,0.7152777777777778
495,0.006590683845391476,0.7159722222222222
496,0.006607201850016518,0.7159722222222222
497,0.006607201850016518,0.7180555555555556
498,0.006640237859266601,0.7180555555555556
499,0.006640237859266601,0.7194444444444444
500,0.006656755863891642,0.7194444444444444
501,0.006656755863891642,0.7201388888888889
502,0.006706309877766766,0.7201388888888889
503,0.006706309877766766,0.7208333333333333
504,0.00675586389164189,0.7208333333333333
505,0.00675586389164189,0.7222222222222222
506,0.006788899900891972,0.7222222222222222
507,0.006788899900891972,0.7236111111111111
508,0.006821935910142055,0.7236111111111111
509,0.006821935910142055,0.7243055555555555
510,0.006838453914767096,0.7243055555555555
511,0.006838453914767096,0.7256944444444444
512,0.006904525933267261,0.7256944444444444
513,0.006904525933267261,0.7263888888888889
514,0.006970597951767426,0.7263888888888889
515,0.006970597951767426,0.7270833333333333
516,0.006987115956392468,0.7270833333333333
517,0.006987115956392468,0.7277777777777777
518,0.007003633961017509,0.7277777777777777
519,0.007003633961017509,0.7298611111111111
520,0.007069705979517674,0.7298611111111111
521,0.007069705979517674,0.7305555555555555
522,0.007086223984142715,0.7305555555555555
523,0.007086223984142715,0.73125
524,0.007119259993392798,0.73125
525,0.007119259993392798,0.7319444444444444
526,0.00713577799801784,0.7319444444444444
527,0.00713577799801784,0.7333333333333333
528,0.007168814007267922,0.7333333333333333
529,0.007168814007267922,0.7340277777777777
530,0.007185332011892963,0.7340277777777777
531,0.007185332011892963,0.7354166666666667
532,0.007218368021143046,0.7354166666666667
533,0.007218368021143046,0.7375
534,0.00726792203501817,0.7375
535,0.00726792203501817,0.7381944444444445
536,0.007300958044268252,0.7381944444444445
537,0.007300958044268252,0.7388888888888889
538,0.007383548067393459,0.7388888888888889
539,0.007383548067393459,0.7395833333333334
540,0.007449620085893624,0.7395833333333334
541,0.007449620085893624,0.7402777777777778
542,0.007482656095143707,0.7402777777777778
543,0.007482656095143707,0.7409722222222223
544,0.00751569210439379,0.7409722222222223
545,0.00751569210439379,0.7423611111111111
546,0.0075322101090188305,0.7423611111111111
547,0.0075322101090188305,0.7430555555555556
548,0.007763462173769409,0.7430555555555556
549,0.007763462173769409,0.74375
550,0.007813016187644533,0.74375
551,0.007813016187644533,0.7444444444444445
552,0.007879088206144698,0.7444444444444445
553,0.007879088206144698,0.7451388888888889
554,0.007928642220019821,0.7451388888888889
555,0.007928642220019821,0.7458333333333333
556,0.008027750247770069,0.7458333333333333
557,0.008027750247770069,0.7465277777777778
558,0.008159894284770399,0.7465277777777778
559,0.008159894284770399,0.7472222222222222
560,0.008192930294020483,0.7472222222222222
561,0.008192930294020483,0.7479166666666667
562,0.008225966303270564,0.7479166666666667
563,0.008259002312520648,0.7479166666666667
564,0.008275520317145688,0.7479166666666667
565,0.008275520317145688,0.7493055555555556
566,0.008407664354146019,0.7493055555555556
567,0.008407664354146019,0.7506944444444444
568,0.00842418235877106,0.7506944444444444
569,0.00842418235877106,0.7513888888888889
570,0.008506772381896267,0.7513888888888889
571,0.008506772381896267,0.7520833333333333
572,0.008556326395771391,0.7520833333333333
573,0.008556326395771391,0.7527777777777778
574,0.008638916418896598,0.7527777777777778
575,0.008638916418896598,0.7534722222222222
576,0.008704988437396763,0.7534722222222222
577,0.008704988437396763,0.7541666666666667
578,0.008754542451271887,0.7541666666666667
579,0.008754542451271887,0.7548611111111111
580,0.008771060455896929,0.7548611111111111
581,0.008771060455896929,0.7555555555555555
582,0.008787578460521969,0.7555555555555555
583,0.008787578460521969,0.75625
584,0.00880409646514701,0.75625
585,0.00880409646514701,0.7569444444444444
586,0.008820614469772052,0.7569444444444444
587,0.008820614469772052,0.7583333333333333
588,0.008837132474397092,0.7583333333333333
589,0.008837132474397092,0.7597222222222222
590,0.008853650479022134,0.7597222222222222
591,0.008853650479022134,0.7611111111111111
592,0.008936240502147341,0.7611111111111111
593,0.008936240502147341,0.7618055555555555
594,0.009035348529897588,0.7618055555555555
595,0.009035348529897588,0.7625
596,0.009084902543772711,0.7625
597,0.009084902543772711,0.7631944444444444
598,0.009150974562272877,0.7631944444444444
599,0.009150974562272877,0.7645833333333333
600,0.009200528576148002,0.7645833333333333
601,0.009200528576148002,0.7652777777777777
602,0.009233564585398084,0.7652777777777777
603,0.009266600594648167,0.7652777777777777
604,0.009448298645523621,0.7652777777777777
605,0.009448298645523621,0.7673611111111112
606,0.009497852659398745,0.7673611111111112
607,0.009497852659398745,0.7680555555555556
608,0.009629996696399076,0.7680555555555556
609,0.009629996696399076,0.76875
610,0.0096795507102742,0.76875
611,0.009696068714899241,0.7694444444444445
612,0.009745622728774364,0.7694444444444445
613,0.009745622728774364,0.7701388888888889
614,0.009778658738024446,0.7701388888888889
615,0.009778658738024446,0.7708333333333334
616,0.00981169474727453,0.7708333333333334
617,0.00981169474727453,0.7715277777777778
618,0.009976874793524942,0.7715277777777778
619,0.009976874793524942,0.7722222222222223
620,0.010009910802775026,0.7722222222222223
621,0.010009910802775026,0.7736111111111111
622,0.010125536835150314,0.7736111111111111
623,0.010125536835150314,0.7743055555555556
624,0.010175090849025438,0.7743055555555556
625,0.010175090849025438,0.775
626,0.01020812685827552,0.775
627,0.01020812685827552,0.7756944444444445
628,0.010241162867525603,0.7756944444444445
629,0.010241162867525603,0.7770833333333333
630,0.01045589692765114,0.7770833333333333
631,0.01045589692765114,0.7777777777777778
632,0.010538486950776346,0.7777777777777778
633,0.010538486950776346,0.7784722222222222
634,0.010604558969276512,0.7784722222222222
635,0.010604558969276512,0.7791666666666667
636,0.0107201850016518,0.7791666666666667
637,0.010753221010901884,0.7791666666666667
638,0.010769739015526924,0.7791666666666667
639,0.010769739015526924,0.7798611111111111
640,0.01083581103402709,0.7798611111111111
641,0.01083581103402709,0.7805555555555556
642,0.011034027089527585,0.7805555555555556
643,0.011034027089527585,0.78125
644,0.011050545094152627,0.78125
645,0.011050545094152627,0.7826388888888889
646,0.011083581103402709,0.7826388888888889
647,0.011083581103402709,0.7833333333333333
648,0.011199207135777997,0.7833333333333333
649,0.011199207135777997,0.7840277777777778
650,0.01134786917740337,0.7840277777777778
651,0.01134786917740337,0.7847222222222222
652,0.011463495209778659,0.7847222222222222
653,0.011463495209778659,0.7854166666666667
654,0.011513049223653782,0.7854166666666667
655,0.011513049223653782,0.7868055555555555
656,0.011562603237528906,0.7868055555555555
657,0.011562603237528906,0.7875
658,0.01159563924677899,0.7875
659,0.011628675256029071,0.7875
660,0.011694747274529236,0.7875
661,0.011694747274529236,0.7881944444444444
662,0.011793855302279485,0.7881944444444444
663,0.011793855302279485,0.7888888888888889
664,0.011892963330029732,0.7888888888888889
665,0.011892963330029732,0.7895833333333333
666,0.011942517343904856,0.7895833333333333
667,0.01197555335315494,0.7895833333333333
668,0.012091179385530228,0.7895833333333333
669,0.012091179385530228,0.7909722222222222
670,0.012157251404030393,0.7909722222222222
671,0.012157251404030393,0.7923611111111111
672,0.012190287413280475,0.7923611111111111
673,0.012190287413280475,0.7930555555555555
674,0.012289395441030724,0.7930555555555555
675,0.012289395441030724,0.7944444444444444
676,0.012305913445655764,0.7944444444444444
677,0.012338949454905847,0.7944444444444444
678,0.012338949454905847,0.7951388888888888
679,0.012405021473406013,0.7951388888888888
680,0.012405021473406013,0.7958333333333333
681,0.012421539478031055,0.7958333333333333
682,0.012421539478031055,0.7965277777777777
683,0.012553683515031383,0.7965277777777777
684,0.012586719524281467,0.7965277777777777
685,0.01263627353815659,0.7965277777777777
686,0.01263627353815659,0.7986111111111112
687,0.012669309547406674,0.7986111111111112
688,0.012669309547406674,0.8
689,0.012817971589032045,0.8
690,0.012817971589032045,0.8006944444444445
691,0.012900561612157252,0.8006944444444445
692,0.012900561612157252,0.8013888888888889
693,0.01313181367690783,0.8013888888888889
694,0.01313181367690783,0.8020833333333334
695,0.013197885695407995,0.8020833333333334
696,0.013197885695407995,0.8034722222222223
697,0.01326395771390816,0.8034722222222223
698,0.01326395771390816,0.8041666666666667
699,0.013296993723158242,0.8041666666666667
700,0.013296993723158242,0.8055555555555556
701,0.013313511727783283,0.8055555555555556
702,0.013346547737033367,0.8055555555555556
703,0.013462173769408656,0.8055555555555556
704,0.013462173769408656,0.80625
705,0.013544763792533861,0.80625
706,0.013544763792533861,0.8069444444444445
707,0.013610835811034026,0.8069444444444445
708,0.013610835811034026,0.8076388888888889
709,0.013759497852659399,0.8076388888888889
710,0.013759497852659399,0.8083333333333333
711,0.013809051866534522,0.8083333333333333
712,0.013809051866534522,0.8090277777777778
713,0.013941195903534853,0.8090277777777778
714,0.013941195903534853,0.8097222222222222
715,0.013974231912784936,0.8097222222222222
716,0.013974231912784936,0.8111111111111111
717,0.013990749917409976,0.8111111111111111
718,0.013990749917409976,0.8118055555555556
719,0.014188965972910472,0.8118055555555556
720,0.014188965972910472,0.8125
721,0.014222001982160556,0.8125
722,0.014222001982160556,0.8131944444444444
723,0.014255037991410638,0.8131944444444444
724,0.014255037991410638,0.8152777777777778
725,0.01440370003303601,0.8152777777777778
726,0.01440370003303601,0.8159722222222222
727,0.01442021803766105,0.8159722222222222
728,0.01442021803766105,0.8166666666666667
729,0.014998348199537496,0.8166666666666667
730,0.014998348199537496,0.8173611111111111
731,0.015097456227287743,0.8173611111111111
732,0.015097456227287743,0.81875
733,0.015113974231912785,0.81875
734,0.015113974231912785,0.8194444444444444
735,0.01567558638916419,0.8194444444444444
736,0.01567558638916419,0.8201388888888889
737,0.015873802444664683,0.8201388888888889
738,0.015873802444664683,0.8208333333333333
739,0.01593987446316485,0.8208333333333333
740,0.01593987446316485,0.8215277777777777
741,0.015989428477039973,0.8215277777777777
742,0.015989428477039973,0.8222222222222222
743,0.01607201850016518,0.8222222222222222
744,0.01607201850016518,0.8229166666666666
745,0.016154608523290388,0.8229166666666666
746,0.016154608523290388,0.8243055555555555
747,0.016154608523290388,0.825
748,0.016187644532540468,0.825
749,0.016187644532540468,0.8256944444444444
750,0.016237198546415595,0.8256944444444444
751,0.016237198546415595,0.8263888888888888
752,0.016270234555665675,0.8263888888888888
753,0.016270234555665675,0.8270833333333333
754,0.016501486620416252,0.8270833333333333
755,0.016534522629666336,0.8270833333333333
756,0.01699702675916749,0.8270833333333333
757,0.01699702675916749,0.8277777777777777
758,0.017046580773042618,0.8277777777777777
759,0.017046580773042618,0.8284722222222223
760,0.01760819293029402,0.8284722222222223
761,0.01760819293029402,0.8291666666666667
762,0.017657746944169144,0.8291666666666667
763,0.017657746944169144,0.8298611111111112
764,0.017674264948794184,0.8298611111111112
765,0.017674264948794184,0.8305555555555556
766,0.017773372976544435,0.8305555555555556
767,0.017773372976544435,0.83125
768,0.017938553022794845,0.83125
769,0.017938553022794845,0.8319444444444445
770,0.01808721506442022,0.8319444444444445
771,0.01808721506442022,0.8326388888888889
772,0.0181202510736703,0.8326388888888889
773,0.0181202510736703,0.8333333333333334
774,0.018169805087545423,0.8333333333333334
775,0.018169805087545423,0.8340277777777778
776,0.01821935910142055,0.8340277777777778
777,0.01821935910142055,0.8347222222222223
778,0.01823587710604559,0.8347222222222223
779,0.01823587710604559,0.8354166666666667
780,0.01838453914767096,0.8354166666666667
781,0.018417575156921044,0.8354166666666667
782,0.018434093161546084,0.8354166666666667
783,0.018434093161546084,0.8361111111111111
784,0.018467129170796168,0.8361111111111111
785,0.018467129170796168,0.8368055555555556
786,0.018483647175421208,0.8368055555555556
787,0.018483647175421208,0.8375
788,0.01861579121242154,0.8375
789,0.01861579121242154,0.8388888888888889
790,0.01886356128179716,0.8388888888888889
791,0.01886356128179716,0.8395833333333333
792,0.019045259332672614,0.8395833333333333
793,0.019045259332672614,0.8402777777777778
794,0.019111331351172777,0.8402777777777778
795,0.019111331351172777,0.8409722222222222
796,0.019326065411298315,0.8409722222222222
797,0.019326065411298315,0.8416666666666667
798,0.019342583415923355,0.8416666666666667
799,0.019342583415923355,0.8423611111111111
800,0.01937561942517344,0.8423611111111111
801,0.019408655434423522,0.8423611111111111
802,0.019408655434423522,0.8430555555555556
803,0.019672943508424183,0.8430555555555556
804,0.019672943508424183,0.84375
805,0.01975553353154939,0.84375
806,0.01975553353154939,0.8444444444444444
807,0.01977205153617443,0.8444444444444444
808,0.01977205153617443,0.8451388888888889
809,0.019821605550049554,0.8451388888888889
810,0.019821605550049554,0.8458333333333333
811,0.019986785596299968,0.8458333333333333
812,0.020003303600925008,0.8465277777777778
813,0.020234555665675585,0.8465277777777778
814,0.020234555665675585,0.8472222222222222
815,0.02028410967955071,0.8472222222222222
816,0.02028410967955071,0.8479166666666667
817,0.020763131813676908,0.8479166666666667
818,0.02079616782292699,0.8479166666666667
819,0.02089527585067724,0.8479166666666667
820,0.020928311859927322,0.8479166666666667
821,0.020944829864552362,0.8479166666666667
822,0.020944829864552362,0.8486111111111111
823,0.02132474397092831,0.8486111111111111
824,0.02132474397092831,0.8493055555555555
825,0.021721176081929302,0.8493055555555555
826,0.021721176081929302,0.85
827,0.02205153617443013,0.85
828,0.02205153617443013,0.8506944444444444
829,0.022117608192930294,0.8506944444444444
830,0.022117608192930294,0.8513888888888889
831,0.022282788239180708,0.8513888888888889
832,0.022282788239180708,0.8520833333333333
833,0.02231582424843079,0.8520833333333333
834,0.02231582424843079,0.8527777777777777
835,0.02234886025768087,0.8527777777777777
836,0.02234886025768087,0.8534722222222222
837,0.0226792203501817,0.8534722222222222
838,0.0226792203501817,0.8541666666666666
839,0.02320779649818302,0.8541666666666666
840,0.02320779649818302,0.8548611111111111
841,0.023372976544433433,0.8548611111111111
842,0.023372976544433433,0.8555555555555555
843,0.02360422860918401,0.8555555555555555
844,0.02360422860918401,0.85625
845,0.02436405682193591,0.85625
846,0.02436405682193591,0.8569444444444444
847,0.02497522299306244,0.8569444444444444
848,0.02497522299306244,0.8576388888888888
849,0.025206475057813017,0.8576388888888888
850,0.025206475057813017,0.8583333333333333
851,0.02525602907168814,0.8583333333333333
852,0.02525602907168814,0.8590277777777777
853,0.026081929302940204,0.8590277777777777
854,0.026081929302940204,0.8597222222222223
855,0.026098447307565244,0.8597222222222223
856,0.026098447307565244,0.8604166666666667
857,0.026296663363065742,0.8604166666666667
858,0.026296663363065742,0.8611111111111112
859,0.026346217376940866,0.8611111111111112
860,0.026346217376940866,0.8618055555555556
861,0.026428807400066073,0.8618055555555556
862,0.026428807400066073,0.8625
863,0.026478361413941196,0.8625
864,0.026478361413941196,0.8631944444444445
865,0.02654443343244136,0.8631944444444445
866,0.02654443343244136,0.8638888888888889
867,0.026577469441691443,0.8638888888888889
868,0.026577469441691443,0.8645833333333334
869,0.02666005946481665,0.8645833333333334
870,0.02666005946481665,0.8652777777777778
871,0.02679220350181698,0.8652777777777778
872,0.02679220350181698,0.8659722222222223
873,0.026907829534192268,0.8659722222222223
874,0.026907829534192268,0.8666666666666667
875,0.02743640568219359,0.8666666666666667
876,0.02743640568219359,0.8673611111111111
877,0.027618103733069044,0.8673611111111111
878,0.027651139742319128,0.8673611111111111
879,0.02768417575156921,0.8673611111111111
880,0.02768417575156921,0.8680555555555556
881,0.027750247770069375,0.8680555555555556
882,0.027750247770069375,0.86875
883,0.027964981830194913,0.86875
884,0.027964981830194913,0.8694444444444445
885,0.02846052196894615,0.8694444444444445
886,0.02846052196894615,0.8701388888888889
887,0.028592666005946482,0.8701388888888889
888,0.028592666005946482,0.8708333333333333
889,0.028642220019821606,0.8708333333333333
890,0.028642220019821606,0.8715277777777778
891,0.028658738024446646,0.8715277777777778
892,0.028658738024446646,0.8722222222222222
893,0.02930294020482326,0.8722222222222222
894,0.02930294020482326,0.8729166666666667
895,0.029699372315824247,0.8729166666666667
896,0.029699372315824247,0.8736111111111111
897,0.029814998348199537,0.8736111111111111
898,0.02984803435744962,0.8736111111111111
899,0.029897588371324745,0.8736111111111111
900,0.029897588371324745,0.8743055555555556
901,0.030673934588701685,0.8743055555555556
902,0.030673934588701685,0.875
903,0.03158242484307896,0.875
904,0.03161546085232904,0.875
905,0.03176412289395441,0.875
906,0.03176412289395441,0.8756944444444444
907,0.031830194912454576,0.8756944444444444
908,0.031830194912454576,0.8763888888888889
909,0.03199537495870499,0.8763888888888889
910,0.03199537495870499,0.8770833333333333
911,0.03242484307895606,0.8770833333333333
912,0.03242484307895606,0.8777777777777778
913,0.03321770730095804,0.8777777777777778
914,0.03321770730095804,0.8784722222222222
915,0.03376280145358441,0.8784722222222222
916,0.03376280145358441,0.8791666666666667
917,0.03429137760158573,0.8791666666666667
918,0.03429137760158573,0.8798611111111111
919,0.03432441361083581,0.8798611111111111
920,0.03432441361083581,0.88125
921,0.03439048562933598,0.88125
922,0.03439048562933598,0.8819444444444444
923,0.03468780971258672,0.8819444444444444
924,0.03468780971258672,0.8826388888888889
925,0.03495209778658738,0.8826388888888889
926,0.03495209778658738,0.8833333333333333
927,0.03501816980508755,0.8833333333333333
928,0.03501816980508755,0.8840277777777777
929,0.035381565906838455,0.8840277777777777
930,0.035414601916088535,0.8840277777777777
931,0.03546415592996366,0.8840277777777777
932,0.035497191939213746,0.8840277777777777
933,0.036009250082590025,0.8840277777777777
934,0.036009250082590025,0.8847222222222222
935,0.03605880409646515,0.8847222222222222
936,0.03605880409646515,0.8854166666666666
937,0.036636934258341594,0.8854166666666666
938,0.036636934258341594,0.8861111111111111
939,0.03686818632309217,0.8861111111111111
940,0.03686818632309217,0.8868055555555555
941,0.037082920383217706,0.8868055555555555
942,0.037082920383217706,0.8875
943,0.03754542451271886,0.8875
944,0.03754542451271886,0.8881944444444444
945,0.03764453254046911,0.8881944444444444
946,0.03764453254046911,0.8888888888888888
947,0.03809051866534523,0.8888888888888888
948,0.03809051866534523,0.8895833333333333
949,0.03814007267922035,0.8895833333333333
950,0.03814007267922035,0.8902777777777777
951,0.038486950776346215,0.8902777777777777
952,0.038486950776346215,0.8909722222222223
953,0.03861909481334655,0.8909722222222223
954,0.03861909481334655,0.8916666666666667
955,0.03876775685497192,0.8916666666666667
956,0.03876775685497192,0.8930555555555556
957,0.03886686488272217,0.8930555555555556
958,0.03886686488272217,0.89375
959,0.03888338288734721,0.89375
960,0.03888338288734721,0.8944444444444445
961,0.039378923026098446,0.8944444444444445
962,0.039378923026098446,0.8951388888888889
963,0.03969276511397423,0.8951388888888889
964,0.03969276511397423,0.8958333333333334
965,0.0398414271555996,0.8958333333333334
966,0.0398414271555996,0.8965277777777778
967,0.04002312520647506,0.8965277777777778
968,0.04002312520647506,0.8972222222222223
969,0.040452593326726134,0.8972222222222223
970,0.040485629335976214,0.8972222222222223
971,0.040799471423852,0.8972222222222223
972,0.040799471423852,0.8979166666666667
973,0.041526263627353815,0.8979166666666667
974,0.041526263627353815,0.8986111111111111
975,0.041559299636603896,0.8986111111111111
976,0.04217046580773043,0.8986111111111111
977,0.04217046580773043,0.8993055555555556
978,0.04222001982160555,0.8993055555555556
979,0.04222001982160555,0.9
980,0.04251734390485629,0.9
981,0.04251734390485629,0.9006944444444445
982,0.0425999339279815,0.9006944444444445
983,0.0425999339279815,0.9013888888888889
984,0.04271555996035679,0.9013888888888889
985,0.04271555996035679,0.9020833333333333
986,0.04291377601585728,0.9020833333333333
987,0.04291377601585728,0.9027777777777778
988,0.04329369012223323,0.9027777777777778
989,0.04332672613148332,0.9027777777777778
990,0.043673604228609185,0.9027777777777778
991,0.043706640237859265,0.9027777777777778
992,0.04426825239511067,0.9027777777777778
993,0.04426825239511067,0.9034722222222222
994,0.044301288404360754,0.9034722222222222
995,0.044598612487611496,0.9034722222222222
996,0.04463164849686158,0.9034722222222222
997,0.04580442682523951,0.9034722222222222
998,0.04583746283448959,0.9034722222222222
999,0.04613478691774034,0.9034722222222222
1000,0.04616782292699042,0.9034722222222222
1001,0.04702675916749257,0.9034722222222222
1002,0.04702675916749257,0.9041666666666667
1003,0.04707631318136769,0.9041666666666667
1004,0.04707631318136769,0.9048611111111111
1005,0.04720845721836802,0.9048611111111111
1006,0.04720845721836802,0.9055555555555556
1007,0.04857945160224645,0.9055555555555556
1008,0.04857945160224645,0.90625
1009,0.04882722167162207,0.90625
1010,0.04882722167162207,0.9069444444444444
1011,0.049190617773372976,0.9069444444444444
1012,0.049190617773372976,0.9076388888888889
1013,0.050264288074000664,0.9076388888888889
1014,0.050264288074000664,0.9083333333333333
1015,0.05089197224975223,0.9083333333333333
1016,0.05089197224975223,0.9090277777777778
1017,0.05100759828212752,0.9090277777777778
1018,0.05100759828212752,0.9097222222222222
1019,0.05113974231912785,0.9097222222222222
1020,0.05117277832837793,0.9097222222222222
1021,0.05117277832837793,0.9104166666666667
1022,0.051519656425503796,0.9104166666666667
1023,0.051519656425503796,0.9111111111111111
1024,0.053518334985133795,0.9111111111111111
1025,0.053518334985133795,0.9118055555555555
1026,0.05368351503138421,0.9118055555555555
1027,0.05371655104063429,0.9118055555555555
1028,0.053815659068384536,0.9118055555555555
1029,0.053815659068384536,0.9125
1030,0.05421209117938553,0.9125
1031,0.05421209117938553,0.9131944444444444
1032,0.05543442352163858,0.9131944444444444
1033,0.05543442352163858,0.9138888888888889
1034,0.05568219359101421,0.9138888888888889
1035,0.05568219359101421,0.9145833333333333
1036,0.05591344565576478,0.9145833333333333
1037,0.05591344565576478,0.9152777777777777
1038,0.05649157581764123,0.9152777777777777
1039,0.05649157581764123,0.9166666666666666
1040,0.05675586389164189,0.9166666666666666
1041,0.05678889990089197,0.9166666666666666
1042,0.05695407994714238,0.9166666666666666
1043,0.05695407994714238,0.9173611111111111
1044,0.05954740667327387,0.9173611111111111
1045,0.05954740667327387,0.9180555555555555
1046,0.059596960687148995,0.9180555555555555
1047,0.059596960687148995,0.91875
1048,0.0599603567888999,0.91875
1049,0.0599603567888999,0.9194444444444444
1050,0.05999339279814998,0.9194444444444444
1051,0.06002642880740006,0.9194444444444444
1052,0.06012553683515032,0.9194444444444444
1053,0.06012553683515032,0.9201388888888888
1054,0.06030723488602577,0.9201388888888888
1055,0.06034027089527585,0.9201388888888888
1056,0.06110009910802775,0.9201388888888888
1057,0.06113313511727783,0.9201388888888888
1058,0.061628675256029074,0.9201388888888888
1059,0.061661711265279154,0.9201388888888888
1060,0.06182689131152957,0.9201388888888888
1061,0.06185992732077965,0.9201388888888888
1062,0.06214073339940535,0.9201388888888888
1063,0.06214073339940535,0.9208333333333333
1064,0.06225635943178064,0.9208333333333333
1065,0.06225635943178064,0.9215277777777777
1066,0.06258671952428146,0.9215277777777777
1067,0.06258671952428146,0.9222222222222223
1068,0.06285100759828213,0.9222222222222223
1069,0.06285100759828213,0.9229166666666667
1070,0.0630822596630327,0.9229166666666667
1071,0.06311529567228279,0.9229166666666667
1072,0.0634786917740337,0.9229166666666667
1073,0.0634786917740337,0.9236111111111112
1074,0.06361083581103402,0.9236111111111112
1075,0.06364387182028411,0.9236111111111112
1076,0.06364387182028411,0.9243055555555556
1077,0.06369342583415924,0.9243055555555556
1078,0.06369342583415924,0.925
1079,0.0637594978526594,0.925
1080,0.0637594978526594,0.9256944444444445
1081,0.06465147010241162,0.9256944444444445
1082,0.06468450611166171,0.9256944444444445
1083,0.06503138420878758,0.9256944444444445
1084,0.06506442021803766,0.9256944444444445
1085,0.06519656425503799,0.9256944444444445
1086,0.06519656425503799,0.9263888888888889
1087,0.06532870829203832,0.9263888888888889
1088,0.06532870829203832,0.9270833333333334
1089,0.06572514040303931,0.9270833333333334
1090,0.06572514040303931,0.9277777777777778
1091,0.06678229269904196,0.9277777777777778
1092,0.06678229269904196,0.9284722222222223
1093,0.0690782953419227,0.9284722222222223
1094,0.0690782953419227,0.9291666666666667
1095,0.06912784935579781,0.9291666666666667
1096,0.06912784935579781,0.9298611111111111
1097,0.0694416914436736,0.9298611111111111
1098,0.06947472745292368,0.9298611111111111
1099,0.07021803766105054,0.9298611111111111
1100,0.07021803766105054,0.9305555555555556
1101,0.07025107367030063,0.9305555555555556
1102,0.07025107367030063,0.93125
1103,0.07073009580442682,0.93125
1104,0.07073009580442682,0.9319444444444445
1105,0.0709613478691774,0.9319444444444445
1106,0.0709613478691774,0.9326388888888889
1107,0.07262966633630658,0.9326388888888889
1108,0.07262966633630658,0.9333333333333333
1109,0.07279484638255698,0.9333333333333333
1110,0.07282788239180707,0.9333333333333333
1111,0.07292699041955732,0.9333333333333333
1112,0.07292699041955732,0.9340277777777778
1113,0.07302609844730756,0.9340277777777778
1114,0.07302609844730756,0.9354166666666667
1115,0.07462834489593657,0.9354166666666667
1116,0.07466138090518665,0.9354166666666667
1117,0.07497522299306243,0.9354166666666667
1118,0.07497522299306243,0.9361111111111111
1119,0.07585067723818963,0.9361111111111111
1120,0.07585067723818963,0.9368055555555556
1121,0.07591674925668979,0.9368055555555556
1122,0.07594978526593987,0.9368055555555556
1123,0.07603237528906508,0.9368055555555556
1124,0.07603237528906508,0.9375
1125,0.07793194582094483,0.9375
1126,0.07793194582094483,0.9381944444444444
1127,0.0783614139411959,0.9381944444444444
1128,0.0783614139411959,0.9388888888888889
1129,0.07877436405682194,0.9388888888888889
1130,0.07877436405682194,0.9395833333333333
1131,0.07887347208457218,0.9395833333333333
1132,0.07887347208457218,0.9402777777777778
1133,0.07950115626032375,0.9402777777777778
1134,0.07950115626032375,0.9409722222222222
1135,0.0795176742649488,0.9409722222222222
1136,0.0795176742649488,0.9416666666666667
1137,0.08022794846382557,0.9416666666666667
1138,0.08022794846382557,0.9423611111111111
1139,0.08495209778658738,0.9423611111111111
1140,0.08495209778658738,0.9430555555555555
1141,0.08498513379583747,0.9430555555555555
1142,0.08498513379583747,0.94375
1143,0.08629005616121573,0.94375
1144,0.08632309217046581,0.94375
1145,0.0878427485959696,0.94375
1146,0.0878427485959696,0.9444444444444444
1147,0.08878427485959696,0.9444444444444444
1148,0.08878427485959696,0.9451388888888889
1149,0.08881731086884705,0.9451388888888889
1150,0.08898249091509745,0.9451388888888889
1151,0.08898249091509745,0.9458333333333333
1152,0.08952758506772382,0.9458333333333333
1153,0.0895606210769739,0.9458333333333333
1154,0.08982490915097456,0.9458333333333333
1155,0.08985794516022465,0.9458333333333333
1156,0.090799471423852,0.9458333333333333
1157,0.090799471423852,0.9465277777777777
1158,0.09167492566897918,0.9465277777777777
1159,0.09167492566897918,0.9472222222222222
1160,0.09182358771060456,0.9472222222222222
1161,0.09182358771060456,0.9479166666666666
1162,0.09264948794185662,0.9479166666666666
1163,0.09268252395110671,0.9479166666666666
1164,0.09317806408985795,0.9479166666666666
1165,0.09317806408985795,0.9486111111111111
1166,0.09334324413610835,0.9486111111111111
1167,0.09337628014535844,0.9486111111111111
1168,0.0941195903534853,0.9486111111111111
1169,0.0941195903534853,0.9493055555555555
1170,0.09423521638586059,0.9493055555555555
1171,0.09423521638586059,0.95
1172,0.09466468450611167,0.95
1173,0.09469772051536174,0.95
1174,0.09587049884373967,0.95
1175,0.09587049884373967,0.9506944444444444
1176,0.09694416914436736,0.9506944444444444
1177,0.09694416914436736,0.9513888888888888
1178,0.09712586719524281,0.9513888888888888
1179,0.0971589032044929,0.9513888888888888
1180,0.09899240171787248,0.9513888888888888
1181,0.09899240171787248,0.9520833333333333
1182,0.09937231582424844,0.9520833333333333
1183,0.09940535183349851,0.9520833333333333
1184,0.09963660389824909,0.9520833333333333
1185,0.09963660389824909,0.9527777777777777
1186,0.10062768417575157,0.9527777777777777
1187,0.10066072018500165,0.9527777777777777
1188,0.10181698050875454,0.9527777777777777
1189,0.10185001651800463,0.9527777777777777
1190,0.1022794846382557,0.9527777777777777
1191,0.1022794846382557,0.9534722222222223
1192,0.10237859266600595,0.9534722222222223
1193,0.10241162867525602,0.9534722222222223
1194,0.10269243475388173,0.9534722222222223
1195,0.10269243475388173,0.9548611111111112
1196,0.10294020482325734,0.9548611111111112
1197,0.10297324083250743,0.9548611111111112
1198,0.10313842087875785,0.9548611111111112
1199,0.10317145688800793,0.9548611111111112
1200,0.10330360092500826,0.9548611111111112
1201,0.10330360092500826,0.9555555555555556
1202,0.10374958704988438,0.9555555555555556
1203,0.10374958704988438,0.95625
1204,0.11020812685827552,0.95625
1205,0.1102411628675256,0.95625
1206,0.11233894945490584,0.95625
1207,0.11233894945490584,0.9569444444444445
1208,0.11263627353815658,0.9569444444444445
1209,0.11263627353815658,0.9576388888888889
1210,0.11301618764453254,0.9576388888888889
1211,0.11301618764453254,0.9583333333333334
1212,0.11377601585728445,0.9583333333333334
1213,0.11377601585728445,0.9590277777777778
1214,0.11390815989428477,0.9590277777777778
1215,0.11390815989428477,0.9597222222222223
1216,0.11394119590353485,0.9597222222222223
1217,0.11455236207466138,0.9597222222222223
1218,0.11458539808391147,0.9597222222222223
1219,0.11582424843078956,0.9597222222222223
1220,0.11585728444003965,0.9597222222222223
1221,0.11593987446316485,0.9597222222222223
1222,0.11593987446316485,0.9604166666666667
1223,0.11636934258341593,0.9604166666666667
1224,0.116402378592666,0.9604166666666667
1225,0.11797158903204492,0.9604166666666667
1226,0.11800462504129501,0.9604166666666667
1227,0.11846712917079617,0.9604166666666667
1228,0.11850016518004625,0.9604166666666667
1229,0.12106045589692765,0.9604166666666667
1230,0.12106045589692765,0.9611111111111111
1231,0.12132474397092831,0.9611111111111111
1232,0.12132474397092831,0.9618055555555556
1233,0.12175421209117938,0.9618055555555556
1234,0.12178724810042947,0.9618055555555556
1235,0.12224975222993062,0.9618055555555556
1236,0.12224975222993062,0.9625
1237,0.12624710934919062,0.9625
1238,0.1262801453584407,0.9625
1239,0.126808721506442,0.9625
1240,0.126808721506442,0.9631944444444445
1241,0.12968285431119922,0.9631944444444445
1242,0.12968285431119922,0.9638888888888889
1243,0.130806078625702,0.9638888888888889
1244,0.130806078625702,0.9645833333333333
1245,0.13181367690782952,0.9645833333333333
1246,0.13181367690782952,0.9652777777777778
1247,0.13260654112983153,0.9652777777777778
1248,0.13260654112983153,0.9659722222222222
1249,0.1327221671622068,0.9659722222222222
1250,0.1327552031714569,0.9659722222222222
1251,0.1329534192269574,0.9659722222222222
1252,0.13298645523620747,0.9659722222222222
1253,0.13510075982821276,0.9659722222222222
1254,0.13513379583746282,0.9659722222222222
1255,0.1355137099438388,0.9659722222222222
1256,0.13554674595308885,0.9659722222222222
1257,0.13599273207796497,0.9659722222222222
1258,0.13602576808721506,0.9659722222222222
1259,0.13633961017509086,0.9659722222222222
1260,0.13637264618434095,0.9659722222222222
1261,0.13802444664684507,0.9659722222222222
1262,0.13805748265609513,0.9659722222222222
1263,0.13937892302609844,0.9659722222222222
1264,0.13941195903534853,0.9659722222222222
1265,0.1396762471093492,0.9659722222222222
1266,0.1397092831185993,0.9659722222222222
1267,0.140403039312851,0.9659722222222222
1268,0.140403039312851,0.9666666666666667
1269,0.141608853650479,0.9666666666666667
1270,0.141608853650479,0.9673611111111111
1271,0.14269904195573174,0.9673611111111111
1272,0.14273207796498183,0.9673611111111111
1273,0.14373967624710934,0.9673611111111111
1274,0.14373967624710934,0.9680555555555556
1275,0.14453254046911132,0.9680555555555556
1276,0.1445655764783614,0.9680555555555556
1277,0.14871159563924677,0.9680555555555556
1278,0.14874463164849686,0.9680555555555556
1279,0.1504790221341262,0.9680555555555556
1280,0.15054509415262637,0.9680555555555556
1281,0.15165180046250412,0.9680555555555556
1282,0.1516848364717542,0.9680555555555556
1283,0.15183349851337957,0.9680555555555556
1284,0.15189957053187975,0.9680555555555556
1285,0.15265939874463164,0.9680555555555556
1286,0.15265939874463164,0.96875
1287,0.1537661050545094,0.96875
1288,0.1537991410637595,0.96875
1289,0.15528576148001322,0.96875
1290,0.1553187974892633,0.96875
1291,0.15630987776676578,0.96875
1292,0.15634291377601586,0.96875
1293,0.15662371985464155,0.96875
1294,0.15665675586389163,0.96875
1295,0.15715229600264288,0.96875
1296,0.15718533201189297,0.96875
1297,0.15794516022464486,0.96875
1298,0.15797819623389495,0.96875
1299,0.15906838453914768,0.96875
1300,0.15910142054839777,0.96875
1301,0.1595143706640238,0.96875
1302,0.1595143706640238,0.9694444444444444
1303,0.1595639246778989,0.9694444444444444
1304,0.1595639246778989,0.9701388888888889
1305,0.15972910472414933,0.9701388888888889
1306,0.1597621407333994,0.9701388888888889
1307,0.16096795507102743,0.9701388888888889
1308,0.16098447307565247,0.9708333333333333
1309,0.1610835811034027,0.9708333333333333
1310,0.1611166171126528,0.9708333333333333
1311,0.16154608523290387,0.9708333333333333
1312,0.16157912124215396,0.9708333333333333
1313,0.16253716551040634,0.9708333333333333
1314,0.16253716551040634,0.9715277777777778
1315,0.16379253386190948,0.9715277777777778
1316,0.16379253386190948,0.9722222222222222
1317,0.1640403039312851,0.9722222222222222
1318,0.1640733399405352,0.9722222222222222
1319,0.1654443343244136,0.9722222222222222
1320,0.1654773703336637,0.9722222222222222
1321,0.16570862239841427,0.9722222222222222
1322,0.16574165840766436,0.9722222222222222
1323,0.1669639907499174,0.9722222222222222
1324,0.1669970267591675,0.9722222222222222
1325,0.16902874132804757,0.9722222222222222
1326,0.16902874132804757,0.9729166666666667
1327,0.16955731747604888,0.9729166666666667
1328,0.16959035348529897,0.9729166666666667
1329,0.17038321770730097,0.9729166666666667
1330,0.17038321770730097,0.9736111111111111
1331,0.17102741988767756,0.9736111111111111
1332,0.17106045589692764,0.9736111111111111
1333,0.17195242814667988,0.9736111111111111
1334,0.17198546415592997,0.9736111111111111
1335,0.17261314833168154,0.9736111111111111
1336,0.17264618434093162,0.9736111111111111
1337,0.17282788239180708,0.9736111111111111
1338,0.17286091840105716,0.9736111111111111
1339,0.17566897918731417,0.9736111111111111
1340,0.17570201519656425,0.9736111111111111
1341,0.17756854971919392,0.9736111111111111
1342,0.177601585728444,0.9736111111111111
1343,0.177601585728444,0.9743055555555555
1344,0.17885695407994714,0.9743055555555555
1345,0.17888999008919723,0.9743055555555555
1346,0.17898909811694746,0.9743055555555555
1347,0.17902213412619755,0.9743055555555555
1348,0.1800792864222002,0.9743055555555555
1349,0.18011232243145028,0.9743055555555555
1350,0.1809217046580773,0.9743055555555555
1351,0.1809217046580773,0.975
1352,0.1811199207135778,0.975
1353,0.18115295672282788,0.975
1354,0.18146679881070366,0.975
1355,0.18149983481995374,0.975
1356,0.18189626693095473,0.975
1357,0.18192930294020482,0.975
1358,0.18194582094482986,0.975
1359,0.18197885695407995,0.975
1360,0.18201189296333004,0.975
1361,0.18204492897258012,0.975
1362,0.18287082920383219,0.975
1363,0.18290386521308227,0.975
1364,0.18295341922695738,0.975
1365,0.18295341922695738,0.9756944444444444
1366,0.18506772381896266,0.9756944444444444
1367,0.18506772381896266,0.9763888888888889
1368,0.18561281797158904,0.9763888888888889
1369,0.1856458539808391,0.9763888888888889
1370,0.18571192599933928,0.9763888888888889
1371,0.18571192599933928,0.9770833333333333
1372,0.18581103402708954,0.9770833333333333
1373,0.1858440700363396,0.9770833333333333
1374,0.18640568219359102,0.9770833333333333
1375,0.1864387182028411,0.9770833333333333
1376,0.18835480673934588,0.9770833333333333
1377,0.18835480673934588,0.9777777777777777
1378,0.18845391476709614,0.9777777777777777
1379,0.18848695077634622,0.9777777777777777
1380,0.1890815989428477,0.9777777777777777
1381,0.1891146349520978,0.9777777777777777
1382,0.19213742979848034,0.9777777777777777
1383,0.19217046580773042,0.9777777777777777
1384,0.19289725801123225,0.9777777777777777
1385,0.1929302940204823,0.9777777777777777
1386,0.1941526263627354,0.9777777777777777
1387,0.19418566237198545,0.9777777777777777
1388,0.19542451271886357,0.9777777777777777
1389,0.19545754872811363,0.9777777777777777
1390,0.1983151635282458,0.9777777777777777
1391,0.19834819953749588,0.9777777777777777
1392,0.19869507763462174,0.9777777777777777
1393,0.19872811364387183,0.9777777777777777
1394,0.19928972580112322,0.9777777777777777
1395,0.1993227618103733,0.9777777777777777
1396,0.2009250082590023,0.9777777777777777
1397,0.2009250082590023,0.9784722222222222
1398,0.2011232243145028,0.9784722222222222
1399,0.2011232243145028,0.9791666666666666
1400,0.20536835150313842,0.9791666666666666
1401,0.20536835150313842,0.9798611111111111
1402,0.20614469772051536,0.9798611111111111
1403,0.20614469772051536,0.9805555555555555
1404,0.20710274198876777,0.9805555555555555
1405,0.20716881400726792,0.9805555555555555
1406,0.2117277832837793,0.9805555555555555
1407,0.2117608192930294,0.9805555555555555
1408,0.2126362735381566,0.9805555555555555
1409,0.21266930954740668,0.9805555555555555
1410,0.2139577139081599,0.9805555555555555
1411,0.21399074991741,0.9805555555555555
1412,0.21456888007928643,0.9805555555555555
1413,0.21456888007928643,0.98125
1414,0.21560951437066403,0.98125
1415,0.21560951437066403,0.9819444444444444
1416,0.21617112652791542,0.9819444444444444
1417,0.2162041625371655,0.9819444444444444
1418,0.21653452262966633,0.9819444444444444
1419,0.21653452262966633,0.9826388888888888
1420,0.21665014866204163,0.9826388888888888
1421,0.21668318467129172,0.9826388888888888
1422,0.21729435084241824,0.9826388888888888
1423,0.21732738685166833,0.9826388888888888
1424,0.21810373306904526,0.9826388888888888
1425,0.21813676907829535,0.9826388888888888
1426,0.21922695738354805,0.9826388888888888
1427,0.21922695738354805,0.9833333333333333
1428,0.2211595639246779,0.9833333333333333
1429,0.22119259993392798,0.9833333333333333
1430,0.2220350181698051,0.9833333333333333
1431,0.22206805417905517,0.9833333333333333
1432,0.22234886025768089,0.9833333333333333
1433,0.22238189626693095,0.9833333333333333
1434,0.22291047241493228,0.9833333333333333
1435,0.22294350842418237,0.9833333333333333
1436,0.22317476048893295,0.9833333333333333
1437,0.223207796498183,0.9833333333333333
1438,0.22446316484968615,0.9833333333333333
1439,0.22449620085893623,0.9833333333333333
1440,0.22489263296993722,0.9833333333333333
1441,0.2249256689791873,0.9833333333333333
1442,0.22509084902543772,0.9833333333333333
1443,0.22509084902543772,0.9840277777777777
1444,0.2251238850346878,0.9840277777777777
1445,0.2251569210439379,0.9840277777777777
1446,0.22641228939544103,0.9840277777777777
1447,0.22642880740006607,0.9847222222222223
1448,0.22657746944169144,0.9847222222222223
1449,0.22661050545094152,0.9847222222222223
1450,0.22741988767756854,0.9847222222222223
1451,0.22745292368681863,0.9847222222222223
1452,0.22750247770069376,0.9847222222222223
1453,0.22750247770069376,0.9861111111111112
1454,0.22765113974231913,0.9861111111111112
1455,0.22765113974231913,0.9868055555555556
1456,0.22832837793194583,0.9868055555555556
1457,0.2283614139411959,0.9868055555555556
1458,0.22900561612157253,0.9868055555555556
1459,0.22903865213082258,0.9868055555555556
1460,0.22974892632969937,0.9868055555555556
1461,0.22974892632969937,0.9875
1462,0.22991410637594978,0.9875
1463,0.22994714238519987,0.9875
1464,0.23135117277832837,0.9875
1465,0.23138420878757845,0.9875
1466,0.23250743310208127,0.9875
1467,0.23254046911133136,0.9875
1468,0.23386190948133465,0.9875
1469,0.23389494549058473,0.9875
1470,0.2345556656755864,0.9875
1471,0.23458870168483648,0.9875
1472,0.2347208457218368,0.9875
1473,0.23475388173108688,0.9875
1474,0.23734720845721838,0.9875
1475,0.23738024446646844,0.9875
1476,0.23969276511397422,0.9875
1477,0.2397258011232243,0.9875
1478,0.24066732738685168,0.9875
1479,0.24070036339610176,0.9875
1480,0.24233564585398085,0.9875
1481,0.2423521638586059,0.9881944444444445
1482,0.24297984803435746,0.9881944444444445
1483,0.24301288404360752,0.9881944444444445
1484,0.24398744631648497,0.9881944444444445
1485,0.24398744631648497,0.9888888888888889
1486,0.24474727452923686,0.9888888888888889
1487,0.24478031053848695,0.9888888888888889
1488,0.2452758506772382,0.9888888888888889
1489,0.24530888668648826,0.9888888888888889
1490,0.24542451271886356,0.9888888888888889
1491,0.24549058473736374,0.9888888888888889
1492,0.24558969276511397,0.9888888888888889
1493,0.24562272877436406,0.9888888888888889
1494,0.24588701684836473,0.9888888888888889
1495,0.2459200528576148,0.9888888888888889
1496,0.24628344895936571,0.9888888888888889
1497,0.2463164849686158,0.9888888888888889
1498,0.2480839114634952,0.9888888888888889
1499,0.2481169474727453,0.9888888888888889
1500,0.2517178724810043,0.9888888888888889
1501,0.2517509084902544,0.9888888888888889
1502,0.25553353154938885,0.9888888888888889
1503,0.25556656755863894,0.9888888888888889
1504,0.2564915758176412,0.9888888888888889
1505,0.2565246118268913,0.9888888888888889
1506,0.2571522960026429,0.9888888888888889
1507,0.257185332011893,0.9888888888888889
1508,0.2587215064420218,0.9888888888888889
1509,0.2587545424512719,0.9888888888888889
1510,0.26169474727452924,0.9888888888888889
1511,0.2617277832837793,0.9888888888888889
1512,0.26190948133465475,0.9888888888888889
1513,0.26194251734390483,0.9888888888888889
1514,0.262801453584407,0.9888888888888889
1515,0.2628344895936571,0.9888888888888889
1516,0.26301618764453255,0.9888888888888889
1517,0.26304922365378264,0.9888888888888889
1518,0.26374297984803435,0.9888888888888889
1519,0.26377601585728444,0.9888888888888889
1520,0.2681037330690453,0.9888888888888889
1521,0.26813676907829537,0.9888888888888889
1522,0.268797489263297,0.9888888888888889
1523,0.268797489263297,0.9895833333333334
1524,0.2702345556656756,0.9895833333333334
1525,0.27026759167492564,0.9895833333333334
1526,0.27074661380905185,0.9895833333333334
1527,0.27077964981830194,0.9895833333333334
1528,0.27162206805417904,0.9895833333333334
1529,0.27165510406342913,0.9895833333333334
1530,0.27198546415592995,0.9895833333333334
1531,0.27201850016518003,0.9895833333333334
1532,0.2721671622068054,0.9895833333333334
1533,0.2722001982160555,0.9895833333333334
1534,0.27367030062768416,0.9895833333333334
1535,0.27367030062768416,0.9902777777777778
1536,0.27409976874793524,0.9902777777777778
1537,0.2741328047571853,0.9902777777777778
1538,0.2753716551040634,0.9902777777777778
1539,0.2754046911133135,0.9902777777777778
1540,0.2756854971919392,0.9902777777777778
1541,0.2757185332011893,0.9902777777777778
1542,0.27593326726131484,0.9902777777777778
1543,0.2759663032705649,0.9902777777777778
1544,0.2784440039643211,0.9902777777777778
1545,0.2784770399735712,0.9902777777777778
1546,0.2785596299966964,0.9902777777777778
1547,0.27859266600594645,0.9902777777777778
1548,0.278790882061447,0.9902777777777778
1549,0.27882391807069706,0.9902777777777778
1550,0.2797819623389495,0.9902777777777778
1551,0.27981499834819956,0.9902777777777778
1552,0.2829534192269574,0.9902777777777778
1553,0.28298645523620747,0.9902777777777778
1554,0.2831516352824579,0.9902777777777778
1555,0.28318467129170793,0.9902777777777778
1556,0.2853320118929633,0.9902777777777778
1557,0.2853650479022134,0.9902777777777778
1558,0.2856954079947142,0.9902777777777778
1559,0.2857284440039643,0.9902777777777778
1560,0.28779319458209446,0.9902777777777778
1561,0.28782623059134455,0.9902777777777778
1562,0.28818962669309545,0.9902777777777778
1563,0.28822266270234553,0.9902777777777778
1564,0.2882887347208457,0.9902777777777778
1565,0.2883217707300958,0.9902777777777778
1566,0.2888338288734721,0.9902777777777778
1567,0.2888668648827222,0.9902777777777778
1568,0.29025437727122566,0.9902777777777778
1569,0.2902874132804757,0.9902777777777778
1570,0.29035348529897587,0.9902777777777778
1571,0.29038652130822595,0.9902777777777778
1572,0.2908820614469772,0.9902777777777778
1573,0.2909150974562273,0.9902777777777778
1574,0.29297984803435745,0.9902777777777778
1575,0.29301288404360754,0.9902777777777778
1576,0.2952262966633631,0.9902777777777778
1577,0.2952593326726132,0.9902777777777778
1578,0.29677898909811695,0.9902777777777778
1579,0.29681202510736704,0.9902777777777778
1580,0.2970102411628675,0.9902777777777778
1581,0.2970432771721176,0.9902777777777778
1582,0.29742319127849354,0.9902777777777778
1583,0.2974562272877436,0.9902777777777778
1584,0.2995374958704988,0.9902777777777778
1585,0.2995705318797489,0.9902777777777778
1586,0.30262636273538157,0.9902777777777778
1587,0.30265939874463166,0.9902777777777778
1588,0.3034852989758837,0.9902777777777778
1589,0.3035183349851338,0.9902777777777778
1590,0.30589692765113974,0.9902777777777778
1591,0.3059299636603898,0.9902777777777778
1592,0.3071522960026429,0.9902777777777778
1593,0.30718533201189296,0.9902777777777778
1594,0.3081598942847704,0.9902777777777778
1595,0.3081929302940205,0.9902777777777778
1596,0.31086884704327716,0.9902777777777778
1597,0.31090188305252725,0.9902777777777778
1598,0.31228939544103074,0.9902777777777778
1599,0.3123224314502808,0.9902777777777778
1600,0.3140403039312851,0.9902777777777778
1601,0.31407333994053516,0.9902777777777778
1602,0.3151139742319128,0.9902777777777778
1603,0.3151139742319128,0.9909722222222223
1604,0.31598942847704,0.9909722222222223
1605,0.31602246448629007,0.9909722222222223
1606,0.31653452262966636,0.9909722222222223
1607,0.31656755863891645,0.9909722222222223
1608,0.31742649487941854,0.9909722222222223
1609,0.31745953088866863,0.9909722222222223
1610,0.3184340931615461,0.9909722222222223
1611,0.31846712917079617,0.9909722222222223
1612,0.31889659729104725,0.9909722222222223
1613,0.31892963330029733,0.9909722222222223
1614,0.3205153617443013,0.9909722222222223
1615,0.3205483977535514,0.9909722222222223
1616,0.3229269904195573,0.9909722222222223
1617,0.3229600264288074,0.9909722222222223
1618,0.32454575487281134,0.9909722222222223
1619,0.32457879088206143,0.9909722222222223
1620,0.3247604889329369,0.9909722222222223
1621,0.3247604889329369,0.9916666666666667
1622,0.3290221341261976,0.9916666666666667
1623,0.32905517013544766,0.9916666666666667
1624,0.33021143045920054,0.9916666666666667
1625,0.3302444664684506,0.9916666666666667
1626,0.33045920052857614,0.9916666666666667
1627,0.33045920052857614,0.9923611111111111
1628,0.3326065411298315,0.9923611111111111
1629,0.3326395771390816,0.9923611111111111
1630,0.3327221671622068,0.9923611111111111
1631,0.3327552031714569,0.9923611111111111
1632,0.3345391476709613,0.9923611111111111
1633,0.3345391476709613,0.9930555555555556
1634,0.337198546415593,0.9930555555555556
1635,0.3372315824248431,0.9930555555555556
1636,0.3390650809382227,0.9930555555555556
1637,0.33909811694747277,0.9930555555555556
1638,0.3403700033036009,0.9930555555555556
1639,0.340403039312851,0.9930555555555556
1640,0.3409316154608523,0.9930555555555556
1641,0.3409316154608523,0.99375
1642,0.34405351833498515,0.99375
1643,0.34408655434423524,0.99375
1644,0.3448794185662372,0.99375
1645,0.3449124545754873,0.99375
1646,0.345606210769739,0.99375
1647,0.3456392467789891,0.99375
1648,0.3456722827882392,0.99375
1649,0.34573835480673937,0.99375
1650,0.3461843409316155,0.99375
1651,0.34620085893624053,0.9944444444444445
1652,0.35033036009250085,0.9944444444444445
1653,0.35036339610175093,0.9944444444444445
1654,0.35046250412950114,0.9944444444444445
1655,0.3504955401387512,0.9944444444444445
1656,0.3505285761480013,0.9944444444444445
1657,0.3505616121572514,0.9944444444444445
1658,0.3517674264948794,0.9944444444444445
1659,0.3518004625041295,0.9944444444444445
1660,0.35346878097125867,0.9944444444444445
1661,0.35350181698050875,0.9944444444444445
1662,0.35378262305913444,0.9944444444444445
1663,0.3538156590683845,0.9944444444444445
1664,0.3565080938222663,0.9944444444444445
1665,0.35654112983151637,0.9944444444444445
1666,0.35700363396101753,0.9944444444444445
1667,0.3570366699702676,0.9944444444444445
1668,0.35751569210439377,0.9944444444444445
1669,0.35754872811364385,0.9944444444444445
1670,0.35794516022464484,0.9944444444444445
1671,0.35797819623389493,0.9944444444444445
1672,0.3587710604558969,0.9944444444444445
1673,0.358804096465147,0.9944444444444445
1674,0.3595804426825239,0.9944444444444445
1675,0.359613478691774,0.9944444444444445
1676,0.3596465147010241,0.9944444444444445
1677,0.3596795507102742,0.9944444444444445
1678,0.360389824909151,0.9944444444444445
1679,0.36042286091840103,0.9944444444444445
1680,0.361182689131153,0.9944444444444445
1681,0.36121572514040307,0.9944444444444445
1682,0.3616782292699042,0.9944444444444445
1683,0.36171126527915426,0.9944444444444445
1684,0.36194251734390487,0.9944444444444445
1685,0.36197555335315496,0.9944444444444445
1686,0.3637594978526594,0.9944444444444445
1687,0.36379253386190946,0.9944444444444445
1688,0.3651139742319128,0.9944444444444445
1689,0.36514701024116286,0.9944444444444445
1690,0.3652296002642881,0.9944444444444445
1691,0.36526263627353817,0.9944444444444445
1692,0.36620416253716553,0.9944444444444445
1693,0.36623719854641557,0.9944444444444445
1694,0.3671622068054179,0.9944444444444445
1695,0.367195242814668,0.9944444444444445
1696,0.36762471093491905,0.9944444444444445
1697,0.36765774694416914,0.9944444444444445
1698,0.36889659729104723,0.9944444444444445
1699,0.3689296333002973,0.9944444444444445
1700,0.3689957053187975,0.9944444444444445
1701,0.3690287413280476,0.9944444444444445
1702,0.3721341261975553,0.9944444444444445
1703,0.3721671622068054,0.9944444444444445
1704,0.3722827882391807,0.9944444444444445
1705,0.3723158242484308,0.9944444444444445
1706,0.3729104724149323,0.9944444444444445
1707,0.37294350842418234,0.9944444444444445
1708,0.3730921704658077,0.9944444444444445
1709,0.3731252064750578,0.9944444444444445
1710,0.3733069045259333,0.9944444444444445
1711,0.3733399405351833,0.9944444444444445
1712,0.3734060125536835,0.9944444444444445
1713,0.3734390485629336,0.9944444444444445
1714,0.37474397092831185,0.9944444444444445
1715,0.37477700693756194,0.9944444444444445
1716,0.3749587049884374,0.9944444444444445
1717,0.3749917409976875,0.9944444444444445
1718,0.37565246118268913,0.9944444444444445
1719,0.3756854971919392,0.9944444444444445
1720,0.3781962338949455,0.9944444444444445
1721,0.3782292699041956,0.9944444444444445
1722,0.37933597621407333,0.9944444444444445
1723,0.3793690122233234,0.9944444444444445
1724,0.3794350842418236,0.9944444444444445
1725,0.3794681202510737,0.9944444444444445
1726,0.37950115626032377,0.9944444444444445
1727,0.37953419226957386,0.9944444444444445
1728,0.3795507102741989,0.9944444444444445
1729,0.379583746283449,0.9944444444444445
1730,0.38077304261645195,0.9944444444444445
1731,0.38077304261645195,0.9951388888888889
1732,0.380789560621077,0.9951388888888889
1733,0.3808225966303271,0.9951388888888889
1734,0.38158242484307897,0.9951388888888889
1735,0.38161546085232906,0.9951388888888889
1736,0.3826726131483317,0.9951388888888889
1737,0.38270564915758176,0.9951388888888889
1738,0.38496861579121244,0.9951388888888889
1739,0.38500165180046253,0.9951388888888889
1740,0.38780971258671953,0.9951388888888889
1741,0.3878427485959696,0.9951388888888889
1742,0.3879088206144698,0.9951388888888889
1743,0.3879418566237198,0.9951388888888889
1744,0.3881896266930955,0.9951388888888889
1745,0.38822266270234557,0.9951388888888889
1746,0.3907499174099769,0.9951388888888889
1747,0.390782953419227,0.9951388888888889
1748,0.39117938553022796,0.9951388888888889
1749,0.39124545754872814,0.9951388888888889
1750,0.39317806408985795,0.9951388888888889
1751,0.39321110009910804,0.9951388888888889
1752,0.3952758506772382,0.9951388888888889
1753,0.3953088866864883,0.9951388888888889
1754,0.3953914767096135,0.9951388888888889
1755,0.3954245127188636,0.9951388888888889
1756,0.3962338949454906,0.9951388888888889
1757,0.3962669309547407,0.9951388888888889
1758,0.3968780971258672,0.9951388888888889
1759,0.3969111331351173,0.9951388888888889
1760,0.3981665014866204,0.9951388888888889
1761,0.3981995374958705,0.9951388888888889
1762,0.39902543772712257,0.9951388888888889
1763,0.39905847373637265,0.9951388888888889
1764,0.401602246448629,0.9951388888888889
1765,0.4016352824578791,0.9951388888888889
1766,0.40573174760488934,0.9951388888888889
1767,0.40573174760488934,0.9958333333333333
1768,0.40853980839114634,0.9958333333333333
1769,0.40857284440039643,0.9958333333333333
1770,0.40949785265939875,0.9958333333333333
1771,0.40953088866864884,0.9958333333333333
1772,0.41354476379253385,0.9958333333333333
1773,0.41357779980178394,0.9958333333333333
1774,0.4142550379914106,0.9958333333333333
1775,0.41430459200528574,0.9958333333333333
1776,0.4157581764122894,0.9958333333333333
1777,0.4157912124215395,0.9958333333333333
1778,0.4163363065741658,0.9958333333333333
1779,0.4163693425834159,0.9958333333333333
1780,0.4169144367360423,0.9958333333333333
1781,0.41694747274529237,0.9958333333333333
1782,0.41788899900891974,0.9958333333333333
1783,0.4179220350181698,0.9958333333333333
1784,0.4195573174760489,0.9958333333333333
1785,0.419590353485299,0.9958333333333333
1786,0.4208292038321771,0.9958333333333333
1787,0.4208622398414272,0.9958333333333333
1788,0.42139081598942846,0.9958333333333333
1789,0.42142385199867854,0.9958333333333333
1790,0.42362074661380905,0.9958333333333333
1791,0.42365378262305914,0.9958333333333333
1792,0.42505781301618767,0.9958333333333333
1793,0.4250908490254377,0.9958333333333333
1794,0.4253221010901883,0.9958333333333333
1795,0.4253551370994384,0.9958333333333333
1796,0.4265279154278163,0.9958333333333333
1797,0.4265609514370664,0.9958333333333333
1798,0.4290056161215725,0.9958333333333333
1799,0.4290386521308226,0.9958333333333333
1800,0.4296828543111992,0.9958333333333333
1801,0.42971589032044927,0.9958333333333333
1802,0.4313016187644533,0.9958333333333333
1803,0.43133465477370336,0.9958333333333333
1804,0.4314833168153287,0.9958333333333333
1805,0.4315163528245788,0.9958333333333333
1806,0.4317476048893294,0.9958333333333333
1807,0.4317806408985794,0.9958333333333333
1808,0.432391807069706,0.9958333333333333
1809,0.43242484307895607,0.9958333333333333
1810,0.43457218368021144,0.9958333333333333
1811,0.43460521968946153,0.9958333333333333
1812,0.43614139411959035,0.9958333333333333
1813,0.43614139411959035,0.9965277777777778
1814,0.43792533861909483,0.9965277777777778
1815,0.4379583746283449,0.9965277777777778
1816,0.43870168483647176,0.9965277777777778
1817,0.43873472084572185,0.9965277777777778
1818,0.44008919722497525,0.9965277777777778
1819,0.44015526924347537,0.9965277777777778
1820,0.4403204492897258,0.9965277777777778
1821,0.4403534852989759,0.9965277777777778
1822,0.4416749256689792,0.9965277777777778
1823,0.4417079616782293,0.9965277777777778
1824,0.44202180376610506,0.9965277777777778
1825,0.44205483977535515,0.9965277777777778
1826,0.44344235216385863,0.9965277777777778
1827,0.44347538817310866,0.9965277777777778
1828,0.44405351833498513,0.9965277777777778
1829,0.4440865543442352,0.9965277777777778
1830,0.4442847703997357,0.9965277777777778
1831,0.44431780640898577,0.9965277777777778
1832,0.4457548728113644,0.9965277777777778
1833,0.4457879088206145,0.9965277777777778
1834,0.44661380905186654,0.9965277777777778
1835,0.4466468450611166,0.9965277777777778
1836,0.44669639907499176,0.9965277777777778
1837,0.44672943508424184,0.9965277777777778
1838,0.44851337958374626,0.9965277777777778
1839,0.44854641559299635,0.9965277777777778
1840,0.44965312190287415,0.9965277777777778
1841,0.44968615791212424,0.9965277777777778
1842,0.4501651800462504,0.9965277777777778
1843,0.4501982160555005,0.9965277777777778
1844,0.4521968946151305,0.9965277777777778
1845,0.45222993062438055,0.9965277777777778
1846,0.4549223653782623,0.9965277777777778
1847,0.4549554013875124,0.9965277777777778
1848,0.45538486950776347,0.9965277777777778
1849,0.45541790551701355,0.9965277777777778
1850,0.45566567558638915,0.9965277777777778
1851,0.45569871159563924,0.9965277777777778
1852,0.4560455896927651,0.9965277777777778
1853,0.4560786257020152,0.9965277777777778
1854,0.45611166171126527,0.9965277777777778
1855,0.45614469772051536,0.9965277777777778
1856,0.45918401057152297,0.9965277777777778
1857,0.45921704658077306,0.9965277777777778
1858,0.4643706640237859,0.9965277777777778
1859,0.4643706640237859,0.9972222222222222
1860,0.46501486620416255,0.9972222222222222
1861,0.46504790221341263,0.9972222222222222
1862,0.4656755863891642,0.9972222222222222
1863,0.4656755863891642,0.9979166666666667
1864,0.4664849686157912,0.9979166666666667
1865,0.4665180046250413,0.9979166666666667
1866,0.4678889990089197,0.9979166666666667
1867,0.4679220350181698,0.9979166666666667
1868,0.46934258341592333,0.9979166666666667
1869,0.4693756194251734,0.9979166666666667
1870,0.4698546415592996,0.9979166666666667
1871,0.4698876775685497,0.9979166666666667
1872,0.4712421539478031,0.9979166666666667
1873,0.4712751899570532,0.9979166666666667
1874,0.4723653782623059,0.9979166666666667
1875,0.472398414271556,0.9979166666666667
1876,0.472794846382557,0.9979166666666667
1877,0.47282788239180706,0.9979166666666667
1878,0.4746283448959366,0.9979166666666667
1879,0.47466138090518667,0.9979166666666667
1880,0.4761975553353155,0.9979166666666667
1881,0.4762305913445656,0.9979166666666667
1882,0.4794350842418236,0.9979166666666667
1883,0.47946812025107366,0.9979166666666667
1884,0.47973240832507436,0.9979166666666667
1885,0.4797654443343244,0.9979166666666667
1886,0.4798810703666997,0.9979166666666667
1887,0.4799141063759498,0.9979166666666667
1888,0.4802444664684506,0.9979166666666667
1889,0.4802775024777007,0.9979166666666667
1890,0.4812355467459531,0.9979166666666667
1891,0.4812685827552032,0.9979166666666667
1892,0.4849520977865874,0.9979166666666667
1893,0.48498513379583746,0.9979166666666667
1894,0.4962834489593657,0.9979166666666667
1895,0.4963164849686158,0.9979166666666667
1896,0.49654773703336635,0.9979166666666667
1897,0.49658077304261644,0.9979166666666667
1898,0.4968946151304922,0.9979166666666667
1899,0.4969276511397423,0.9979166666666667
1900,0.4996696399074992,0.9979166666666667
1901,0.4997026759167493,0.9979166666666667
1902,0.5006111661711266,0.9979166666666667
1903,0.5006442021803766,0.9979166666666667
1904,0.5032375289065081,0.9979166666666667
1905,0.5032705649157582,0.9979166666666667
1906,0.5043277172117608,0.9979166666666667
1907,0.5043607532210109,0.9979166666666667
1908,0.5086223984142716,0.9979166666666667
1909,0.5086554344235217,0.9979166666666667
1910,0.5105715229600264,0.9979166666666667
1911,0.5106045589692765,0.9979166666666667
1912,0.512008589362405,0.9979166666666667
1913,0.512008589362405,0.9986111111111111
1914,0.5129335976214073,0.9986111111111111
1915,0.5129666336306574,0.9986111111111111
1916,0.5139411959035348,0.9986111111111111
1917,0.5139742319127849,0.9986111111111111
1918,0.5151470102411628,0.9986111111111111
1919,0.5151800462504129,0.9986111111111111
1920,0.5164354146019161,0.9986111111111111
1921,0.5164684506111662,0.9986111111111111
1922,0.5240336967294351,0.9986111111111111
1923,0.5240667327386852,0.9986111111111111
1924,0.527205153617443,0.9986111111111111
1925,0.5272381896266931,0.9986111111111111
1926,0.5281962338949455,0.9986111111111111
1927,0.5282292699041956,0.9986111111111111
1928,0.5319127849355798,0.9986111111111111
1929,0.5319458209448299,0.9986111111111111
1930,0.5328543111992071,0.9986111111111111
1931,0.5328873472084572,0.9986111111111111
1932,0.5344235216385861,0.9986111111111111
1933,0.5344565576478362,0.9986111111111111
1934,0.5344895936570863,0.9986111111111111
1935,0.5344895936570863,0.9993055555555556
1936,0.5349025437727123,0.9993055555555556
1937,0.5349355797819624,0.9993055555555556
1938,0.5359101420548398,0.9993055555555556
1939,0.5359431780640899,0.9993055555555556
1940,0.5362405021473406,0.9993055555555556
1941,0.5362735381565907,0.9993055555555556
1942,0.5369342583415924,0.9993055555555556
1943,0.5369672943508425,0.9993055555555556
1944,0.539197224975223,0.9993055555555556
1945,0.5392302609844731,0.9993055555555556
1946,0.5401222332342253,0.9993055555555556
1947,0.5401552692434753,0.9993055555555556
1948,0.5404525933267261,0.9993055555555556
1949,0.5404856293359762,0.9993055555555556
1950,0.5405021473406012,0.9993055555555556
1951,0.5405351833498513,0.9993055555555556
1952,0.5413445655764784,0.9993055555555556
1953,0.5413776015857285,0.9993055555555556
1954,0.5453254046911133,0.9993055555555556
1955,0.5453584407003634,0.9993055555555556
1956,0.5458539808391146,0.9993055555555556
1957,0.5458870168483647,0.9993055555555556
1958,0.5493227618103733,0.9993055555555556
1959,0.5493557978196234,0.9993055555555556
1960,0.5517013544763792,0.9993055555555556
1961,0.5517343904856293,0.9993055555555556
1962,0.5527089527585067,0.9993055555555556
1963,0.5527419887677568,0.9993055555555556
1964,0.5555500495540139,0.9993055555555556
1965,0.555583085563264,0.9993055555555556
1966,0.5609018830525273,0.9993055555555556
1967,0.5609349190617773,0.9993055555555556
1968,0.5609514370664024,0.9993055555555556
1969,0.5609844730756525,0.9993055555555556
1970,0.5625536835150314,0.9993055555555556
1971,0.5625867195242815,0.9993055555555556
1972,0.566418896597291,0.9993055555555556
1973,0.5664519326065411,0.9993055555555556
1974,0.5673273868516683,0.9993055555555556
1975,0.5673604228609184,0.9993055555555556
1976,0.5706475057813016,0.9993055555555556
1977,0.5706805417905517,0.9993055555555556
1978,0.5722993062438058,0.9993055555555556
1979,0.5723323422530558,0.9993055555555556
1980,0.5734555665675587,0.9993055555555556
1981,0.5734886025768087,0.9993055555555556
1982,0.5738519986785596,0.9993055555555556
1983,0.5738850346878097,0.9993055555555556
1984,0.5750743310208127,0.9993055555555556
1985,0.5751073670300628,0.9993055555555556
1986,0.5752560290716882,0.9993055555555556
1987,0.5752890650809382,0.9993055555555556
1988,0.5763296993723158,0.9993055555555556
1989,0.5763627353815659,0.9993055555555556
1990,0.5778658738024447,0.9993055555555556
1991,0.5778989098116948,0.9993055555555556
1992,0.5787578460521969,0.9993055555555556
1993,0.578790882061447,0.9993055555555556
1994,0.5808225966303271,0.9993055555555556
1995,0.5808556326395772,0.9993055555555556
1996,0.5865213082259663,0.9993055555555556
1997,0.5865543442352164,0.9993055555555556
1998,0.590403039312851,0.9993055555555556
1999,0.5904360753221011,0.9993055555555556
2000,0.5907168814007268,0.9993055555555556
2001,0.5907499174099768,0.9993055555555556
2002,0.5926329699372316,0.9993055555555556
2003,0.5926660059464817,0.9993055555555556
2004,0.5936405682193591,0.9993055555555556
2005,0.5936736042286092,0.9993055555555556
2006,0.5957713908159894,0.9993055555555556
2007,0.5958044268252395,0.9993055555555556
2008,0.5963330029732409,0.9993055555555556
2009,0.596366038982491,0.9993055555555556
2010,0.5966468450611166,0.9993055555555556
2011,0.5966798810703667,0.9993055555555556
2012,0.5985629335976214,0.9993055555555556
2013,0.5985959696068714,0.9993055555555556
2014,0.5996366038982491,0.9993055555555556
2015,0.5996696399074992,0.9993055555555556
2016,0.6022960026428807,0.9993055555555556
2017,0.6023290386521308,0.9993055555555556
2018,0.6057813016187644,0.9993055555555556
2019,0.6058143376280145,0.9993055555555556
2020,0.6072514040303931,0.9993055555555556
2021,0.6072844400396432,0.9993055555555556
2022,0.6086058804096465,0.9993055555555556
2023,0.6086389164188966,0.9993055555555556
2024,0.6117277832837793,0.9993055555555556
2025,0.6117608192930294,0.9993055555555556
2026,0.6118434093161547,0.9993055555555556
2027,0.6118764453254046,0.9993055555555556
2028,0.6126693095474067,0.9993055555555556
2029,0.6127023455566567,0.9993055555555556
2030,0.613214403700033,0.9993055555555556
2031,0.6132474397092831,0.9993055555555556
2032,0.6134786917740337,0.9993055555555556
2033,0.6135117277832838,0.9993055555555556
2034,0.6146349520977866,0.9993055555555556
2035,0.6146679881070367,0.9993055555555556
2036,0.6165675586389164,0.9993055555555556
2037,0.6166005946481665,0.9993055555555556
2038,0.6214734060125536,0.9993055555555556
2039,0.6215064420218037,0.9993055555555556
2040,0.6235216385860588,0.9993055555555556
2041,0.6235546745953089,0.9993055555555556
2042,0.623604228609184,0.9993055555555556
2043,0.623637264618434,0.9993055555555556
2044,0.62401717872481,0.9993055555555556
2045,0.6240502147340601,0.9993055555555556
2046,0.6246778989098117,0.9993055555555556
2047,0.6247439709283119,0.9993055555555556
2048,0.6261975553353155,0.9993055555555556
2049,0.6262305913445656,0.9993055555555556
2050,0.6263296993723159,0.9993055555555556
2051,0.626362735381566,0.9993055555555556
2052,0.628774364056822,0.9993055555555556
2053,0.628807400066072,0.9993055555555556
2054,0.6292533861909482,0.9993055555555556
2055,0.6292864222001983,0.9993055555555556
2056,0.6309712586719525,0.9993055555555556
2057,0.6310042946812026,0.9993055555555556
2058,0.6317476048893294,0.9993055555555556
2059,0.6317806408985794,0.9993055555555556
2060,0.6337297654443343,0.9993055555555556
2061,0.6337628014535844,0.9993055555555556
2062,0.634786917740337,0.9993055555555556
2063,0.634819953749587,0.9993055555555556
2064,0.6364882722167162,0.9993055555555556
2065,0.6365213082259663,0.9993055555555556
2066,0.6366204162537166,0.9993055555555556
2067,0.6366534522629667,0.9993055555555556
2068,0.6366864882722167,0.9993055555555556
2069,0.6367195242814668,0.9993055555555556
2070,0.6367360422860918,0.9993055555555556
2071,0.6367690782953419,0.9993055555555556
2072,0.63800792864222,0.9993055555555556
2073,0.6380409646514701,0.9993055555555556
2074,0.6387182028410968,0.9993055555555556
2075,0.6387512388503469,0.9993055555555556
2076,0.6392798149983482,0.9993055555555556
2077,0.6393128510075983,0.9993055555555556
2078,0.639626693095474,0.9993055555555556
2079,0.6396597291047241,0.9993055555555556
2080,0.6397092831185993,0.9993055555555556
2081,0.6397423191278494,0.9993055555555556
2082,0.6402874132804757,0.9993055555555556
2083,0.6403204492897258,0.9993055555555556
2084,0.6410142054839776,0.9993055555555556
2085,0.6410472414932277,0.9993055555555556
2086,0.6411298315163528,0.9993055555555556
2087,0.6411628675256029,0.9993055555555556
2088,0.6417575156921044,0.9993055555555556
2089,0.6417905517013545,0.9993055555555556
2090,0.6426494879418566,0.9993055555555556
2091,0.6426825239511067,0.9993055555555556
2092,0.643557978196234,0.9993055555555556
2093,0.6435910142054839,0.9993055555555556
2094,0.6446316484968616,0.9993055555555556
2095,0.6446646845061117,0.9993055555555556
2096,0.6450776346217377,0.9993055555555556
2097,0.6451106706309878,0.9993055555555556
2098,0.6464651470102412,0.9993055555555556
2099,0.6464981830194912,0.9993055555555556
2100,0.6477205153617444,0.9993055555555556
2101,0.6477535513709943,0.9993055555555556
2102,0.6484473075652462,0.9993055555555556
2103,0.6484803435744962,0.9993055555555556
2104,0.6486455236207466,0.9993055555555556
2105,0.6486785596299967,0.9993055555555556
2106,0.6488437396762471,0.9993055555555556
2107,0.6488767756854972,0.9993055555555556
2108,0.6489428477039973,0.9993055555555556
2109,0.6489428477039973,1.0
2110,0.6518500165180047,1.0
2111,0.6518830525272548,1.0
2112,0.6521473406012553,1.0
2113,0.6521803766105054,1.0
2114,0.6535513709943839,1.0
2115,0.653584407003634,1.0
2116,0.655583085563264,1.0
2117,0.655616121572514,1.0
2118,0.6557978196233895,1.0
2119,0.6558308556326395,1.0
2120,0.6578460521968946,1.0
2121,0.6578790882061447,1.0
2122,0.6581433762801454,1.0
2123,0.6581764122893955,1.0
2124,0.6585728444003964,1.0
2125,0.6586058804096465,1.0
2126,0.6622563594317806,1.0
2127,0.6622893954410307,1.0
2128,0.6633135117277833,1.0
2129,0.6633795837462835,1.0
2130,0.6633961017509085,1.0
2131,0.6634621737694086,1.0
2132,0.6634952097786587,1.0
2133,0.6635282457879088,1.0
2134,0.6652626362735382,1.0
2135,0.6652956722827882,1.0
2136,0.6662867525602907,1.0
2137,0.6663197885695408,1.0
2138,0.6675090849025438,1.0
2139,0.6675421209117939,1.0
2140,0.6697555335315494,1.0
2141,0.6697885695407995,1.0
2142,0.6712586719524282,1.0
2143,0.6712917079616783,1.0
2144,0.672761810373307,1.0
2145,0.6727948463825569,1.0
2146,0.6729435084241824,1.0
2147,0.6729765444334325,1.0
2148,0.6746944169144368,1.0
2149,0.6747274529236869,1.0
2150,0.6765774694416914,1.0
2151,0.6766105054509415,1.0
2152,0.6773207796498183,1.0
2153,0.6773538156590684,1.0
2154,0.6781301618764454,1.0
2155,0.6781631978856955,1.0
2156,0.6788734720845722,1.0
2157,0.6789065080938222,1.0
2158,0.679633300297324,1.0
2159,0.6796663363065741,1.0
2160,0.6801783944499504,1.0
2161,0.6802114304592005,1.0
2162,0.6824578790882061,1.0
2163,0.6824909150974562,1.0
2164,0.6830525272547077,1.0
2165,0.6830855632639578,1.0
2166,0.6840105715229601,1.0
2167,0.6840436075322102,1.0
2168,0.6844895936570862,1.0
2169,0.6845226296663363,1.0
2170,0.6856788899900892,1.0
2171,0.6857119259993393,1.0
2172,0.6858440700363396,1.0
2173,0.6858771060455897,1.0
2174,0.6868681863230922,1.0
2175,0.6869012223323423,1.0
2176,0.6874958704988438,1.0
2177,0.6875289065080938,1.0
2178,0.6877436405682193,1.0
2179,0.6877766765774694,1.0
2180,0.6887347208457218,1.0
2181,0.6887677568549719,1.0
2182,0.6897588371324744,1.0
2183,0.6897918731417245,1.0
2184,0.6909481334654773,1.0
2185,0.6909811694747274,1.0
2186,0.6913115295672283,1.0
2187,0.6913445655764784,1.0
2188,0.6934588701684836,1.0
2189,0.6934919061777337,1.0
2190,0.6948463825569872,1.0
2191,0.6948794185662373,1.0
2192,0.6954575487281136,1.0
2193,0.6954905847373637,1.0
2194,0.6963330029732409,1.0
2195,0.6963660389824909,1.0
2196,0.6981004294681202,1.0
2197,0.6981334654773703,1.0
2198,0.6991575817641229,1.0
2199,0.699190617773373,1.0
2200,0.6999008919722498,1.0
2201,0.6999339279814998,1.0
2202,0.7006937561942518,1.0
2203,0.7007267922035019,1.0
2204,0.7025272547076313,1.0
2205,0.7025602907168814,1.0
2206,0.7035183349851338,1.0
2207,0.7035513709943839,1.0
2208,0.7037495870498843,1.0
2209,0.7037826230591344,1.0
2210,0.7130657416584076,1.0
2211,0.7130987776676577,1.0
2212,0.71402378592666,1.0
2213,0.7140568219359101,1.0
2214,0.7143376280145358,1.0
2215,0.7143706640237859,1.0
2216,0.7149653121902874,1.0
2217,0.7149983481995374,1.0
2218,0.7156590683845392,1.0
2219,0.7156921043937893,1.0
2220,0.7157581764122894,1.0
2221,0.7157912124215394,1.0
2222,0.7188965972910473,1.0
2223,0.7189296333002974,1.0
2224,0.7198546415592997,1.0
2225,0.7198876775685498,1.0
2226,0.721159563924678,1.0
2227,0.721192599933928,1.0
2228,0.7214734060125537,1.0
2229,0.7215064420218038,1.0
2230,0.7225801123224315,1.0
2231,0.7226131483316816,1.0
2232,0.7245127188635613,1.0
2233,0.7245457548728114,1.0
2234,0.7258176412289395,1.0
2235,0.7258506772381896,1.0
2236,0.7306574165840767,1.0
2237,0.7306904525933268,1.0
2238,0.7350181698050875,1.0
2239,0.7350512058143376,1.0
2240,0.7361248761149654,1.0
2241,0.7361909481334655,1.0
2242,0.7369342583415923,1.0
2243,0.7369672943508424,1.0
2244,0.7379583746283449,1.0
2245,0.737991410637595,1.0
2246,0.7381731086884704,1.0
2247,0.7382061446977205,1.0
2248,0.7385530227948464,1.0
2249,0.7385860588040964,1.0
2250,0.7394284770399736,1.0
2251,0.7394615130492237,1.0
2252,0.7399405351833499,1.0
2253,0.7399735711926,1.0
2254,0.7432936901222332,1.0
2255,0.7433267261314833,1.0
2256,0.7441361083581104,1.0
2257,0.7441691443673604,1.0
2258,0.7443012884043607,1.0
2259,0.7443343244136108,1.0
2260,0.7474892632969937,1.0
2261,0.7475222993062438,1.0
2262,0.750016518004625,1.0
2263,0.7500495540138751,1.0
2264,0.7516518004625041,1.0
2265,0.7516848364717542,1.0
2266,0.7518334985133796,1.0
2267,0.7518665345226296,1.0
2268,0.7529567228278824,1.0
2269,0.7529897588371325,1.0
2270,0.7556656755863892,1.0
2271,0.7556987115956393,1.0
2272,0.7580607862570201,1.0
2273,0.7580938222662702,1.0
2274,0.7587710604558969,1.0
2275,0.758804096465147,1.0
2276,0.7599108027750248,1.0
2277,0.7599438387842748,1.0
2278,0.7626527915427816,1.0
2279,0.7626858275520317,1.0
2280,0.7629170796167823,1.0
2281,0.7629501156260323,1.0
2282,0.7645523620746614,1.0
2283,0.7645853980839115,1.0
2284,0.7657912124215395,1.0
2285,0.7658242484307896,1.0
2286,0.7719359101420549,1.0
2287,0.771968946151305,1.0
2288,0.7801453584407003,1.0
2289,0.7801783944499504,1.0
2290,0.7803600925008259,1.0
2291,0.780393128510076,1.0
2292,0.782804757185332,1.0
2293,0.7828377931945821,1.0
2294,0.7890320449289726,1.0
2295,0.7890650809382227,1.0
2296,0.79000660720185,1.0
2297,0.7900396432111001,1.0
2298,0.7937231582424843,1.0
2299,0.7937561942517344,1.0
2300,0.7962338949454906,1.0
2301,0.7962669309547407,1.0
2302,0.799587049884374,1.0
2303,0.7996200858936241,1.0
2304,0.8020812685827552,1.0
2305,0.8021143045920053,1.0
2306,0.8022960026428807,1.0
2307,0.8023290386521308,1.0
2308,0.8039147670961347,1.0
2309,0.8039478031053848,1.0
2310,0.8042286091840106,1.0
2311,0.8042616451932606,1.0
2312,0.8047076313181367,1.0
2313,0.8047406673273868,1.0
2314,0.8047737033366369,1.0
2315,0.804806739345887,1.0
2316,0.8052527254707631,1.0
2317,0.8052857614800132,1.0
2318,0.8077634621737694,1.0
2319,0.8077964981830195,1.0
2320,0.8084241823587711,1.0
2321,0.8084572183680211,1.0
2322,0.8084902543772712,1.0
2323,0.8085232903865213,1.0
2324,0.8089197224975223,1.0
2325,0.8089527585067724,1.0
2326,0.8102081268582755,1.0
2327,0.8102411628675256,1.0
2328,0.8122728774364056,1.0
2329,0.8123059134456557,1.0
2330,0.8140403039312851,1.0
2331,0.8140733399405352,1.0
2332,0.815196564255038,1.0
2333,0.815229600264288,1.0
2334,0.8153782623059135,1.0
2335,0.8154112983151636,1.0
2336,0.8238685166831847,1.0
2337,0.8239015526924347,1.0
2338,0.824826560951437,1.0
2339,0.8248595969606871,1.0
2340,0.8256359431780641,1.0
2341,0.8256689791873142,1.0
2342,0.8259663032705649,1.0
2343,0.825999339279815,1.0
2344,0.8262966633630657,1.0
2345,0.8263296993723158,1.0
2346,0.8269573835480674,1.0
2347,0.8269904195573174,1.0
2348,0.8273042616451932,1.0
2349,0.8273372976544433,1.0
2350,0.8311199207135778,1.0
2351,0.8311529567228279,1.0
2352,0.8326395771390815,1.0
2353,0.8326726131483316,1.0
2354,0.8351503138420878,1.0
2355,0.8351833498513379,1.0
2356,0.8377106045589693,1.0
2357,0.8377436405682194,1.0
2358,0.8385365047902213,1.0
2359,0.8385695407994714,1.0
2360,0.8390485629335976,1.0
2361,0.8390815989428477,1.0
2362,0.842814667988107,1.0
2363,0.8428477039973571,1.0
2364,0.8457713908159894,1.0
2365,0.8458044268252395,1.0
2366,0.846415592996366,1.0
2367,0.8464486290056161,1.0
2368,0.848794185662372,1.0
2369,0.8488272216716221,1.0
2370,0.8490584737363727,1.0
2371,0.8490915097456228,1.0
2372,0.8492566897918732,1.0
2373,0.8492897258011233,1.0
2374,0.8493557978196233,1.0
2375,0.8493888338288734,1.0
2376,0.8497852659398745,1.0
2377,0.8498183019491246,1.0
2378,0.8512553683515032,1.0
2379,0.8512884043607533,1.0
2380,0.8516352824578791,1.0
2381,0.8517013544763793,1.0
2382,0.8524281466798811,1.0
2383,0.8524611826891312,1.0
2384,0.852808060786257,1.0
2385,0.8528410967955071,1.0
2386,0.8551205814337628,1.0
2387,0.8551536174430129,1.0
2388,0.8585067723818963,1.0
2389,0.8585398083911463,1.0
2390,0.8586389164188966,1.0
2391,0.8586719524281466,1.0
2392,0.859200528576148,1.0
2393,0.8592335645853981,1.0
2394,0.8593326726131484,1.0
2395,0.8593657086223984,1.0
2396,0.8635943178064089,1.0
2397,0.863627353815659,1.0
2398,0.8640403039312851,1.0
2399,0.8640733399405351,1.0
2400,0.8641889659729105,1.0
2401,0.8642220019821606,1.0
2402,0.8726627023455567,1.0
2403,0.8726957383548067,1.0
2404,0.8746448629005616,1.0
2405,0.8746778989098117,1.0
2406,0.8747109349190618,1.0
2407,0.8747439709283119,1.0
2408,0.8757680872150644,1.0
2409,0.8758011232243145,1.0
2410,0.8761645193260654,1.0
2411,0.8761975553353155,1.0
2412,0.8762966633630658,1.0
2413,0.8763296993723159,1.0
2414,0.8764618434093161,1.0
2415,0.8764948794185662,1.0
2416,0.8774364056821936,1.0
2417,0.8774694416914437,1.0
2418,0.877568549719194,1.0
2419,0.877601585728444,1.0
2420,0.878410967955071,1.0
2421,0.8784440039643211,1.0
2422,0.8792203501816981,1.0
2423,0.8792533861909482,1.0
2424,0.8792864222001983,1.0
2425,0.8793194582094483,1.0
2426,0.8801618764453254,1.0
2427,0.8801949124545755,1.0
2428,0.8804922365378263,1.0
2429,0.8805252725470764,1.0
2430,0.8877106045589693,1.0
2431,0.8877436405682193,1.0
2432,0.8930459200528577,1.0
2433,0.8930954740667327,1.0
2434,0.8961678229269904,1.0
2435,0.8962008589362405,1.0
2436,0.896382556987116,1.0
2437,0.8964155929963661,1.0
2438,0.8965147010241162,1.0
2439,0.8965477370333663,1.0
2440,0.8968780971258672,1.0
2441,0.8969111331351173,1.0
2442,0.8977535513709943,1.0
2443,0.8977865873802444,1.0
2444,0.8986124876114965,1.0
2445,0.8986455236207466,1.0
2446,0.8987611496531219,1.0
2447,0.898794185662372,1.0
2448,0.9018169805087546,1.0
2449,0.9018500165180047,1.0
2450,0.9065576478361413,1.0
2451,0.9065906838453914,1.0
2452,0.9069871159563925,1.0
2453,0.9070201519656426,1.0
2454,0.9112487611496531,1.0
2455,0.9112817971589032,1.0
2456,0.9159398744631648,1.0
2457,0.9159729104724149,1.0
2458,0.9163528245787909,1.0
2459,0.916385860588041,1.0
2460,0.9164519326065411,1.0
2461,0.9164849686157912,1.0
2462,0.9165510406342914,1.0
2463,0.9165840766435415,1.0
2464,0.9167327386851668,1.0
2465,0.9167657746944169,1.0
2466,0.9180211430459201,1.0
2467,0.9180541790551702,1.0
2468,0.9194582094482986,1.0
2469,0.9194912454575487,1.0
2470,0.9269739015526924,1.0
2471,0.9270069375619425,1.0
2472,0.9308556326395772,1.0
2473,0.9308886686488272,1.0
2474,0.9333498513379583,1.0
2475,0.9333828873472084,1.0
2476,0.9375289065080938,1.0
2477,0.9375619425173439,1.0
2478,0.9378262305913445,1.0
2479,0.9378592666005946,1.0
2480,0.9418070697059795,1.0
2481,0.9418401057152296,1.0
2482,0.9427320779649818,1.0
2483,0.9427651139742319,1.0
2484,0.9477370333663694,1.0
2485,0.9477700693756195,1.0
2486,0.9489593657086224,1.0
2487,0.9489924017178725,1.0
2488,0.95199867855963,1.0
2489,0.95203171456888,1.0
2490,0.9526098447307565,1.0
2491,0.9526428807400066,1.0
2492,0.9529071688140073,1.0
2493,0.9529402048232574,1.0
2494,0.9530723488602577,1.0
2495,0.9531053848695078,1.0
2496,0.9545094152626362,1.0
2497,0.9545424512718863,1.0
2498,0.9546580773042617,1.0
2499,0.9546911133135118,1.0
2500,0.9607367030062769,1.0
2501,0.9607697390155269,1.0
2502,0.960835811034027,1.0
2503,0.9608688470432771,1.0
2504,0.9621076973901552,1.0
2505,0.9621407333994053,1.0
2506,0.9654112983151635,1.0
2507,0.9654443343244136,1.0
2508,0.9654608523290387,1.0
2509,0.9654938883382888,1.0
2510,0.9706970597951767,1.0
2511,0.9707300958044268,1.0
2512,0.9740997687479352,1.0
2513,0.9741328047571853,1.0
2514,0.9744962008589363,1.0
2515,0.9745292368681864,1.0
2516,0.9757846052196895,1.0
2517,0.9758176412289395,1.0
2518,0.9842748595969607,1.0
2519,0.9843078956062108,1.0
2520,0.9843244136108358,1.0
2521,0.9843574496200859,1.0
2522,0.9848364717542121,1.0
2523,0.9848695077634622,1.0
2524,0.9852824578790882,1.0
2525,0.9853154938883383,1.0
2526,0.9866204162537165,1.0
2527,0.9866534522629666,1.0
2528,0.9883878427485959,1.0
2529,0.988420878757846,1.0
2530,0.9918401057152296,1.0
2531,0.9918731417244797,1.0
2532,0.992385199867856,1.0
2533,0.9924182358771061,1.0
2534,0.9927485959696069,1.0
2535,0.9927816319788569,1.0
2536,0.9930954740667327,1.0
2537,0.9931285100759828,1.0
2538,0.9934423521638586,1.0
2539,0.9934753881731087,1.0
2540,0.9938883382887347,1.0
2541,0.9939213742979848,1.0
2542,0.9961017509084903,1.0
2543,0.9961347869177404,1.0
2544,0.9984968615791212,1.0
2545,0.9985298975883713,1.0
2546,1.0,1.0
