,fpr,tpr
0,0.0,0.0
1,0.0,0.0003403675970047651
2,0.0,0.004765146358066712
3,1.7075919538267136e-05,0.004765146358066712
4,1.7075919538267136e-05,0.13648740639891083
5,3.415183907653427e-05,0.13648740639891083
6,3.415183907653427e-05,0.1980939414567733
7,5.1227758614801405e-05,0.1980939414567733
8,5.1227758614801405e-05,0.26991150442477874
9,6.830367815306854e-05,0.26991150442477874
10,6.830367815306854e-05,0.32675289312457456
11,8.537959769133568e-05,0.32675289312457456
12,8.537959769133568e-05,0.3665759019741321
13,0.00010245551722960281,0.3665759019741321
14,0.00010245551722960281,0.41660993873383256
15,0.00011953143676786995,0.41660993873383256
16,0.00011953143676786995,0.4387338325391423
17,0.0001366073563061371,0.4387338325391423
18,0.0001366073563061371,0.44452008168822327
19,0.00015368327584440423,0.44452008168822327
20,0.00015368327584440423,0.4530292716133424
21,0.00017075919538267137,0.4530292716133424
22,0.00017075919538267137,0.4853641933287951
23,0.00018783511492093848,0.4853641933287951
24,0.00018783511492093848,0.48842750170183796
25,0.00020491103445920562,0.48842750170183796
26,0.00020491103445920562,0.5313138189244384
27,0.00022198695399747276,0.5313138189244384
28,0.00022198695399747276,0.5524166099387339
29,0.0002390628735357399,0.5524166099387339
30,0.0002390628735357399,0.556501021102791
31,0.000256138793074007,0.556501021102791
32,0.000256138793074007,0.5616065350578625
33,0.0002732147126122742,0.5616065350578625
34,0.0002732147126122742,0.5670524166099388
35,0.0002902906321505413,0.5670524166099388
36,0.0002902906321505413,0.5718175629680055
37,0.00030736655168880846,0.5718175629680055
38,0.00030736655168880846,0.5772634445200817
39,0.00032444247122707557,0.5772634445200817
40,0.00032444247122707557,0.584070796460177
41,0.00034151839076534274,0.584070796460177
42,0.00034151839076534274,0.5874744724302247
43,0.00035859431030360985,0.5874744724302247
44,0.00035859431030360985,0.589857045609258
45,0.00037567022984187696,0.589857045609258
46,0.00037567022984187696,0.595643294758339
47,0.00039274614938014413,0.595643294758339
48,0.00039274614938014413,0.5987066031313819
49,0.00040982206891841124,0.5987066031313819
50,0.00040982206891841124,0.6024506466984343
51,0.0004268979884566784,0.6024506466984343
52,0.0004268979884566784,0.6034717494894486
53,0.0004439739079949455,0.6034717494894486
54,0.0004439739079949455,0.6055139550714772
55,0.0004610498275332127,0.6055139550714772
56,0.0004610498275332127,0.6085772634445201
57,0.0004781257470714798,0.6085772634445201
58,0.0004781257470714798,0.6194690265486725
59,0.0004952016666097469,0.6194690265486725
60,0.0004952016666097469,0.6201497617426821
61,0.000512277586148014,0.6201497617426821
62,0.000512277586148014,0.623213070115725
63,0.0005293535056862812,0.623213070115725
64,0.0005293535056862812,0.6293396868618107
65,0.0005464294252245484,0.6293396868618107
66,0.0005464294252245484,0.6296800544588155
67,0.0005635053447628155,0.6296800544588155
68,0.0005635053447628155,0.6300204220558203
69,0.0005805812643010826,0.6300204220558203
70,0.0005805812643010826,0.6337644656228727
71,0.0005976571838393497,0.6337644656228727
72,0.0005976571838393497,0.6368277739959156
73,0.0006147331033776169,0.6368277739959156
74,0.0006147331033776169,0.6371681415929203
75,0.000631809022915884,0.6371681415929203
76,0.000631809022915884,0.6375085091899251
77,0.0006659608619924183,0.6375085091899251
78,0.0006659608619924183,0.6378488767869299
79,0.0006830367815306855,0.6378488767869299
80,0.0006830367815306855,0.6395507147719537
81,0.0007001127010689526,0.6395507147719537
82,0.0007001127010689526,0.641933287950987
83,0.0007171886206072197,0.641933287950987
84,0.0007171886206072197,0.6439754935330156
85,0.0007342645401454868,0.6439754935330156
86,0.0007342645401454868,0.6443158611300204
87,0.0007513404596837539,0.6443158611300204
88,0.0007513404596837539,0.64499659632403
89,0.0007684163792220211,0.64499659632403
90,0.0007684163792220211,0.6497617426820966
91,0.0007854922987602883,0.6497617426820966
92,0.0007854922987602883,0.6511232130701157
93,0.0008025682182985554,0.6511232130701157
94,0.0008025682182985554,0.6528250510551395
95,0.0008196441378368225,0.6528250510551395
96,0.0008196441378368225,0.6538461538461539
97,0.0008367200573750896,0.6538461538461539
98,0.0008367200573750896,0.6558883594281825
99,0.0008537959769133568,0.6558883594281825
100,0.0008537959769133568,0.6565690946221919
101,0.0008708718964516239,0.6565690946221919
102,0.0008708718964516239,0.6569094622191968
103,0.000887947815989891,0.6569094622191968
104,0.000887947815989891,0.6589516678012253
105,0.0009220996550664254,0.6589516678012253
106,0.0009220996550664254,0.6609938733832539
107,0.0009391755746046925,0.6609938733832539
108,0.0009391755746046925,0.6620149761742682
109,0.0009562514941429596,0.6620149761742682
110,0.0009562514941429596,0.6626957113682778
111,0.0009733274136812267,0.6626957113682778
112,0.0009733274136812267,0.6643975493533015
113,0.0009904033332194938,0.6643975493533015
114,0.0009904033332194938,0.6671204901293397
115,0.001007479252757761,0.6671204901293397
116,0.001007479252757761,0.6684819605173588
117,0.001024555172296028,0.6684819605173588
118,0.001024555172296028,0.6712049012933968
119,0.0010416310918342953,0.6712049012933968
120,0.0010416310918342953,0.672566371681416
121,0.0010587070113725625,0.672566371681416
122,0.0010587070113725625,0.6729067392784207
123,0.0010757829309108295,0.6729067392784207
124,0.0010757829309108295,0.675289312457454
125,0.0010928588504490967,0.675289312457454
126,0.0010928588504490967,0.6780122532334921
127,0.001127010689525631,0.6780122532334921
128,0.001127010689525631,0.6786929884275017
129,0.0011440866090638982,0.6786929884275017
130,0.0011440866090638982,0.6820966643975493
131,0.0011611625286021652,0.6820966643975493
132,0.0011611625286021652,0.6827773995915589
133,0.0011782384481404324,0.6827773995915589
134,0.0011782384481404324,0.6834581347855684
135,0.0011953143676786994,0.6834581347855684
136,0.0011953143676786994,0.684138869979578
137,0.0012123902872169666,0.684138869979578
138,0.0012123902872169666,0.6851599727705923
139,0.0012294662067552338,0.6851599727705923
140,0.0012294662067552338,0.685500340367597
141,0.0012465421262935008,0.685500340367597
142,0.0012465421262935008,0.691286589516678
143,0.001263618045831768,0.691286589516678
144,0.001263618045831768,0.6916269571136828
145,0.0012977698849083023,0.6916269571136828
146,0.0012977698849083023,0.6929884275017019
147,0.0013148458044465695,0.6929884275017019
148,0.0013148458044465695,0.6933287950987066
149,0.0013319217239848365,0.6933287950987066
150,0.0013319217239848365,0.6943498978897209
151,0.0013489976435231037,0.6943498978897209
152,0.0013489976435231037,0.6946902654867256
153,0.001383149482599638,0.6946902654867256
154,0.001383149482599638,0.6963921034717495
155,0.0014002254021379052,0.6963921034717495
156,0.0014002254021379052,0.6967324710687542
157,0.0014173013216761722,0.6967324710687542
158,0.0014173013216761722,0.6974132062627638
159,0.0014343772412144394,0.6974132062627638
160,0.0014343772412144394,0.6980939414567733
161,0.0014685290802909736,0.6980939414567733
162,0.0014685290802909736,0.6987746766507829
163,0.0015026809193675078,0.6987746766507829
164,0.0015026809193675078,0.6994554118447924
165,0.001519756838905775,0.6994554118447924
166,0.001519756838905775,0.6997957794417972
167,0.0015368327584440423,0.6997957794417972
168,0.0015368327584440423,0.7008168822328115
169,0.0015539086779823093,0.7008168822328115
170,0.0015539086779823093,0.7014976174268209
171,0.0015709845975205765,0.7014976174268209
172,0.0015709845975205765,0.7021783526208305
173,0.0015880605170588435,0.7021783526208305
174,0.0015880605170588435,0.7062627637848877
175,0.0016051364365971107,0.7062627637848877
176,0.0016051364365971107,0.7076242341729068
177,0.001622212356135378,0.7076242341729068
178,0.001622212356135378,0.7106875425459497
179,0.001639288275673645,0.7106875425459497
180,0.001639288275673645,0.7117086453369639
181,0.0016563641952119122,0.7117086453369639
182,0.0016563641952119122,0.7120490129339687
183,0.0016734401147501792,0.7120490129339687
184,0.0016734401147501792,0.7123893805309734
185,0.0017075919538267136,0.7123893805309734
186,0.0017075919538267136,0.7140912185159973
187,0.0017417437929032479,0.7140912185159973
188,0.0017417437929032479,0.7144315861130021
189,0.001758819712441515,0.7144315861130021
190,0.001758819712441515,0.7164737916950307
191,0.001775895631979782,0.7164737916950307
192,0.001775895631979782,0.7168141592920354
193,0.0017929715515180493,0.7168141592920354
194,0.0017929715515180493,0.7181756296800544
195,0.0018441993101328507,0.7181756296800544
196,0.0018441993101328507,0.7205582028590878
197,0.0018612752296711178,0.7205582028590878
198,0.0018612752296711178,0.7208985704560926
199,0.001878351149209385,0.7208985704560926
200,0.001878351149209385,0.7222600408441117
201,0.001895427068747652,0.7222600408441117
202,0.001895427068747652,0.7226004084411164
203,0.0019125029882859192,0.7226004084411164
204,0.0019125029882859192,0.7236215112321307
205,0.0019295789078241864,0.7236215112321307
206,0.0019295789078241864,0.724642614023145
207,0.0019466548273624534,0.724642614023145
208,0.0019466548273624534,0.7249829816201497
209,0.0019808066664389876,0.7249829816201497
210,0.0019808066664389876,0.7266848196051736
211,0.001997882585977255,0.7266848196051736
212,0.001997882585977255,0.7270251872021783
213,0.002014958505515522,0.7270251872021783
214,0.002014958505515522,0.7277059223961879
215,0.002049110344592056,0.7277059223961879
216,0.002049110344592056,0.7287270251872022
217,0.0020832621836685905,0.7287270251872022
218,0.0020832621836685905,0.7307692307692307
219,0.0021003381032068578,0.7307692307692307
220,0.0021003381032068578,0.7321307011572499
221,0.002117414022745125,0.7321307011572499
222,0.002117414022745125,0.7324710687542546
223,0.0021344899422833918,0.7324710687542546
224,0.0021344899422833918,0.734853641933288
225,0.002151565861821659,0.734853641933288
226,0.002151565861821659,0.736215112321307
227,0.0021857177008981934,0.736215112321307
228,0.0021857177008981934,0.7392784206943499
229,0.0022027936204364607,0.7392784206943499
230,0.0022027936204364607,0.7402995234853642
231,0.0022198695399747274,0.7402995234853642
232,0.0022198695399747274,0.7413206262763785
233,0.002254021379051262,0.7413206262763785
234,0.002254021379051262,0.7430224642614023
235,0.002271097298589529,0.7430224642614023
236,0.002271097298589529,0.7433628318584071
237,0.0022881732181277963,0.7433628318584071
238,0.0022881732181277963,0.7437031994554119
239,0.002305249137666063,0.7437031994554119
240,0.002305249137666063,0.7443839346494214
241,0.0023223250572043303,0.7443839346494214
242,0.0023223250572043303,0.7467665078284548
243,0.0023394009767425976,0.7467665078284548
244,0.0023394009767425976,0.7471068754254595
245,0.002407704654895666,0.7471068754254595
246,0.002407704654895666,0.7484683458134785
247,0.002476008333048735,0.7484683458134785
248,0.002476008333048735,0.7494894486044928
249,0.002510160172125269,0.7494894486044928
250,0.002510160172125269,0.7501701837985024
251,0.002527236091663536,0.7501701837985024
252,0.002527236091663536,0.7505105513955072
253,0.0025613879307400706,0.7505105513955072
254,0.0025613879307400706,0.7508509189925119
255,0.0025955397698166046,0.7508509189925119
256,0.0025955397698166046,0.7515316541865215
257,0.002629691608893139,0.7515316541865215
258,0.002629691608893139,0.7518720217835262
259,0.0026467675284314062,0.7518720217835262
260,0.0026467675284314062,0.7522123893805309
261,0.002663843447969673,0.7522123893805309
262,0.002663843447969673,0.7535738597685501
263,0.0026809193675079402,0.7535738597685501
264,0.0026809193675079402,0.7539142273655548
265,0.002783374884737543,0.7539142273655548
266,0.002783374884737543,0.7542545949625595
267,0.0028004508042758103,0.7542545949625595
268,0.0028004508042758103,0.7559564329475834
269,0.0028346026433523444,0.7559564329475834
270,0.0028346026433523444,0.7573179033356024
271,0.0029029063215054132,0.7573179033356024
272,0.0029029063215054132,0.7576582709326072
273,0.0029370581605819472,0.7576582709326072
274,0.0029370581605819472,0.757998638529612
275,0.0029712099996584817,0.757998638529612
276,0.0029712099996584817,0.7583390061266168
277,0.0030053618387350157,0.7583390061266168
278,0.0030053618387350157,0.7593601089176311
279,0.003022437758273283,0.7593601089176311
280,0.003022437758273283,0.7597004765146358
281,0.0030565895973498174,0.7597004765146358
282,0.0030565895973498174,0.7600408441116405
283,0.0030736655168880846,0.7600408441116405
284,0.0030736655168880846,0.7603812117086454
285,0.003124893275502886,0.7603812117086454
286,0.003124893275502886,0.7614023144996597
287,0.003141969195041153,0.7614023144996597
288,0.003141969195041153,0.7617426820966644
289,0.0031931969536559543,0.7617426820966644
290,0.0031931969536559543,0.7627637848876787
291,0.0032273487927324887,0.7627637848876787
292,0.0032273487927324887,0.7631041524846834
293,0.003244424712270756,0.7631041524846834
294,0.003244424712270756,0.763784887678693
295,0.0032615006318090227,0.763784887678693
296,0.0032615006318090227,0.7641252552756977
297,0.00327857655134729,0.7641252552756977
298,0.00327857655134729,0.7658270932607216
299,0.0033127283904238244,0.7658270932607216
300,0.0033127283904238244,0.7665078284547311
301,0.0033468802295003584,0.7665078284547311
302,0.0033468802295003584,0.7668481960517358
303,0.0033639561490386256,0.7668481960517358
304,0.0033639561490386256,0.7671885636487407
305,0.003381032068576893,0.7671885636487407
306,0.003381032068576893,0.7678692988427501
307,0.0034151839076534273,0.7678692988427501
308,0.0034151839076534273,0.768209666439755
309,0.0034322598271916945,0.768209666439755
310,0.0034322598271916945,0.7685500340367597
311,0.00351763942488303,0.7685500340367597
312,0.00351763942488303,0.7688904016337644
313,0.0035859431030360986,0.7688904016337644
314,0.0035859431030360986,0.769571136827774
315,0.0036200949421126326,0.769571136827774
316,0.0036200949421126326,0.7699115044247787
317,0.003654246781189167,0.7699115044247787
318,0.003654246781189167,0.7716133424098026
319,0.0038250059765718384,0.7716133424098026
320,0.0038250059765718384,0.7719537100068073
321,0.0038420818961101056,0.7719537100068073
322,0.0038420818961101056,0.7722940776038121
323,0.003859157815648373,0.7722940776038121
324,0.003859157815648373,0.7726344452008169
325,0.0038762337351866396,0.7726344452008169
326,0.0038762337351866396,0.7736555479918312
327,0.003893309654724907,0.7736555479918312
328,0.003893309654724907,0.773995915588836
329,0.003927461493801441,0.773995915588836
330,0.003927461493801441,0.7743362831858407
331,0.0039445374133397085,0.7743362831858407
332,0.0039445374133397085,0.7746766507828454
333,0.003961613332877975,0.7746766507828454
334,0.003961613332877975,0.775357385976855
335,0.003978689252416243,0.775357385976855
336,0.003978689252416243,0.7773995915588836
337,0.00399576517195451,0.7773995915588836
338,0.00399576517195451,0.7780803267528931
339,0.0040128410914927765,0.7780803267528931
340,0.0040128410914927765,0.7787610619469026
341,0.004046992930569311,0.7787610619469026
342,0.004046992930569311,0.7801225323349217
343,0.004149448447798914,0.7801225323349217
344,0.004149448447798914,0.7804628999319265
345,0.0042006762064137155,0.7804628999319265
346,0.0042006762064137155,0.7814840027229408
347,0.004217752125951982,0.7814840027229408
348,0.004217752125951982,0.782505105513955
349,0.00423482804549025,0.782505105513955
350,0.00423482804549025,0.7828454731109599
351,0.0042689798845667835,0.7828454731109599
352,0.0042689798845667835,0.7838665759019742
353,0.004337283562719852,0.7838665759019742
354,0.004337283562719852,0.7855684138869979
355,0.0044568149994877225,0.7855684138869979
356,0.0044568149994877225,0.7859087814840027
357,0.004473890919025989,0.7859087814840027
358,0.004473890919025989,0.7862491490810075
359,0.004490966838564257,0.7862491490810075
360,0.004490966838564257,0.7865895166780122
361,0.004508042758102524,0.7865895166780122
362,0.004508042758102524,0.786929884275017
363,0.004542194597179058,0.786929884275017
364,0.004542194597179058,0.7872702518720218
365,0.004559270516717325,0.7872702518720218
366,0.004559270516717325,0.7879509870660313
367,0.004627574194870394,0.7879509870660313
368,0.004627574194870394,0.7882913546630361
369,0.004661726033946928,0.7882913546630361
370,0.004661726033946928,0.7886317222600409
371,0.004695877873023462,0.7886317222600409
372,0.004695877873023462,0.7889720898570456
373,0.004747105631638264,0.7889720898570456
374,0.004747105631638264,0.7893124574540503
375,0.004764181551176531,0.7893124574540503
376,0.004764181551176531,0.7899931926480599
377,0.004798333390253065,0.7899931926480599
378,0.004798333390253065,0.7913546630360789
379,0.004815409309791332,0.7913546630360789
380,0.004815409309791332,0.7916950306330838
381,0.004866637068406134,0.7916950306330838
382,0.004866637068406134,0.7920353982300885
383,0.0049690925856357366,0.7920353982300885
384,0.0049690925856357366,0.7923757658270932
385,0.004986168505174003,0.7923757658270932
386,0.004986168505174003,0.7927161334240981
387,0.0050373962637888054,0.7927161334240981
388,0.0050373962637888054,0.7933968686181075
389,0.005054472183327072,0.7933968686181075
390,0.005054472183327072,0.7937372362151123
391,0.0051056999419418735,0.7937372362151123
392,0.0051056999419418735,0.7944179714091218
393,0.005174003620094942,0.7944179714091218
394,0.005174003620094942,0.7947583390061266
395,0.0052935350568628125,0.7947583390061266
396,0.0052935350568628125,0.7954390742001362
397,0.005310610976401079,0.7954390742001362
398,0.005310610976401079,0.7964601769911505
399,0.005327686895939346,0.7964601769911505
400,0.005327686895939346,0.7974812797821648
401,0.005344762815477614,0.7974812797821648
402,0.005344762815477614,0.7978216473791695
403,0.005395990574092415,0.7978216473791695
404,0.005395990574092415,0.7981620149761742
405,0.005447218332707216,0.7981620149761742
406,0.005447218332707216,0.7985023825731791
407,0.005481370171783751,0.7985023825731791
408,0.005481370171783751,0.7988427501701838
409,0.0055496738499368195,0.7988427501701838
410,0.0055496738499368195,0.7991831177671885
411,0.005566749769475086,0.7991831177671885
412,0.005566749769475086,0.7995234853641934
413,0.005583825689013353,0.7995234853641934
414,0.005583825689013353,0.8002042205582028
415,0.005600901608551621,0.8002042205582028
416,0.005600901608551621,0.8012253233492171
417,0.0056179775280898875,0.8012253233492171
418,0.0056179775280898875,0.8025867937372362
419,0.005635053447628155,0.8025867937372362
420,0.005635053447628155,0.8042886317222601
421,0.005652129367166422,0.8042886317222601
422,0.005652129367166422,0.8059904697072838
423,0.005669205286704689,0.8059904697072838
424,0.005669205286704689,0.8063308373042887
425,0.005686281206242956,0.8063308373042887
426,0.005686281206242956,0.8066712049012934
427,0.005703357125781223,0.8066712049012934
428,0.005703357125781223,0.8076923076923077
429,0.005720433045319491,0.8076923076923077
430,0.005720433045319491,0.8080326752893124
431,0.005754584884396024,0.8080326752893124
432,0.005754584884396024,0.8083730428863172
433,0.005771660803934292,0.8083730428863172
434,0.005771660803934292,0.8097345132743363
435,0.005788736723472559,0.8097345132743363
436,0.005788736723472559,0.810074880871341
437,0.0058058126430108265,0.810074880871341
438,0.0058058126430108265,0.8107556160653506
439,0.005857040401625628,0.8107556160653506
440,0.005857040401625628,0.8114363512593601
441,0.005908268160240429,0.8114363512593601
442,0.005908268160240429,0.8117767188563648
443,0.005925344079778696,0.8117767188563648
444,0.005925344079778696,0.8127978216473791
445,0.006010723677470031,0.8127978216473791
446,0.006010723677470031,0.813138189244384
447,0.006147331033776169,0.813138189244384
448,0.006147331033776169,0.8134785568413887
449,0.006181482872852703,0.8134785568413887
450,0.006181482872852703,0.8138189244383934
451,0.006215634711929237,0.8138189244383934
452,0.006215634711929237,0.814499659632403
453,0.006249786551005772,0.814499659632403
454,0.006249786551005772,0.8148400272294077
455,0.006283938390082306,0.8148400272294077
456,0.006283938390082306,0.815861130020422
457,0.006420545746388443,0.815861130020422
458,0.006420545746388443,0.8165418652144316
459,0.006488849424541512,0.8165418652144316
460,0.006488849424541512,0.8175629680054459
461,0.006523001263618045,0.8175629680054459
462,0.006523001263618045,0.8179033356024507
463,0.0065742290222328475,0.8179033356024507
464,0.0065742290222328475,0.8182437031994554
465,0.006591304941771114,0.8182437031994554
466,0.006591304941771114,0.8192648059904697
467,0.006608380861309381,0.8192648059904697
468,0.006608380861309381,0.8196051735874744
469,0.006625456780847649,0.8196051735874744
470,0.006625456780847649,0.8199455411844793
471,0.00667668453946245,0.8199455411844793
472,0.00667668453946245,0.8213070115724983
473,0.006693760459000717,0.8213070115724983
474,0.006693760459000717,0.8226684819605173
475,0.006710836378538984,0.8226684819605173
476,0.006710836378538984,0.8233492171545269
477,0.006744988217615519,0.8233492171545269
478,0.006744988217615519,0.8236895847515316
479,0.00679621597623032,0.8236895847515316
480,0.00679621597623032,0.8240299523485364
481,0.0068303678153068545,0.8240299523485364
482,0.0068303678153068545,0.8243703199455412
483,0.0068986714934599225,0.8243703199455412
484,0.0068986714934599225,0.824710687542546
485,0.006932823332536457,0.824710687542546
486,0.006932823332536457,0.8250510551395507
487,0.007001127010689526,0.8250510551395507
488,0.007001127010689526,0.8253914227365555
489,0.00703527884976606,0.8253914227365555
490,0.00703527884976606,0.826072157930565
491,0.007052354769304327,0.826072157930565
492,0.007052354769304327,0.8277739959155889
493,0.007120658447457396,0.8277739959155889
494,0.007120658447457396,0.8281143635125936
495,0.0071548102865339296,0.8281143635125936
496,0.0071548102865339296,0.8284547311095983
497,0.007171886206072197,0.8284547311095983
498,0.007171886206072197,0.8287950987066032
499,0.007206038045148732,0.8287950987066032
500,0.007206038045148732,0.8294758339006126
501,0.007240189884225265,0.8294758339006126
502,0.007240189884225265,0.8304969366916269
503,0.007325569481916601,0.8304969366916269
504,0.007325569481916601,0.8311776718856365
505,0.007359721320993135,0.8311776718856365
506,0.007359721320993135,0.8315180394826412
507,0.007376797240531403,0.8315180394826412
508,0.007376797240531403,0.8325391422736556
509,0.007410949079607937,0.8325391422736556
510,0.007410949079607937,0.8335602450646699
511,0.007428024999146204,0.8335602450646699
512,0.007428024999146204,0.8349217154526889
513,0.007445100918684471,0.8349217154526889
514,0.007445100918684471,0.8352620830496936
515,0.007564632355452341,0.8352620830496936
516,0.007564632355452341,0.8359428182437032
517,0.007598784194528876,0.8359428182437032
518,0.007598784194528876,0.8362831858407079
519,0.007615860114067142,0.8362831858407079
520,0.007615860114067142,0.8366235534377128
521,0.007684163792220211,0.8366235534377128
522,0.007684163792220211,0.8369639210347175
523,0.007752467470373279,0.8369639210347175
524,0.007752467470373279,0.8386657590197413
525,0.007820771148526348,0.8386657590197413
526,0.007820771148526348,0.8390061266167461
527,0.007854922987602882,0.8390061266167461
528,0.007854922987602882,0.8396868618107556
529,0.007889074826679417,0.8396868618107556
530,0.007889074826679417,0.8407079646017699
531,0.007940302585294217,0.8407079646017699
532,0.007940302585294217,0.8410483321987747
533,0.007957378504832486,0.8410483321987747
534,0.007957378504832486,0.8417290673927842
535,0.008025682182985553,0.8417290673927842
536,0.008025682182985553,0.8424098025867938
537,0.008093985861138622,0.8424098025867938
538,0.008093985861138622,0.8437712729748128
539,0.008128137700215157,0.8437712729748128
540,0.008128137700215157,0.8441116405718175
541,0.00816228953929169,0.8441116405718175
542,0.00816228953929169,0.8444520081688224
543,0.008213517297906493,0.8444520081688224
544,0.008213517297906493,0.8447923757658271
545,0.00823059321744476,0.8447923757658271
546,0.00823059321744476,0.8451327433628318
547,0.008264745056521293,0.8451327433628318
548,0.008264745056521293,0.8458134785568414
549,0.008452580171442231,0.8458134785568414
550,0.008452580171442231,0.8461538461538461
551,0.0084696560909805,0.8461538461538461
552,0.0084696560909805,0.8464942137508509
553,0.008503807930057034,0.8464942137508509
554,0.008503807930057034,0.8468345813478557
555,0.008555035688671836,0.8468345813478557
556,0.008555035688671836,0.8471749489448605
557,0.008640415286363171,0.8471749489448605
558,0.008640415286363171,0.8475153165418652
559,0.008742870803592774,0.8475153165418652
560,0.008742870803592774,0.8485364193328795
561,0.008794098562207574,0.8485364193328795
562,0.008794098562207574,0.8488767869298843
563,0.008845326320822376,0.8488767869298843
564,0.008845326320822376,0.8492171545268891
565,0.00887947815989891,0.8492171545268891
566,0.00887947815989891,0.8495575221238938
567,0.008913629998975445,0.8495575221238938
568,0.008913629998975445,0.8498978897208985
569,0.008930705918513712,0.8498978897208985
570,0.008930705918513712,0.8502382573179034
571,0.008964857757590245,0.8502382573179034
572,0.008964857757590245,0.8505786249149081
573,0.009016085516205048,0.8505786249149081
574,0.009016085516205048,0.8509189925119128
575,0.009033161435743314,0.8509189925119128
576,0.009033161435743314,0.8512593601089177
577,0.009050237355281581,0.8512593601089177
578,0.009050237355281581,0.8515997277059224
579,0.009101465113896383,0.8515997277059224
580,0.009101465113896383,0.852280462899932
581,0.009135616952972917,0.852280462899932
582,0.009135616952972917,0.8526208304969367
583,0.009169768792049452,0.8526208304969367
584,0.009169768792049452,0.8533015656909462
585,0.009220996550664252,0.8533015656909462
586,0.009220996550664252,0.853641933287951
587,0.009289300228817321,0.853641933287951
588,0.009289300228817321,0.8539823008849557
589,0.009323452067893857,0.8539823008849557
590,0.009323452067893857,0.8543226684819605
591,0.00935760390697039,0.8543226684819605
592,0.00935760390697039,0.85500340367597
593,0.009425907585123459,0.85500340367597
594,0.009425907585123459,0.8560245064669844
595,0.009442983504661726,0.8560245064669844
596,0.009442983504661726,0.8563648740639891
597,0.00947713534373826,0.8563648740639891
598,0.00947713534373826,0.8567052416609938
599,0.009494211263276528,0.8567052416609938
600,0.009494211263276528,0.8570456092579987
601,0.00959666678050613,0.8570456092579987
602,0.00959666678050613,0.8573859768550034
603,0.009630818619582664,0.8573859768550034
604,0.009630818619582664,0.8577263444520081
605,0.0096649704586592,0.8577263444520081
606,0.0096649704586592,0.8590878148400273
607,0.009750350056350535,0.8590878148400273
608,0.009750350056350535,0.8597685500340367
609,0.009886957412656671,0.8597685500340367
610,0.009886957412656671,0.8601089176310415
611,0.009972337010348007,0.8601089176310415
612,0.009972337010348007,0.8604492852280463
613,0.010023564768962809,0.8604492852280463
614,0.010023564768962809,0.860789652825051
615,0.010040640688501076,0.860789652825051
616,0.010040640688501076,0.8614703880190606
617,0.010074792527577611,0.8614703880190606
618,0.010074792527577611,0.8618107556160653
619,0.010108944366654144,0.8618107556160653
620,0.010108944366654144,0.8624914908100749
621,0.010126020286192411,0.8624914908100749
622,0.010126020286192411,0.8628318584070797
623,0.010177248044807213,0.8628318584070797
624,0.010177248044807213,0.8641933287950987
625,0.01019432396434548,0.8641933287950987
626,0.01019432396434548,0.865214431586113
627,0.010228475803422014,0.865214431586113
628,0.010228475803422014,0.8655547991831177
629,0.010348007240189885,0.8655547991831177
630,0.010348007240189885,0.866575901974132
631,0.010365083159728151,0.866575901974132
632,0.010365083159728151,0.8672566371681416
633,0.01048461459649602,0.8672566371681416
634,0.01048461459649602,0.8675970047651463
635,0.01050169051603429,0.8675970047651463
636,0.01050169051603429,0.8682777399591559
637,0.010518766435572556,0.8682777399591559
638,0.010518766435572556,0.8689584751531654
639,0.01055291827464909,0.8689584751531654
640,0.01055291827464909,0.8692988427501702
641,0.010569994194187356,0.8692988427501702
642,0.010569994194187356,0.869639210347175
643,0.010604146033263892,0.869639210347175
644,0.010604146033263892,0.8699795779441797
645,0.010655373791878692,0.8699795779441797
646,0.010655373791878692,0.8706603131381893
647,0.010689525630955227,0.8706603131381893
648,0.010689525630955227,0.8713410483321987
649,0.010740753389570028,0.8713410483321987
650,0.010740753389570028,0.8716814159292036
651,0.010843208906799632,0.8716814159292036
652,0.010843208906799632,0.8720217835262083
653,0.010894436665414432,0.8720217835262083
654,0.010894436665414432,0.872362151123213
655,0.010979816263105768,0.872362151123213
656,0.010979816263105768,0.8747447243022465
657,0.011013968102182303,0.8747447243022465
658,0.011013968102182303,0.8757658270932607
659,0.011099347699873639,0.8757658270932607
660,0.011099347699873639,0.8764465622872702
661,0.011133499538950173,0.8764465622872702
662,0.011133499538950173,0.876786929884275
663,0.011167651378026706,0.876786929884275
664,0.011167651378026706,0.8771272974812798
665,0.011201803217103241,0.8771272974812798
666,0.011201803217103241,0.8774676650782846
667,0.011218879136641508,0.8774676650782846
668,0.011218879136641508,0.8778080326752893
669,0.01127010689525631,0.8778080326752893
670,0.01127010689525631,0.8781484002722941
671,0.011355486492947646,0.8781484002722941
672,0.011355486492947646,0.8784887678692989
673,0.011406714251562446,0.8784887678692989
674,0.011406714251562446,0.8788291354663036
675,0.011526245688330317,0.8788291354663036
676,0.011526245688330317,0.8795098706603132
677,0.011577473446945118,0.8795098706603132
678,0.011577473446945118,0.8798502382573179
679,0.011662853044636453,0.8798502382573179
680,0.011662853044636453,0.8801906058543226
681,0.011731156722789522,0.8801906058543226
682,0.011731156722789522,0.8805309734513275
683,0.011799460400942591,0.8805309734513275
684,0.011799460400942591,0.8808713410483322
685,0.011850688159557391,0.8808713410483322
686,0.011850688159557391,0.8812117086453369
687,0.011884839998633927,0.8812117086453369
688,0.011884839998633927,0.8815520762423418
689,0.01191899183771046,0.8815520762423418
690,0.01191899183771046,0.8818924438393465
691,0.012123902872169667,0.8818924438393465
692,0.012123902872169667,0.8822328114363512
693,0.01227758614801407,0.8822328114363512
694,0.01227758614801407,0.882573179033356
695,0.012328813906628872,0.882573179033356
696,0.012328813906628872,0.8829135466303608
697,0.012345889826167139,0.8829135466303608
698,0.012345889826167139,0.8835942818243703
699,0.012362965745705405,0.8835942818243703
700,0.012362965745705405,0.8839346494213751
701,0.012380041665243674,0.8839346494213751
702,0.012380041665243674,0.8842750170183798
703,0.012533724941088077,0.8842750170183798
704,0.012533724941088077,0.8846153846153846
705,0.012567876780164612,0.8846153846153846
706,0.012567876780164612,0.8849557522123894
707,0.012687408216932481,0.8849557522123894
708,0.012687408216932481,0.8852961198093942
709,0.012789863734162084,0.8852961198093942
710,0.012789863734162084,0.8856364874063989
711,0.012806939653700352,0.8856364874063989
712,0.012806939653700352,0.8859768550034037
713,0.01299477476862129,0.8859768550034037
714,0.01299477476862129,0.8863172226004085
715,0.013097230285850893,0.8863172226004085
716,0.013097230285850893,0.8869979577944179
717,0.013148458044465695,0.8869979577944179
718,0.013148458044465695,0.8873383253914228
719,0.01323383764215703,0.8873383253914228
720,0.01323383764215703,0.8876786929884275
721,0.013370444998463167,0.8876786929884275
722,0.013370444998463167,0.8880190605854322
723,0.01347290051569277,0.8880190605854322
724,0.01347290051569277,0.8883594281824371
725,0.013643659711075442,0.8883594281824371
726,0.013643659711075442,0.8897208985704561
727,0.013660735630613709,0.8897208985704561
728,0.013660735630613709,0.8904016337644656
729,0.01371196338922851,0.8904016337644656
730,0.01371196338922851,0.8910823689584751
731,0.013729039308766778,0.8910823689584751
732,0.013729039308766778,0.8914227365554799
733,0.013848570745534647,0.8914227365554799
734,0.013848570745534647,0.8921034717494895
735,0.01395102626276425,0.8921034717494895
736,0.01395102626276425,0.8924438393464942
737,0.014173013216761723,0.8924438393464942
738,0.014173013216761723,0.892784206943499
739,0.014207165055838257,0.892784206943499
740,0.014207165055838257,0.8931245745405038
741,0.014224240975376523,0.8931245745405038
742,0.014224240975376523,0.8934649421375085
743,0.014258392814453059,0.8934649421375085
744,0.014258392814453059,0.8938053097345132
745,0.01442915200983573,0.8938053097345132
746,0.01442915200983573,0.8941456773315181
747,0.014497455687988799,0.8941456773315181
748,0.014497455687988799,0.8944860449285228
749,0.014531607527065333,0.8944860449285228
750,0.014531607527065333,0.8951667801225324
751,0.0145486834466036,0.8951667801225324
752,0.0145486834466036,0.8955071477195371
753,0.014599911205218401,0.8955071477195371
754,0.014599911205218401,0.8961878829135467
755,0.014770670400601073,0.8961878829135467
756,0.014770670400601073,0.8965282505105514
757,0.014838974078754142,0.8965282505105514
758,0.014838974078754142,0.8968686181075561
759,0.014890201837368942,0.8968686181075561
760,0.014890201837368942,0.897208985704561
761,0.014975581435060278,0.897208985704561
762,0.014975581435060278,0.8978897208985704
763,0.015009733274136813,0.8978897208985704
764,0.015009733274136813,0.8982300884955752
765,0.015095112871828149,0.8982300884955752
766,0.015095112871828149,0.89857045609258
767,0.015248796147672551,0.89857045609258
768,0.015248796147672551,0.8989108236895847
769,0.01526587206721082,0.8989108236895847
770,0.01526587206721082,0.8992511912865895
771,0.015334175745363887,0.8992511912865895
772,0.015334175745363887,0.8995915588835943
773,0.015487859021208292,0.8995915588835943
774,0.015487859021208292,0.899931926480599
775,0.015709845975205763,0.899931926480599
776,0.015709845975205763,0.9002722940776038
777,0.015897681090126705,0.9002722940776038
778,0.015897681090126705,0.9006126616746086
779,0.01593183292920324,0.9006126616746086
780,0.01593183292920324,0.9012933968686181
781,0.015965984768279772,0.9012933968686181
782,0.015965984768279772,0.9016337644656228
783,0.016170895802738977,0.9016337644656228
784,0.016170895802738977,0.9019741320626277
785,0.01627335131996858,0.9019741320626277
786,0.01627335131996858,0.9026548672566371
787,0.01646118643488952,0.9026548672566371
788,0.01646118643488952,0.902995234853642
789,0.016495338273966053,0.902995234853642
790,0.016495338273966053,0.9033356024506467
791,0.016546566032580853,0.9033356024506467
792,0.016546566032580853,0.9040163376446563
793,0.016888084423346196,0.9040163376446563
794,0.016888084423346196,0.9050374404356705
795,0.016939312181961,0.9050374404356705
796,0.016939312181961,0.9053778080326753
797,0.0170417676991906,0.9053778080326753
798,0.0170417676991906,0.90571817562968
799,0.017127147296881938,0.90571817562968
800,0.017127147296881938,0.9063989108236896
801,0.01722960281411154,0.9063989108236896
802,0.01722960281411154,0.9067392784206944
803,0.017246678733649805,0.9067392784206944
804,0.017246678733649805,0.9074200136147039
805,0.01734913425087941,0.9074200136147039
806,0.01734913425087941,0.9077603812117087
807,0.01740036200949421,0.9077603812117087
808,0.01740036200949421,0.9081007488087134
809,0.017434513848570747,0.9081007488087134
810,0.017434513848570747,0.908781484002723
811,0.017895563676103957,0.908781484002723
812,0.017895563676103957,0.9091218515997277
813,0.018049246951948362,0.9091218515997277
814,0.018049246951948362,0.9094622191967324
815,0.018220006147331033,0.9094622191967324
816,0.018220006147331033,0.9098025867937373
817,0.0182370820668693,0.9098025867937373
818,0.0182370820668693,0.910142954390742
819,0.018288309825484104,0.910142954390742
820,0.018288309825484104,0.9104833219877467
821,0.01835661350363717,0.9104833219877467
822,0.01835661350363717,0.9108236895847516
823,0.01849322085994331,0.9108236895847516
824,0.01849322085994331,0.9111640571817563
825,0.018646904135787713,0.9111640571817563
826,0.018646904135787713,0.911504424778761
827,0.018800587411632118,0.911504424778761
828,0.018800587411632118,0.9118447923757659
829,0.018817663331170385,0.9118447923757659
830,0.018817663331170385,0.9121851599727706
831,0.018885967009323452,0.9121851599727706
832,0.018885967009323452,0.9128658951667801
833,0.019005498446091323,0.9128658951667801
834,0.019005498446091323,0.9132062627637849
835,0.019261637239165328,0.9132062627637849
836,0.019261637239165328,0.9135466303607896
837,0.019466548273624536,0.9135466303607896
838,0.019466548273624536,0.9138869979577944
839,0.019517776032239337,0.9138869979577944
840,0.019517776032239337,0.914567733151804
841,0.01972268706669854,0.914567733151804
842,0.01972268706669854,0.9149081007488087
843,0.01973976298623681,0.9149081007488087
844,0.01973976298623681,0.9152484683458135
845,0.01996174994023428,0.9152484683458135
846,0.01996174994023428,0.9155888359428183
847,0.019995901779310817,0.9155888359428183
848,0.019995901779310817,0.915929203539823
849,0.02008128137700215,0.915929203539823
850,0.02008128137700215,0.9162695711368277
851,0.020252040572384822,0.9162695711368277
852,0.020252040572384822,0.9166099387338326
853,0.020303268330999623,0.9166099387338326
854,0.020303268330999623,0.9169503063308373
855,0.020354496089614427,0.9169503063308373
856,0.020354496089614427,0.917290673927842
857,0.02043987568730576,0.917290673927842
858,0.02043987568730576,0.9176310415248469
859,0.02055940712407363,0.9176310415248469
860,0.02055940712407363,0.9179714091218516
861,0.020713090399918036,0.9179714091218516
862,0.020713090399918036,0.9183117767188563
863,0.02096922919299204,0.9183117767188563
864,0.02096922919299204,0.9186521443158612
865,0.020986305112530308,0.9186521443158612
866,0.020986305112530308,0.9189925119128659
867,0.021242443905604317,0.9189925119128659
868,0.021242443905604317,0.9193328795098706
869,0.021310747583757384,0.9193328795098706
870,0.021310747583757384,0.9200136147038802
871,0.021549810457293126,0.9200136147038802
872,0.021549810457293126,0.9210347174948945
873,0.021823025169905398,0.9210347174948945
874,0.021823025169905398,0.9213750850918992
875,0.02189132884805847,0.9213750850918992
876,0.021925480687135002,0.9213750850918992
877,0.022079163962979407,0.9213750850918992
878,0.022079163962979407,0.921715452688904
879,0.02211331580205594,0.921715452688904
880,0.02211331580205594,0.9220558202859088
881,0.022147467641132474,0.9220558202859088
882,0.022147467641132474,0.9223961878829136
883,0.02230115091697688,0.9223961878829136
884,0.02230115091697688,0.9227365554799183
885,0.02236945459512995,0.9227365554799183
886,0.02236945459512995,0.9230769230769231
887,0.022386530514668216,0.9230769230769231
888,0.022386530514668216,0.9234172906739279
889,0.022437758273283016,0.9234172906739279
890,0.022437758273283016,0.9237576582709326
891,0.022506061951436084,0.9237576582709326
892,0.022506061951436084,0.9240980258679373
893,0.022967111778969297,0.9240980258679373
894,0.022967111778969297,0.9244383934649422
895,0.023291554250196373,0.9244383934649422
896,0.023291554250196373,0.9247787610619469
897,0.02330863016973464,0.9247787610619469
898,0.02330863016973464,0.9254594962559565
899,0.023325706089272907,0.9254594962559565
900,0.023325706089272907,0.9257998638529612
901,0.02347938936511731,0.9257998638529612
902,0.02347938936511731,0.9261402314499659
903,0.023581844882346915,0.9261402314499659
904,0.023581844882346915,0.9264805990469708
905,0.023820907755882654,0.9264805990469708
906,0.023820907755882654,0.9271613342409802
907,0.024008742870803592,0.9271613342409802
908,0.024008742870803592,0.927501701837985
909,0.02402581879034186,0.927501701837985
910,0.02402581879034186,0.9278420694349898
911,0.024162426146647997,0.9278420694349898
912,0.024162426146647997,0.9281824370319945
913,0.024299033502954134,0.9281824370319945
914,0.024299033502954134,0.9285228046289993
915,0.024350261261568935,0.9285228046289993
916,0.024350261261568935,0.9288631722260041
917,0.02438441310064547,0.9288631722260041
918,0.02438441310064547,0.9292035398230089
919,0.02450394453741334,0.9292035398230089
920,0.02450394453741334,0.9295439074200136
921,0.024521020456951606,0.9295439074200136
922,0.024521020456951606,0.9298842750170184
923,0.02455517229602814,0.9298842750170184
924,0.02455517229602814,0.9302246426140232
925,0.024845462928178682,0.9302246426140232
926,0.024845462928178682,0.9305650102110279
927,0.02486253884771695,0.9305650102110279
928,0.02486253884771695,0.9309053778080327
929,0.025135753560329224,0.9309053778080327
930,0.025135753560329224,0.9319264805990469
931,0.025374816433864963,0.9319264805990469
932,0.025374816433864963,0.9322668481960518
933,0.025613879307400705,0.9322668481960518
934,0.025613879307400705,0.9326072157930565
935,0.02563095522693897,0.9326072157930565
936,0.02563095522693897,0.9329475833900612
937,0.026074929134933915,0.9329475833900612
938,0.026074929134933915,0.9332879509870661
939,0.02622861241077832,0.9332879509870661
940,0.02622861241077832,0.9336283185840708
941,0.026433523445237524,0.9336283185840708
942,0.026433523445237524,0.9339686861810755
943,0.026655510399235,0.9339686861810755
944,0.026655510399235,0.9343090537780804
945,0.026672586318773266,0.9343090537780804
946,0.026672586318773266,0.9346494213750851
947,0.026723814077388067,0.9346494213750851
948,0.026723814077388067,0.9349897889720898
949,0.02682626959461767,0.9349897889720898
950,0.02682626959461767,0.9353301565690946
951,0.026843345514155938,0.9353301565690946
952,0.026843345514155938,0.9356705241660994
953,0.02706533246815341,0.9356705241660994
954,0.02706533246815341,0.9363512593601089
955,0.027219015743997814,0.9363512593601089
956,0.027219015743997814,0.9366916269571137
957,0.02766298965199276,0.9366916269571137
958,0.02766298965199276,0.9370319945541185
959,0.0279532802841433,0.9370319945541185
960,0.0279532802841433,0.9373723621511232
961,0.028294798674908642,0.9373723621511232
962,0.028294798674908642,0.937712729748128
963,0.028448481950753047,0.937712729748128
964,0.028448481950753047,0.9380530973451328
965,0.028875379939209727,0.9380530973451328
966,0.028875379939209727,0.9383934649421375
967,0.02902906321505413,0.9383934649421375
968,0.02902906321505413,0.9390742001361471
969,0.029182746490898536,0.9390742001361471
970,0.029182746490898536,0.9394145677331518
971,0.029370581605819474,0.9394145677331518
972,0.029370581605819474,0.9397549353301565
973,0.02938765752535774,0.9397549353301565
974,0.02938765752535774,0.9400953029271614
975,0.029882859191967488,0.9400953029271614
976,0.029882859191967488,0.9404356705241661
977,0.03036098493903897,0.9404356705241661
978,0.03036098493903897,0.9407760381211708
979,0.030446364536730303,0.9407760381211708
980,0.030446364536730303,0.9411164057181757
981,0.03053174413442164,0.9411164057181757
982,0.03053174413442164,0.9414567733151804
983,0.03058297189303644,0.9414567733151804
984,0.03058297189303644,0.9417971409121851
985,0.03063419965165124,0.9417971409121851
986,0.03063419965165124,0.94213750850919
987,0.030668351490727774,0.94213750850919
988,0.030668351490727774,0.9424778761061947
989,0.030856186605648712,0.9424778761061947
990,0.030856186605648712,0.9428182437031994
991,0.030907414364263516,0.9428182437031994
992,0.030907414364263516,0.9431586113002042
993,0.03116355315733752,0.9431586113002042
994,0.03116355315733752,0.943498978897209
995,0.031231856835490592,0.943498978897209
996,0.031231856835490592,0.9438393464942137
997,0.03167583074348554,0.9438393464942137
998,0.03167583074348554,0.9441797140912185
999,0.031829514019329944,0.9441797140912185
1000,0.031829514019329944,0.9445200816882233
1001,0.03201734913425088,0.9445200816882233
1002,0.03201734913425088,0.944860449285228
1003,0.03218810832963355,0.944860449285228
1004,0.03218810832963355,0.9455411844792376
1005,0.03225641200778662,0.9455411844792376
1006,0.03225641200778662,0.9458815520762424
1007,0.03263208223762849,0.9458815520762424
1008,0.03263208223762849,0.9462219196732471
1009,0.0326833099962433,0.9462219196732471
1010,0.0326833099962433,0.9465622872702518
1011,0.032973600628393836,0.9465622872702518
1012,0.032973600628393836,0.9469026548672567
1013,0.03312728390423824,0.9469026548672567
1014,0.03312728390423824,0.9472430224642614
1015,0.03375909292715413,0.9472430224642614
1016,0.03375909292715413,0.9475833900612661
1017,0.0339810798811516,0.9475833900612661
1018,0.0339810798811516,0.947923757658271
1019,0.034134763156996005,0.947923757658271
1020,0.034134763156996005,0.9482641252552757
1021,0.034254294593763876,0.9482641252552757
1022,0.034254294593763876,0.9486044928522804
1023,0.03447628154776135,0.9486044928522804
1024,0.03447628154776135,0.9489448604492853
1025,0.035398381202827775,0.9489448604492853
1026,0.035398381202827775,0.9496255956432947
1027,0.035500836720057376,0.9496255956432947
1028,0.035500836720057376,0.9499659632402995
1029,0.03563744407636351,0.9499659632402995
1030,0.03563744407636351,0.9503063308373043
1031,0.036235101260202865,0.9503063308373043
1032,0.036235101260202865,0.950646698434309
1033,0.03638878453604727,0.950646698434309
1034,0.03638878453604727,0.9509870660313138
1035,0.03645708821420034,0.9509870660313138
1036,0.03645708821420034,0.9513274336283186
1037,0.036525391892353404,0.9513274336283186
1038,0.036525391892353404,0.9516678012253234
1039,0.036747378846350875,0.9516678012253234
1040,0.036747378846350875,0.9520081688223281
1041,0.03724258051296062,0.9520081688223281
1042,0.03724258051296062,0.9523485364193329
1043,0.03731088419111369,0.9523485364193329
1044,0.03731088419111369,0.9526889040163377
1045,0.03804514873125918,0.9526889040163377
1046,0.03804514873125918,0.9530292716133424
1047,0.03848912263925412,0.9530292716133424
1048,0.03848912263925412,0.9533696392103471
1049,0.03857450223694546,0.9533696392103471
1050,0.03857450223694546,0.9540503744043567
1051,0.03922338717939961,0.9540503744043567
1052,0.03922338717939961,0.9547311095983663
1053,0.03949660189201189,0.9547311095983663
1054,0.03949660189201189,0.955071477195371
1055,0.03961613332877976,0.955071477195371
1056,0.03961613332877976,0.9554118447923757
1057,0.04048700522523138,0.9554118447923757
1058,0.04048700522523138,0.9557522123893806
1059,0.04067484034015232,0.9557522123893806
1060,0.04067484034015232,0.9560925799863853
1061,0.04099928281137939,0.9560925799863853
1062,0.04099928281137939,0.95643294758339
1063,0.04142618079983607,0.95643294758339
1064,0.04142618079983607,0.9567733151803949
1065,0.04156278815614221,0.9567733151803949
1066,0.04156278815614221,0.9571136827773996
1067,0.04157986407568048,0.9571136827773996
1068,0.04157986407568048,0.9574540503744043
1069,0.04159693999521874,0.9574540503744043
1070,0.04159693999521874,0.9577944179714091
1071,0.04209214166182849,0.9577944179714091
1072,0.04209214166182849,0.9581347855684139
1073,0.04212629350090502,0.9581347855684139
1074,0.04212629350090502,0.9584751531654186
1075,0.04214336942044329,0.9584751531654186
1076,0.04214336942044329,0.9588155207624234
1077,0.04277517844335917,0.9588155207624234
1078,0.04277517844335917,0.959496255956433
1079,0.0436972780984256,0.959496255956433
1080,0.0436972780984256,0.9598366235534377
1081,0.04453399815580069,0.9598366235534377
1082,0.04453399815580069,0.9601769911504425
1083,0.04460230183395376,0.9601769911504425
1084,0.04460230183395376,0.9605173587474473
1085,0.04461937775349203,0.9605173587474473
1086,0.04461937775349203,0.960857726344452
1087,0.04716368976469383,0.960857726344452
1088,0.04716368976469383,0.9611980939414567
1089,0.047197841603770364,0.9611980939414567
1090,0.047197841603770364,0.9615384615384616
1091,0.04808578941976025,0.9615384615384616
1092,0.04808578941976025,0.9618788291354663
1093,0.04817116901745159,0.9618788291354663
1094,0.04817116901745159,0.962219196732471
1095,0.04818824493698986,0.962219196732471
1096,0.04818824493698986,0.9625595643294759
1097,0.048956661316211875,0.9625595643294759
1098,0.048956661316211875,0.9628999319264806
1099,0.04931525562651549,0.9628999319264806
1100,0.04931525562651549,0.9632402995234853
1101,0.04986168505174004,0.9632402995234853
1102,0.04986168505174004,0.9635806671204902
1103,0.05004952016666098,0.9635806671204902
1104,0.05004952016666098,0.9639210347174949
1105,0.05018612752296711,0.9639210347174949
1106,0.05018612752296711,0.9642614023144996
1107,0.050630101430962055,0.9642614023144996
1108,0.050630101430962055,0.9646017699115044
1109,0.051159454936648335,0.9646017699115044
1110,0.051159454936648335,0.9649421375085092
1111,0.051193606775724876,0.9649421375085092
1112,0.051193606775724876,0.9652825051055139
1113,0.05121068269526314,0.9652825051055139
1114,0.05121068269526314,0.9656228727025187
1115,0.05143266964926061,0.9656228727025187
1116,0.05143266964926061,0.9659632402995235
1117,0.051586352925105015,0.9659632402995235
1118,0.051586352925105015,0.9663036078965282
1119,0.051705884361872886,0.9663036078965282
1120,0.051705884361872886,0.966643975493533
1121,0.05174003620094942,0.966643975493533
1122,0.05174003620094942,0.9669843430905378
1123,0.05194494723540863,0.9669843430905378
1124,0.05194494723540863,0.9673247106875426
1125,0.05291827464908985,0.9673247106875426
1126,0.05291827464908985,0.9676650782845473
1127,0.05308903384447253,0.9676650782845473
1128,0.05308903384447253,0.9683458134785569
1129,0.05324271712031693,0.9683458134785569
1130,0.053276868959393466,0.9683458134785569
1131,0.05407943717769202,0.9683458134785569
1132,0.05407943717769202,0.9686861810755616
1133,0.05416481677538335,0.9686861810755616
1134,0.05416481677538335,0.9690265486725663
1135,0.05501861275229671,0.9690265486725663
1136,0.05501861275229671,0.9693669162695712
1137,0.06031214780915952,0.9693669162695712
1138,0.06031214780915952,0.9697072838665759
1139,0.06102933642976674,0.9697072838665759
1140,0.06102933642976674,0.9700476514635806
1141,0.06149038625729995,0.9700476514635806
1142,0.06149038625729995,0.9703880190605855
1143,0.06166114545268263,0.9703880190605855
1144,0.06166114545268263,0.9707283866575902
1145,0.062156347119292375,0.9707283866575902
1146,0.062156347119292375,0.9710687542545949
1147,0.06386393907311909,0.9710687542545949
1148,0.06386393907311909,0.9717494894486045
1149,0.06601550493494075,0.9717494894486045
1150,0.06601550493494075,0.9720898570456092
1151,0.06674976947508623,0.9720898570456092
1152,0.06674976947508623,0.972430224642614
1153,0.06693760459000717,0.972430224642614
1154,0.06693760459000717,0.9727705922396188
1155,0.06724497114169598,0.9727705922396188
1156,0.06724497114169598,0.9731109598366235
1157,0.06828660223353028,0.9731109598366235
1158,0.06828660223353028,0.9734513274336283
1159,0.06871350022198695,0.9734513274336283
1160,0.06871350022198695,0.9737916950306331
1161,0.07118950855503568,0.9737916950306331
1162,0.07118950855503568,0.9741320626276379
1163,0.07188962125610464,0.9741320626276379
1164,0.07188962125610464,0.9744724302246426
1165,0.07243605068132919,0.9744724302246426
1166,0.07243605068132919,0.9748127978216474
1167,0.07272634131347973,0.9748127978216474
1168,0.07272634131347973,0.9751531654186522
1169,0.0728971005088624,0.9751531654186522
1170,0.0728971005088624,0.9754935330156569
1171,0.07410949079607937,0.9754935330156569
1172,0.07410949079607937,0.9758339006126616
1173,0.0753901847614494,0.9758339006126616
1174,0.0753901847614494,0.9761742682096665
1175,0.07651719545097503,0.9761742682096665
1176,0.07651719545097503,0.9765146358066712
1177,0.07690994160035518,0.9765146358066712
1178,0.07690994160035518,0.9768550034036759
1179,0.07725145999112053,0.9768550034036759
1180,0.07725145999112053,0.9771953710006808
1181,0.0778832690140364,0.9771953710006808
1182,0.0778832690140364,0.9775357385976855
1183,0.07800280045080428,0.9775357385976855
1184,0.07800280045080428,0.9778761061946902
1185,0.07842969843926095,0.9778761061946902
1186,0.07842969843926095,0.9782164737916951
1187,0.0784638502783375,0.9782164737916951
1188,0.0784638502783375,0.9785568413886998
1189,0.07921519073802125,0.9785568413886998
1190,0.07921519073802125,0.9788972089857045
1191,0.07965916464601619,0.9788972089857045
1192,0.07965916464601619,0.9792375765827094
1193,0.08030804958847033,0.9792375765827094
1194,0.08030804958847033,0.9795779441797141
1195,0.08034220142754687,0.9795779441797141
1196,0.08034220142754687,0.9799183117767188
1197,0.08105939004815409,0.9799183117767188
1198,0.08105939004815409,0.9802586793737236
1199,0.08148628803661077,0.9802586793737236
1200,0.08148628803661077,0.9805990469707284
1201,0.08175950274922304,0.9805990469707284
1202,0.08177657866876131,0.9809394145677331
1203,0.08273283016290427,0.9809394145677331
1204,0.08273283016290427,0.9812797821647379
1205,0.08324510774905229,0.9812797821647379
1206,0.08324510774905229,0.9816201497617427
1207,0.08524299033502954,0.9816201497617427
1208,0.08524299033502954,0.9819605173587475
1209,0.08558450872579489,0.9819605173587475
1210,0.08558450872579489,0.9823008849557522
1211,0.08802636521976709,0.9823008849557522
1212,0.08802636521976709,0.982641252552757
1213,0.08823127625422629,0.982641252552757
1214,0.08826542809330283,0.982641252552757
1215,0.08908507223113965,0.982641252552757
1216,0.08908507223113965,0.9829816201497618
1217,0.08975103309313207,0.9829816201497618
1218,0.08975103309313207,0.9833219877467665
1219,0.09048529763327755,0.9833219877467665
1220,0.09051944947235409,0.9833219877467665
1221,0.09135616952972918,0.9833219877467665
1222,0.0913903213688057,0.9833219877467665
1223,0.09314914108124722,0.9833219877467665
1224,0.09314914108124722,0.9836623553437712
1225,0.09335405211570644,0.9836623553437712
1226,0.09335405211570644,0.9840027229407761
1227,0.09922816843687032,0.9840027229407761
1228,0.09922816843687032,0.9843430905377808
1229,0.0992452443564086,0.9843430905377808
1230,0.0992452443564086,0.9846834581347855
1231,0.0993476998736382,0.9846834581347855
1232,0.0993476998736382,0.9850238257317904
1233,0.0995013831494826,0.9850238257317904
1234,0.0995013831494826,0.9853641933287951
1235,0.09979167378163314,0.9853641933287951
1236,0.09979167378163314,0.9857045609257998
1237,0.1004917864827021,0.9857045609257998
1238,0.1004917864827021,0.9860449285228047
1239,0.10177248044807213,0.9860449285228047
1240,0.10177248044807213,0.9863852961198094
1241,0.10348007240189884,0.9863852961198094
1242,0.10348007240189884,0.9867256637168141
1243,0.10351422424097538,0.9867256637168141
1244,0.10351422424097538,0.9870660313138189
1245,0.10499982924080462,0.9870660313138189
1246,0.10499982924080462,0.9874063989108237
1247,0.10737338205662375,0.9874063989108237
1248,0.10737338205662375,0.9877467665078284
1249,0.10754414125200643,0.9877467665078284
1250,0.10754414125200643,0.9880871341048332
1251,0.11459649602131075,0.9880871341048332
1252,0.11459649602131075,0.988427501701838
1253,0.11483555889484649,0.988427501701838
1254,0.11483555889484649,0.9887678692988427
1255,0.1150404699293057,0.9887678692988427
1256,0.1150404699293057,0.9891082368958475
1257,0.11623578429698439,0.9891082368958475
1258,0.11623578429698439,0.9894486044928523
1259,0.11715788395205082,0.9894486044928523
1260,0.11719203579112736,0.9894486044928523
1261,0.11722618763020388,0.9894486044928523
1262,0.11722618763020388,0.989788972089857
1263,0.11823366688296165,0.989788972089857
1264,0.11826781872203818,0.989788972089857
1265,0.11842150199788258,0.989788972089857
1266,0.11842150199788258,0.9901293396868618
1267,0.12055599194016597,0.9901293396868618
1268,0.12059014377924251,0.9901293396868618
1269,0.12315153170998258,0.9901293396868618
1270,0.12315153170998258,0.9904697072838666
1271,0.1253201734913425,0.9904697072838666
1272,0.1253201734913425,0.9908100748808714
1273,0.12576414739933744,0.9908100748808714
1274,0.12576414739933744,0.9911504424778761
1275,0.1310918342952768,0.9911504424778761
1276,0.1310918342952768,0.9914908100748808
1277,0.13148458044465694,0.9914908100748808
1278,0.13148458044465694,0.9918311776718857
1279,0.13426795532939448,0.9918311776718857
1280,0.13430210716847102,0.9918311776718857
1281,0.13503637170861651,0.9918311776718857
1282,0.13503637170861651,0.9921715452688904
1283,0.13840032785765513,0.9921715452688904
1284,0.13840032785765513,0.9925119128658951
1285,0.1396127181448721,0.9925119128658951
1286,0.1396127181448721,0.9928522804629
1287,0.1404494382022472,0.9928522804629
1288,0.1404494382022472,0.9931926480599047
1289,0.14340357228236741,0.9931926480599047
1290,0.14343772412144393,0.9931926480599047
1291,0.15516888084423347,0.9931926480599047
1292,0.15516888084423347,0.9935330156569094
1293,0.15554455107407533,0.9935330156569094
1294,0.15554455107407533,0.9938733832539143
1295,0.17680407089921793,0.9938733832539143
1296,0.17683822273829447,0.9938733832539143
1297,0.1831563129674533,0.9938733832539143
1298,0.1831563129674533,0.994213750850919
1299,0.19408490147194427,0.994213750850919
1300,0.1941190533110208,0.994213750850919
1301,0.1950070011270107,0.994213750850919
1302,0.1950070011270107,0.9945541184479237
1303,0.1999248659540316,0.9945541184479237
1304,0.1999248659540316,0.9948944860449285
1305,0.20053959905740923,0.9948944860449285
1306,0.20053959905740923,0.9952348536419333
1307,0.20298145555138145,0.9952348536419333
1308,0.20298145555138145,0.995575221238938
1309,0.20692599296472114,0.995575221238938
1310,0.20692599296472114,0.9959155888359428
1311,0.21664219118199515,0.9959155888359428
1312,0.21664219118199515,0.9962559564329476
1313,0.22448003825005977,0.9962559564329476
1314,0.22448003825005977,0.9965963240299524
1315,0.22900515692770057,0.9965963240299524
1316,0.22900515692770057,0.9969366916269571
1317,0.23414500870871896,0.9969366916269571
1318,0.2341791605477955,0.9969366916269571
1319,0.2345889826167139,0.9969366916269571
1320,0.23462313445579044,0.9969366916269571
1321,0.23559646186947167,0.9969366916269571
1322,0.23559646186947167,0.9972770592239619
1323,0.25395307537310885,0.9972770592239619
1324,0.25398722721218536,0.9972770592239619
1325,0.2553191489361702,0.9972770592239619
1326,0.2553191489361702,0.9976174268209667
1327,0.2845018954270688,0.9976174268209667
1328,0.2845360472661453,0.9976174268209667
1329,0.2988627437587514,0.9976174268209667
1330,0.29889689559782795,0.9976174268209667
1331,0.31387247703288823,0.9976174268209667
1332,0.31387247703288823,0.9979577944179714
1333,0.3158191318602507,0.9979577944179714
1334,0.3158532836993272,0.9979577944179714
1335,0.3162801816877839,0.9979577944179714
1336,0.3162801816877839,0.9982981620149761
1337,0.3369932720877019,0.9982981620149761
1338,0.3370274239267785,0.9982981620149761
1339,0.337061575765855,0.9982981620149761
1340,0.337061575765855,0.998638529611981
1341,0.3390253065127557,0.998638529611981
1342,0.3390253065127557,0.9989788972089857
1343,0.3394522045012124,0.9989788972089857
1344,0.3394522045012124,0.9993192648059904
1345,0.34430176565008025,0.9993192648059904
1346,0.3443359174891568,0.9993192648059904
1347,0.37334790478467267,0.9993192648059904
1348,0.37334790478467267,0.9996596324029953
1349,0.3738260305317441,0.9996596324029953
1350,0.3738260305317441,1.0
1351,0.3822956866227246,1.0
1352,0.3823298384618012,1.0
1353,0.40012294662067555,1.0
1354,0.40015709845975206,1.0
1355,0.4017110071377344,1.0
1356,0.4017451589768109,1.0
1357,0.40869505822888563,1.0
1358,0.40872921006796215,1.0
1359,0.41378368225128925,1.0
1360,0.41381783409036577,1.0
1361,0.41774529558416723,1.0
1362,0.41777944742324374,1.0
1363,0.42075065742290224,1.0
1364,0.42078480926197875,1.0
1365,0.4216556811584304,1.0
1366,0.4216898329975069,1.0
1367,0.4219118199515044,1.0
1368,0.4219459717905809,1.0
1369,0.4370752365014856,1.0
1370,0.4371093883405621,1.0
1371,0.4431542638571087,1.0
1372,0.4431884156961852,1.0
1373,0.4447594002937058,1.0
1374,0.4447935521327824,1.0
1375,0.44935282264949966,1.0
1376,0.44938697448857623,1.0
1377,0.4536047266145282,1.0
1378,0.45363887845360473,1.0
1379,0.4683241692565145,1.0
1380,0.468358321095591,1.0
1381,0.4783989617840921,1.0
1382,0.4784331136231686,1.0
1383,0.48353881356511047,1.0
1384,0.48357296540418704,1.0
1385,0.494313718793757,1.0
1386,0.4943478706328336,1.0
1387,0.49458693350636934,1.0
1388,0.49462108534544585,1.0
1389,0.5040299170110311,1.0
1390,0.5040640688501076,1.0
1391,0.5117653085618661,1.0
1392,0.5117994604009426,1.0
1393,0.5139681021823025,1.0
1394,0.514002254021379,1.0
1395,0.5148218981592159,1.0
1396,0.5148560499982924,1.0
1397,0.5180150951128718,1.0
1398,0.5180492469519483,1.0
1399,0.5200300536183874,1.0
1400,0.5200642054574639,1.0
1401,0.5308220347665722,1.0
1402,0.5308561866056487,1.0
1403,0.5435606707421194,1.0
1404,0.543594822581196,1.0
1405,0.54641234930501,1.0
1406,0.5464465011440867,1.0
1407,0.5465489566613162,1.0
1408,0.5465831085003927,1.0
1409,0.548324852293296,1.0
1410,0.5483590041323725,1.0
1411,0.5485468392472934,1.0
1412,0.54858099108637,1.0
1413,0.5487517502817527,1.0
1414,0.5487859021208292,1.0
1415,0.557853215395649,1.0
1416,0.5578873672347255,1.0
1417,0.5778661930944982,1.0
1418,0.5779003449335747,1.0
1419,0.5781906355657253,1.0
1420,0.5782247874048018,1.0
1421,0.580034834875858,1.0
1422,0.5800689867149346,1.0
1423,0.5932345206789386,1.0
1424,0.5932686725180151,1.0
1425,0.5936443427478569,1.0
1426,0.5936784945869336,1.0
1427,0.5990915610805642,1.0
1428,0.5991257129196407,1.0
1429,0.601823708206687,1.0
1430,0.6018578600457635,1.0
1431,0.6023872135514498,1.0
1432,0.6024213653905263,1.0
1433,0.614613571940849,1.0
1434,0.6146477237799256,1.0
1435,0.6232539872272121,1.0
1436,0.6232881390662888,1.0
1437,0.6323213005020321,1.0
1438,0.6323554523411086,1.0
1439,0.6335507667087873,1.0
1440,0.6335849185478638,1.0
1441,0.6361292305590656,1.0
1442,0.6361633823981422,1.0
1443,0.6379222021105837,1.0
1444,0.6379563539496602,1.0
1445,0.638775998087497,1.0
1446,0.6388101499265736,1.0
1447,0.6396980977425635,1.0
1448,0.63973224958164,1.0
1449,0.659676923602336,1.0
1450,0.6597110754414125,1.0
1451,0.661469895153854,1.0
1452,0.6615040469929305,1.0
1453,0.6643215737167446,1.0
1454,0.6643557255558212,1.0
1455,0.6653973566476554,1.0
1456,0.665431508486732,1.0
1457,0.6655168880844233,1.0
1458,0.6655510399234998,1.0
1459,0.6693760459000717,1.0
1460,0.6694101977391482,1.0
1461,0.6812950377377822,1.0
1462,0.6813291895768587,1.0
1463,0.6871179263003313,1.0
1464,0.6871520781394078,1.0
1465,0.694067825552406,1.0
1466,0.6941019773914825,1.0
1467,0.6983026535978962,1.0
1468,0.6983368054369727,1.0
1469,0.7053379324476623,1.0
1470,0.7053720842867388,1.0
1471,0.7057477545165807,1.0
1472,0.7057819063556573,1.0
1473,0.716317748710768,1.0
1474,0.7163519005498447,1.0
1475,0.7172910761244493,1.0
1476,0.7173252279635258,1.0
1477,0.721235613537789,1.0
1478,0.7212697653768655,1.0
1479,0.7250606195143608,1.0
1480,0.7250947713534374,1.0
1481,0.7272292612957207,1.0
1482,0.7272634131347973,1.0
1483,0.7323349612376626,1.0
1484,0.7323691130767391,1.0
1485,0.7401045046275742,1.0
1486,0.7401386564666508,1.0
1487,0.7472763908336464,1.0
1488,0.7473105426727229,1.0
1489,0.7516136743963663,1.0
1490,0.7516478262354428,1.0
1491,0.7537310884191114,1.0
1492,0.7537652402581879,1.0
1493,0.7605273043953417,1.0
1494,0.7605614562344182,1.0
1495,0.76566715617636,1.0
1496,0.7657013080154367,1.0
1497,0.7863290188176634,1.0
1498,0.7863631706567399,1.0
1499,0.827601516341655,1.0
1500,0.8276356681807315,1.0
1501,0.8290017417437929,1.0
1502,0.8290358935828694,1.0
1503,0.885898705645299,1.0
1504,0.8859328574843756,1.0
1505,0.8874013865646665,1.0
1506,0.887435538403743,1.0
1507,0.9090536525391892,1.0
1508,0.9090878043782658,1.0
1509,0.9449301594890885,1.0
1510,0.944964311328165,1.0
1511,0.9741812096581401,1.0
1512,0.9742153614972167,1.0
1513,0.9920938492537823,1.0
1514,0.9921280010928588,1.0
1515,1.0,1.0
