,fpr,tpr
0,0.0,0.0
1,0.0,0.0002745241581259151
2,0.0,0.0015556368960468522
3,5.037732617303604e-06,0.0015556368960468522
4,5.037732617303604e-06,0.007961200585651538
5,1.0075465234607208e-05,0.007961200585651538
6,1.0075465234607208e-05,0.01171303074670571
7,1.5113197851910811e-05,0.01171303074670571
8,1.5113197851910811e-05,0.02397510980966325
9,2.0150930469214415e-05,0.02397510980966325
10,2.0150930469214415e-05,0.03010614934114202
11,2.518866308651802e-05,0.03010614934114202
12,2.518866308651802e-05,0.05755856515373353
13,3.0226395703821623e-05,0.05755856515373353
14,3.0226395703821623e-05,0.06771595900439238
15,3.0226395703821623e-05,0.06789897510980966
16,3.0226395703821623e-05,0.07146778916544656
17,3.526412832112523e-05,0.07146778916544656
18,3.526412832112523e-05,0.09342972181551977
19,4.030186093842883e-05,0.09342972181551977
20,4.030186093842883e-05,0.10303806734992679
21,4.030186093842883e-05,0.10322108345534407
22,4.030186093842883e-05,0.10386163982430453
23,4.533959355573244e-05,0.10386163982430453
24,4.533959355573244e-05,0.12188872620790629
25,5.037732617303604e-05,0.12188872620790629
26,5.037732617303604e-05,0.14211200585651537
27,5.5415058790339646e-05,0.14211200585651537
28,5.5415058790339646e-05,0.1438506588579795
29,6.0452791407643246e-05,0.1438506588579795
30,6.0452791407643246e-05,0.14531478770131773
31,6.549052402494685e-05,0.14531478770131773
32,6.549052402494685e-05,0.15062225475841873
33,7.052825664225046e-05,0.15062225475841873
34,7.052825664225046e-05,0.15922401171303074
35,7.556598925955406e-05,0.15922401171303074
36,7.556598925955406e-05,0.17661054172767204
37,8.060372187685766e-05,0.17661054172767204
38,8.060372187685766e-05,0.17935578330893118
39,8.564145449416126e-05,0.17935578330893118
40,8.564145449416126e-05,0.179904831625183
41,8.564145449416126e-05,0.1800878477306003
42,8.564145449416126e-05,0.18255856515373353
43,9.067918711146488e-05,0.18255856515373353
44,9.067918711146488e-05,0.18768301610541727
45,9.571691972876848e-05,0.18768301610541727
46,9.571691972876848e-05,0.20772327964860907
47,0.00010075465234607208,0.20772327964860907
48,0.00010075465234607208,0.21833821376281112
49,0.00010579238496337569,0.21833821376281112
50,0.00010579238496337569,0.2201683748169839
51,0.00011083011758067929,0.2201683748169839
52,0.00011083011758067929,0.2206259150805271
53,0.00011586785019798289,0.2206259150805271
54,0.00011586785019798289,0.22273060029282576
55,0.00012090558281528649,0.22273060029282576
56,0.00012090558281528649,0.2249267935578331
57,0.0001259433154325901,0.2249267935578331
58,0.0001259433154325901,0.23389458272327965
59,0.0001309810480498937,0.23389458272327965
60,0.0001309810480498937,0.26949121522694
61,0.00013601878066719732,0.26949121522694
62,0.00013601878066719732,0.276811859443631
63,0.00014105651328450092,0.276811859443631
64,0.00014105651328450092,0.27946559297218154
65,0.00014609424590180452,0.27946559297218154
66,0.00014609424590180452,0.2953879941434846
67,0.00015113197851910812,0.2953879941434846
68,0.00015113197851910812,0.2967606149341142
69,0.00015616971113641172,0.2967606149341142
70,0.00015616971113641172,0.29749267935578333
71,0.00016120744375371532,0.29749267935578333
72,0.00016120744375371532,0.3033491947291362
73,0.00016624517637101892,0.3033491947291362
74,0.00016624517637101892,0.31579428989751096
75,0.00017128290898832252,0.31579428989751096
76,0.00017128290898832252,0.32000366032210836
77,0.00017128290898832252,0.32018667642752563
78,0.00017128290898832252,0.32238286969253294
79,0.00017632064160562615,0.32238286969253294
80,0.00017632064160562615,0.32521961932650073
81,0.00018135837422292975,0.32521961932650073
82,0.00018135837422292975,0.33510248901903367
83,0.00018639610684023335,0.33510248901903367
84,0.00018639610684023335,0.3389458272327965
85,0.00019143383945753695,0.3389458272327965
86,0.00019143383945753695,0.34992679355783307
87,0.00019647157207484055,0.34992679355783307
88,0.00019647157207484055,0.3512994143484627
89,0.00020654703730944775,0.3512994143484627
90,0.00020654703730944775,0.3573389458272328
91,0.00021158476992675138,0.3573389458272328
92,0.00021158476992675138,0.358803074670571
93,0.00021662250254405498,0.358803074670571
94,0.00021662250254405498,0.3597181551976574
95,0.00022166023516135858,0.3597181551976574
96,0.00022166023516135858,0.36292093704245976
97,0.00022669796777866218,0.36292093704245976
98,0.00022669796777866218,0.36530014641288433
99,0.00023173570039596578,0.36530014641288433
100,0.00023173570039596578,0.36850292825768666
101,0.00023677343301326938,0.36850292825768666
102,0.00023677343301326938,0.37362737920937045
103,0.00024181116563057298,0.37362737920937045
104,0.00024181116563057298,0.3742679355783309
105,0.0002468488982478766,0.3742679355783309
106,0.0002468488982478766,0.38058199121522696
107,0.0002518866308651802,0.38058199121522696
108,0.0002518866308651802,0.3908308931185944
109,0.0002569243634824838,0.3908308931185944
110,0.0002569243634824838,0.39183748169838944
111,0.0002619620960997874,0.39183748169838944
112,0.0002619620960997874,0.39302708638360173
113,0.000266999828717091,0.39302708638360173
114,0.000266999828717091,0.39321010248901905
115,0.00027203756133439464,0.39321010248901905
116,0.00027203756133439464,0.39375915080527085
117,0.0002770752939516982,0.39375915080527085
118,0.0002770752939516982,0.3939421669106881
119,0.00028211302656900184,0.3939421669106881
120,0.00028211302656900184,0.3945827232796486
121,0.0002871507591863054,0.3945827232796486
122,0.0002871507591863054,0.39732796486090777
123,0.00029218849180360904,0.39732796486090777
124,0.00029218849180360904,0.39751098096632503
125,0.0002972262244209126,0.39751098096632503
126,0.0002972262244209126,0.40327598828696926
127,0.00030226395703821624,0.40327598828696926
128,0.00030226395703821624,0.40483162518301613
129,0.0003073016896555198,0.40483162518301613
130,0.0003073016896555198,0.40492313323572476
131,0.00031233942227282344,0.40492313323572476
132,0.00031233942227282344,0.4062042459736457
133,0.00031737715489012707,0.4062042459736457
134,0.00031737715489012707,0.41114568081991215
135,0.00032241488750743065,0.41114568081991215
136,0.00032241488750743065,0.4137994143484627
137,0.00032745262012473427,0.4137994143484627
138,0.00032745262012473427,0.4143484626647145
139,0.00033249035274203785,0.4143484626647145
140,0.00033249035274203785,0.4171852122986823
141,0.00034256581797664505,0.4171852122986823
142,0.00034256581797664505,0.4176427525622255
143,0.0003476035505939487,0.4176427525622255
144,0.0003476035505939487,0.4217606149341142
145,0.0003526412832112523,0.4217606149341142
146,0.0003526412832112523,0.42304172767203513
147,0.0003576790158285559,0.42304172767203513
148,0.0003576790158285559,0.4241398243045388
149,0.0003627167484458595,0.4241398243045388
150,0.0003627167484458595,0.42505490483162517
151,0.0003677544810631631,0.42505490483162517
152,0.0003677544810631631,0.43100292825768666
153,0.0003727922136804667,0.43100292825768666
154,0.0003727922136804667,0.43283308931185943
155,0.0003778299462977703,0.43283308931185943
156,0.0003778299462977703,0.4336566617862372
157,0.0003828676789150739,0.4336566617862372
158,0.0003828676789150739,0.4343887262079063
159,0.00038790541153237753,0.4343887262079063
160,0.00038790541153237753,0.43548682284040996
161,0.0003929431441496811,0.43548682284040996
162,0.0003929431441496811,0.43795754026354317
163,0.00039798087676698473,0.43795754026354317
164,0.00039798087676698473,0.4462847730600293
165,0.0004030186093842883,0.4462847730600293
166,0.0004030186093842883,0.44692532942898977
167,0.00040805634200159193,0.44692532942898977
168,0.00040805634200159193,0.44747437774524157
169,0.0004130940746188955,0.44747437774524157
170,0.0004130940746188955,0.44957906295754024
171,0.00041813180723619913,0.44957906295754024
172,0.00041813180723619913,0.4507686676427526
173,0.00042316953985350276,0.4507686676427526
174,0.00042316953985350276,0.4520497803806735
175,0.00042820727247080634,0.4520497803806735
176,0.00042820727247080634,0.452690336749634
177,0.00043324500508810996,0.452690336749634
178,0.00043324500508810996,0.4544289897510981
179,0.00043828273770541354,0.4544289897510981
180,0.00043828273770541354,0.45506954612005857
181,0.00044332047032271716,0.45506954612005857
182,0.00044332047032271716,0.45534407027818447
183,0.00044835820294002074,0.45534407027818447
184,0.00044835820294002074,0.45625915080527085
185,0.00045339593555732436,0.45625915080527085
186,0.00045339593555732436,0.45717423133235724
187,0.00045843366817462794,0.45717423133235724
188,0.00045843366817462794,0.4575402635431918
189,0.00046347140079193157,0.4575402635431918
190,0.00046347140079193157,0.45845534407027816
191,0.0004685091334092352,0.45845534407027816
192,0.0004685091334092352,0.4611090775988287
193,0.00047354686602653877,0.4611090775988287
194,0.00047354686602653877,0.4633967789165447
195,0.0004785845986438424,0.4633967789165447
196,0.0004785845986438424,0.4639458272327965
197,0.00048362233126114597,0.4639458272327965
198,0.00048362233126114597,0.46458638360175697
199,0.0004886600638784495,0.46458638360175697
200,0.0004886600638784495,0.4649524158125915
201,0.0004936977964957532,0.4649524158125915
202,0.0004936977964957532,0.46605051244509516
203,0.0004987355291130568,0.46605051244509516
204,0.0004987355291130568,0.46733162518301613
205,0.0005037732617303604,0.46733162518301613
206,0.0005037732617303604,0.4706259150805271
207,0.000508810994347664,0.4706259150805271
208,0.000508810994347664,0.47080893118594436
209,0.0005138487269649676,0.47080893118594436
210,0.0005138487269649676,0.4713579795021962
211,0.0005188864595822712,0.4713579795021962
212,0.0005188864595822712,0.4735541727672035
213,0.0005239241921995748,0.4735541727672035
214,0.0005239241921995748,0.4747437774524158
215,0.0005289619248168785,0.4747437774524158
216,0.0005289619248168785,0.4796852122986823
217,0.000533999657434182,0.4796852122986823
218,0.000533999657434182,0.4814238653001464
219,0.0005390373900514856,0.4814238653001464
220,0.0005390373900514856,0.48435212298682284
221,0.0005440751226687893,0.48435212298682284
222,0.0005440751226687893,0.48746339677891654
223,0.0005491128552860929,0.48746339677891654
224,0.0005491128552860929,0.4878294289897511
225,0.0005541505879033964,0.4878294289897511
226,0.0005541505879033964,0.48874450951683746
227,0.0005591883205207,0.48874450951683746
228,0.0005591883205207,0.4889275256222548
229,0.0005642260531380037,0.4889275256222548
230,0.0005642260531380037,0.48984260614934116
231,0.0005692637857553073,0.48984260614934116
232,0.0005692637857553073,0.4899341142020498
233,0.0005743015183726108,0.4899341142020498
234,0.0005743015183726108,0.49066617862371886
235,0.0005793392509899145,0.49066617862371886
236,0.0005793392509899145,0.4916727672035139
237,0.0005843769836072181,0.4916727672035139
238,0.0005843769836072181,0.4921303074670571
239,0.0005894147162245217,0.4921303074670571
240,0.0005894147162245217,0.49487554904831627
241,0.0005944524488418252,0.49487554904831627
242,0.0005944524488418252,0.49505856515373353
243,0.0005994901814591289,0.49505856515373353
244,0.0005994901814591289,0.4985358711566618
245,0.0006045279140764325,0.4985358711566618
246,0.0006045279140764325,0.49862737920937045
247,0.0006095656466937361,0.49862737920937045
248,0.0006095656466937361,0.4987188872620791
249,0.0006146033793110396,0.4987188872620791
250,0.0006146033793110396,0.498993411420205
251,0.0006196411119283433,0.498993411420205
252,0.0006196411119283433,0.5017386530014641
253,0.0006246788445456469,0.5017386530014641
254,0.0006246788445456469,0.5025622254758418
255,0.0006297165771629505,0.5025622254758418
256,0.0006297165771629505,0.5031112737920937
257,0.0006347543097802541,0.5031112737920937
258,0.0006347543097802541,0.5040263543191801
259,0.0006397920423975577,0.5040263543191801
260,0.0006397920423975577,0.5046669106881405
261,0.0006448297750148613,0.5046669106881405
262,0.0006448297750148613,0.5053074670571011
263,0.0006498675076321649,0.5053074670571011
264,0.0006498675076321649,0.5091508052708639
265,0.0006549052402494685,0.5091508052708639
266,0.0006549052402494685,0.5093338213762811
267,0.0006599429728667721,0.5093338213762811
268,0.0006599429728667721,0.5112554904831625
269,0.0006649807054840757,0.5112554904831625
270,0.0006649807054840757,0.5123535871156661
271,0.0006700184381013794,0.5123535871156661
272,0.0006700184381013794,0.5124450951683748
273,0.000675056170718683,0.5124450951683748
274,0.000675056170718683,0.5159224011713031
275,0.0006800939033359865,0.5159224011713031
276,0.0006800939033359865,0.5166544655929722
277,0.0006851316359532901,0.5166544655929722
278,0.0006851316359532901,0.5167459736456809
279,0.0006952071011878973,0.5167459736456809
280,0.0006952071011878973,0.5178440702781845
281,0.0007002448338052009,0.5178440702781845
282,0.0007002448338052009,0.5180270863836017
283,0.0007052825664225046,0.5180270863836017
284,0.0007052825664225046,0.5185761346998536
285,0.0007103202990398082,0.5185761346998536
286,0.0007103202990398082,0.5208638360175696
287,0.0007153580316571118,0.5208638360175696
288,0.0007153580316571118,0.5216874084919473
289,0.0007203957642744153,0.5216874084919473
290,0.0007203957642744153,0.5220534407027818
291,0.000725433496891719,0.5220534407027818
292,0.000725433496891719,0.5226024890190337
293,0.0007304712295090226,0.5226024890190337
294,0.0007304712295090226,0.5229685212298683
295,0.0007355089621263262,0.5229685212298683
296,0.0007355089621263262,0.5248901903367497
297,0.0007405466947436298,0.5248901903367497
298,0.0007405466947436298,0.5268118594436311
299,0.0007455844273609334,0.5268118594436311
300,0.0007455844273609334,0.5269948755490483
301,0.000750622159978237,0.5269948755490483
302,0.000750622159978237,0.527086383601757
303,0.0007556598925955406,0.527086383601757
304,0.0007556598925955406,0.5277269399707174
305,0.0007606976252128442,0.5277269399707174
306,0.0007606976252128442,0.5281844802342606
307,0.0007657353578301478,0.5281844802342606
308,0.0007657353578301478,0.5299231332357247
309,0.0007707730904474514,0.5299231332357247
310,0.0007707730904474514,0.530106149341142
311,0.0007758108230647551,0.530106149341142
312,0.0007758108230647551,0.5316617862371888
313,0.0007808485556820586,0.5316617862371888
314,0.0007808485556820586,0.5317532942898975
315,0.0007858862882993622,0.5317532942898975
316,0.0007858862882993622,0.532119326500732
317,0.0007909240209166658,0.532119326500732
318,0.0007909240209166658,0.5327598828696926
319,0.0007959617535339695,0.5327598828696926
320,0.0007959617535339695,0.5336749633967789
321,0.000800999486151273,0.5336749633967789
322,0.000800999486151273,0.5342240117130308
323,0.0008110749513858803,0.5342240117130308
324,0.0008110749513858803,0.5343155197657394
325,0.0008161126840031839,0.5343155197657394
326,0.0008161126840031839,0.5355051244509517
327,0.0008211504166204874,0.5355051244509517
328,0.0008211504166204874,0.5367862371888726
329,0.0008312258818550947,0.5367862371888726
330,0.0008312258818550947,0.5376098096632503
331,0.0008362636144723983,0.5376098096632503
332,0.0008362636144723983,0.5379758418740849
333,0.0008413013470897018,0.5379758418740849
334,0.0008413013470897018,0.5380673499267935
335,0.0008463390797070055,0.5380673499267935
336,0.0008463390797070055,0.5381588579795022
337,0.0008513768123243091,0.5381588579795022
338,0.0008513768123243091,0.5385248901903368
339,0.0008564145449416127,0.5385248901903368
340,0.0008564145449416127,0.5390739385065886
341,0.0008614522775589162,0.5390739385065886
342,0.0008614522775589162,0.5407210834553441
343,0.0008664900101762199,0.5407210834553441
344,0.0008664900101762199,0.541727672035139
345,0.0008715277427935235,0.541727672035139
346,0.0008715277427935235,0.5418191800878477
347,0.0008765654754108271,0.5418191800878477
348,0.0008765654754108271,0.5421852122986823
349,0.0008816032080281306,0.5421852122986823
350,0.0008816032080281306,0.5449304538799414
351,0.0008866409406454343,0.5449304538799414
352,0.0008866409406454343,0.5450219619326501
353,0.0008916786732627379,0.5450219619326501
354,0.0008916786732627379,0.5457540263543191
355,0.0008967164058800415,0.5457540263543191
356,0.0008967164058800415,0.5465775988286969
357,0.0009067918711146487,0.5465775988286969
358,0.0009067918711146487,0.5482247437774525
359,0.0009118296037319523,0.5482247437774525
360,0.0009118296037319523,0.5486822840409956
361,0.0009168673363492559,0.5486822840409956
362,0.0009168673363492559,0.5487737920937042
363,0.0009219050689665596,0.5487737920937042
364,0.0009219050689665596,0.5504209370424598
365,0.0009269428015838631,0.5504209370424598
366,0.0009269428015838631,0.5511530014641288
367,0.0009370182668184704,0.5511530014641288
368,0.0009370182668184704,0.5514275256222547
369,0.000942055999435774,0.5514275256222547
370,0.000942055999435774,0.5534407027818448
371,0.0009470937320530775,0.5534407027818448
372,0.0009470937320530775,0.5542642752562226
373,0.0009521314646703811,0.5542642752562226
374,0.0009521314646703811,0.5548133235724744
375,0.0009571691972876848,0.5548133235724744
376,0.0009571691972876848,0.554904831625183
377,0.0009622069299049884,0.554904831625183
378,0.0009622069299049884,0.5551793557833089
379,0.0009672446625222919,0.5551793557833089
380,0.0009672446625222919,0.5554538799414348
381,0.0009722823951395956,0.5554538799414348
382,0.0009722823951395956,0.5556368960468521
383,0.000977320127756899,0.5556368960468521
384,0.000977320127756899,0.5572840409956076
385,0.0009873955929915064,0.5572840409956076
386,0.0009873955929915064,0.5575585651537335
387,0.00099243332560881,0.5575585651537335
388,0.00099243332560881,0.5589311859443631
389,0.0009974710582261136,0.5589311859443631
390,0.0009974710582261136,0.5603953147877013
391,0.0010025087908434173,0.5603953147877013
392,0.0010025087908434173,0.5613103953147877
393,0.0010075465234607207,0.5613103953147877
394,0.0010075465234607207,0.5620424597364568
395,0.001017621988695328,0.5620424597364568
396,0.001017621988695328,0.5631405563689604
397,0.0010226597213126316,0.5631405563689604
398,0.0010226597213126316,0.5640556368960469
399,0.0010276974539299352,0.5640556368960469
400,0.0010276974539299352,0.5643301610541728
401,0.0010327351865472387,0.5643301610541728
402,0.0010327351865472387,0.5646046852122987
403,0.0010377729191645424,0.5646046852122987
404,0.0010377729191645424,0.5646961932650073
405,0.001042810651781846,0.5646961932650073
406,0.001042810651781846,0.565794289897511
407,0.0010478483843991495,0.565794289897511
408,0.0010478483843991495,0.5658857979502196
409,0.0010528861170164532,0.5658857979502196
410,0.0010528861170164532,0.568081991215227
411,0.001057923849633757,0.568081991215227
412,0.001057923849633757,0.5681734992679356
413,0.0010629615822510604,0.5681734992679356
414,0.0010629615822510604,0.568814055636896
415,0.001067999314868364,0.568814055636896
416,0.001067999314868364,0.5691800878477306
417,0.0010730370474856677,0.5691800878477306
418,0.0010730370474856677,0.5696376281112738
419,0.0010780747801029712,0.5696376281112738
420,0.0010780747801029712,0.5698206442166911
421,0.0010831125127202749,0.5698206442166911
422,0.0010831125127202749,0.570095168374817
423,0.0010881502453375786,0.570095168374817
424,0.0010881502453375786,0.5701866764275256
425,0.001093187977954882,0.5701866764275256
426,0.001093187977954882,0.5723828696925329
427,0.0010982257105721857,0.5723828696925329
428,0.0010982257105721857,0.5725658857979502
429,0.0011032634431894892,0.5725658857979502
430,0.0011032634431894892,0.5726573938506588
431,0.0011083011758067929,0.5726573938506588
432,0.0011083011758067929,0.5727489019033675
433,0.0011183766410414,0.5727489019033675
434,0.0011183766410414,0.5729319180087847
435,0.0011234143736587037,0.5729319180087847
436,0.0011234143736587037,0.5735724743777453
437,0.0011284521062760074,0.5735724743777453
438,0.0011284521062760074,0.574396046852123
439,0.0011486030367452217,0.574396046852123
440,0.0011486030367452217,0.5749450951683748
441,0.0011536407693625253,0.5749450951683748
442,0.0011536407693625253,0.5758601756954612
443,0.001158678501979829,0.5758601756954612
444,0.001158678501979829,0.5759516837481699
445,0.0011737916998317396,0.5759516837481699
446,0.0011737916998317396,0.5760431918008785
447,0.0011788294324490433,0.5760431918008785
448,0.0011788294324490433,0.5761346998535871
449,0.001183867165066347,0.5761346998535871
450,0.001183867165066347,0.5768667642752562
451,0.0011889048976836505,0.5768667642752562
452,0.0011889048976836505,0.5774158125915081
453,0.0011939426303009541,0.5774158125915081
454,0.0011939426303009541,0.577690336749634
455,0.0011989803629182578,0.577690336749634
456,0.0011989803629182578,0.5780563689604685
457,0.0012040180955355613,0.5780563689604685
458,0.0012040180955355613,0.5783308931185944
459,0.001209055828152865,0.5783308931185944
460,0.001209055828152865,0.5790629575402635
461,0.0012140935607701687,0.5790629575402635
462,0.0012140935607701687,0.5791544655929722
463,0.0012191312933874721,0.5791544655929722
464,0.0012191312933874721,0.5804355783308931
465,0.0012241690260047758,0.5804355783308931
466,0.0012241690260047758,0.5812591508052709
467,0.0012292067586220793,0.5812591508052709
468,0.0012292067586220793,0.5814421669106882
469,0.001234244491239383,0.5814421669106882
470,0.001234244491239383,0.5815336749633968
471,0.0012392822238566866,0.5815336749633968
472,0.0012392822238566866,0.5818081991215227
473,0.00124431995647399,0.5818081991215227
474,0.00124431995647399,0.5823572474377745
475,0.0012493576890912938,0.5823572474377745
476,0.0012493576890912938,0.5829062957540263
477,0.001259433154325901,0.5829062957540263
478,0.001259433154325901,0.5836383601756955
479,0.0012644708869432046,0.5836383601756955
480,0.0012644708869432046,0.5855600292825769
481,0.0012745463521778118,0.5855600292825769
482,0.0012745463521778118,0.5856515373352855
483,0.0012795840847951154,0.5856515373352855
484,0.0012795840847951154,0.586292093704246
485,0.0012846218174124191,0.586292093704246
486,0.0012846218174124191,0.5866581259150805
487,0.0012896595500297226,0.5866581259150805
488,0.0012896595500297226,0.5902269399707174
489,0.0012946972826470263,0.5902269399707174
490,0.0012946972826470263,0.5907759882869692
491,0.0012997350152643297,0.5907759882869692
492,0.0012997350152643297,0.5915080527086384
493,0.0013047727478816334,0.5915080527086384
494,0.0013047727478816334,0.5920571010248902
495,0.001309810480498937,0.5920571010248902
496,0.001309810480498937,0.5922401171303074
497,0.0013148482131162406,0.5922401171303074
498,0.0013148482131162406,0.5932467057101025
499,0.0013198859457335442,0.5932467057101025
500,0.0013198859457335442,0.5939787701317716
501,0.001324923678350848,0.5939787701317716
502,0.001324923678350848,0.5943448023426061
503,0.0013299614109681514,0.5943448023426061
504,0.0013299614109681514,0.594619326500732
505,0.0013400368762027587,0.594619326500732
506,0.0013400368762027587,0.5954428989751098
507,0.0013450746088200622,0.5954428989751098
508,0.0013450746088200622,0.5956259150805271
509,0.0013551500740546696,0.5956259150805271
510,0.0013551500740546696,0.5969070278184481
511,0.001360187806671973,0.5969070278184481
512,0.001360187806671973,0.597181551976574
513,0.0013652255392892767,0.597181551976574
514,0.0013652255392892767,0.5972730600292826
515,0.0013702632719065802,0.5972730600292826
516,0.0013702632719065802,0.5973645680819912
517,0.0013803387371411876,0.5973645680819912
518,0.0013803387371411876,0.5974560761346999
519,0.0013904142023757947,0.5974560761346999
520,0.0013904142023757947,0.5980966325036603
521,0.0013954519349930984,0.5980966325036603
522,0.0013954519349930984,0.5984626647144948
523,0.0014004896676104018,0.5984626647144948
524,0.0014004896676104018,0.5987371888726208
525,0.0014055274002277055,0.5987371888726208
526,0.0014055274002277055,0.5988286969253295
527,0.0014105651328450092,0.5988286969253295
528,0.0014105651328450092,0.5991032210834554
529,0.0014156028654623127,0.5991032210834554
530,0.0014156028654623127,0.6007503660322109
531,0.0014206405980796164,0.6007503660322109
532,0.0014206405980796164,0.6011163982430454
533,0.00142567833069692,0.6011163982430454
534,0.00142567833069692,0.6012994143484627
535,0.0014307160633142235,0.6012994143484627
536,0.0014307160633142235,0.6016654465592972
537,0.0014357537959315272,0.6016654465592972
538,0.0014357537959315272,0.6019399707174231
539,0.0014407915285488306,0.6019399707174231
540,0.0014407915285488306,0.6021229868228404
541,0.0014458292611661343,0.6021229868228404
542,0.0014458292611661343,0.6027635431918009
543,0.001450866993783438,0.6027635431918009
544,0.001450866993783438,0.6029465592972182
545,0.0014559047264007415,0.6029465592972182
546,0.0014559047264007415,0.6034040995607614
547,0.0014609424590180452,0.6034040995607614
548,0.0014609424590180452,0.6036786237188873
549,0.0014659801916353488,0.6036786237188873
550,0.0014659801916353488,0.6041361639824304
551,0.0014710179242526523,0.6041361639824304
552,0.0014710179242526523,0.6046852122986823
553,0.001476055656869956,0.6046852122986823
554,0.001476055656869956,0.6048682284040996
555,0.0014810933894872597,0.6048682284040996
556,0.0014810933894872597,0.6051427525622255
557,0.0014861311221045631,0.6051427525622255
558,0.0014861311221045631,0.6052342606149341
559,0.0014962065873391703,0.6052342606149341
560,0.0014962065873391703,0.6053257686676428
561,0.001501244319956474,0.6053257686676428
562,0.001501244319956474,0.6054172767203514
563,0.001511319785191081,0.6054172767203514
564,0.001511319785191081,0.6059663250366032
565,0.0015314707156602956,0.6059663250366032
566,0.0015314707156602956,0.6061493411420205
567,0.0015365084482775993,0.6061493411420205
568,0.0015365084482775993,0.6062408491947291
569,0.0015415461808949028,0.6062408491947291
570,0.0015415461808949028,0.6073389458272328
571,0.0015465839135122064,0.6073389458272328
572,0.0015465839135122064,0.6076134699853587
573,0.0015516216461295101,0.6076134699853587
574,0.0015516216461295101,0.607796486090776
575,0.0015566593787468136,0.607796486090776
576,0.0015566593787468136,0.6084370424597365
577,0.0015667348439814207,0.6084370424597365
578,0.0015667348439814207,0.6092606149341142
579,0.0015717725765987244,0.6092606149341142
580,0.0015717725765987244,0.6095351390922401
581,0.0015818480418333316,0.6095351390922401
582,0.0015818480418333316,0.6097181551976574
583,0.0015868857744506353,0.6097181551976574
584,0.0015868857744506353,0.609809663250366
585,0.001591923507067939,0.609809663250366
586,0.001591923507067939,0.6102672035139092
587,0.0015969612396852424,0.6102672035139092
588,0.0015969612396852424,0.6114568081991215
589,0.0016070367049198498,0.6114568081991215
590,0.0016070367049198498,0.6115483162518301
591,0.0016120744375371532,0.6115483162518301
592,0.0016120744375371532,0.6127379209370425
593,0.001617112170154457,0.6127379209370425
594,0.001617112170154457,0.6134699853587116
595,0.001627187635389064,0.6134699853587116
596,0.001627187635389064,0.6146595900439239
597,0.0016322253680063677,0.6146595900439239
598,0.0016322253680063677,0.6153001464128843
599,0.0016372631006236712,0.6153001464128843
600,0.0016372631006236712,0.6162152269399708
601,0.0016423008332409749,0.6162152269399708
602,0.0016423008332409749,0.6165812591508053
603,0.0016473385658582786,0.6165812591508053
604,0.0016473385658582786,0.6169472913616398
605,0.001652376298475582,0.6169472913616398
606,0.001652376298475582,0.6172218155197657
607,0.0016624517637101894,0.6172218155197657
608,0.0016624517637101894,0.6181368960468521
609,0.0016674894963274929,0.6181368960468521
610,0.0016674894963274929,0.6184114202049781
611,0.0016725272289447965,0.6184114202049781
612,0.0016725272289447965,0.6185029282576867
613,0.0016826026941794037,0.6185029282576867
614,0.0016826026941794037,0.618685944363104
615,0.0016876404267967074,0.618685944363104
616,0.0016876404267967074,0.6188689604685212
617,0.001692678159414011,0.6188689604685212
618,0.001692678159414011,0.6190519765739385
619,0.0016977158920313145,0.6190519765739385
620,0.0016977158920313145,0.619418008784773
621,0.0017128290898832253,0.619418008784773
622,0.0017128290898832253,0.6199670571010248
623,0.0017279422877351362,0.6199670571010248
624,0.0017279422877351362,0.6203330893118595
625,0.0017329800203524399,0.6203330893118595
626,0.0017329800203524399,0.6211566617862372
627,0.0017380177529697433,0.6211566617862372
628,0.0017380177529697433,0.6212481698389458
629,0.0017581686834389578,0.6212481698389458
630,0.0017581686834389578,0.6213396778916545
631,0.0017632064160562613,0.6213396778916545
632,0.0017632064160562613,0.6214311859443631
633,0.001768244148673565,0.6214311859443631
634,0.001768244148673565,0.621705710102489
635,0.0017732818812908687,0.621705710102489
636,0.0017732818812908687,0.6219802342606149
637,0.0017833573465254758,0.6219802342606149
638,0.0017833573465254758,0.6221632503660323
639,0.0017883950791427795,0.6221632503660323
640,0.0017883950791427795,0.6231698389458272
641,0.001793432811760083,0.6231698389458272
642,0.001793432811760083,0.6236273792093704
643,0.0017984705443773866,0.6236273792093704
644,0.0017984705443773866,0.623718887262079
645,0.0018035082769946903,0.623718887262079
646,0.0018035082769946903,0.6238103953147877
647,0.0018085460096119938,0.6238103953147877
648,0.0018085460096119938,0.6239019033674963
649,0.0018186214748466011,0.6239019033674963
650,0.0018186214748466011,0.6242679355783309
651,0.0018286969400812083,0.6242679355783309
652,0.0018286969400812083,0.6243594436310396
653,0.0018337346726985118,0.6243594436310396
654,0.0018337346726985118,0.6244509516837482
655,0.0018438101379331191,0.6244509516837482
656,0.0018438101379331191,0.6246339677891655
657,0.0018538856031677263,0.6246339677891655
658,0.0018538856031677263,0.6247254758418741
659,0.00185892333578503,0.6247254758418741
660,0.00185892333578503,0.6249084919472914
661,0.0018639610684023334,0.6249084919472914
662,0.0018639610684023334,0.625
663,0.001868998801019637,0.625
664,0.001868998801019637,0.6251830161054173
665,0.0018740365336369408,0.6251830161054173
666,0.0018740365336369408,0.6252745241581259
667,0.001884111998871548,0.6252745241581259
668,0.001884111998871548,0.6256405563689604
669,0.0019042629293407622,0.6256405563689604
670,0.0019042629293407622,0.6259150805270863
671,0.001909300661958066,0.6259150805270863
672,0.001909300661958066,0.6260065885797951
673,0.001919376127192673,0.6260065885797951
674,0.001919376127192673,0.6260980966325037
675,0.0019244138598099767,0.6260980966325037
676,0.0019244138598099767,0.6278367496339677
677,0.0019344893250445839,0.6278367496339677
678,0.0019344893250445839,0.6279282576866764
679,0.0019395270576618876,0.6279282576866764
680,0.0019395270576618876,0.6280197657393851
681,0.0019445647902791912,0.6280197657393851
682,0.0019445647902791912,0.628294289897511
683,0.0019496025228964947,0.628294289897511
684,0.0019496025228964947,0.6288433382137628
685,0.001954640255513798,0.6288433382137628
686,0.001954640255513798,0.6289348462664714
687,0.001959677988131102,0.6289348462664714
688,0.001959677988131102,0.6290263543191801
689,0.0019647157207484055,0.6290263543191801
690,0.0019647157207484055,0.6292093704245973
691,0.001969753453365709,0.6292093704245973
692,0.001969753453365709,0.629300878477306
693,0.001974791185983013,0.629300878477306
694,0.001974791185983013,0.6297584187408491
695,0.0019798289186003164,0.6297584187408491
696,0.0019798289186003164,0.6298499267935578
697,0.00198486665121762,0.6298499267935578
698,0.00198486665121762,0.630581991215227
699,0.0019899043838349237,0.630581991215227
700,0.0019899043838349237,0.6306734992679356
701,0.001994942116452227,0.6306734992679356
702,0.001994942116452227,0.6307650073206442
703,0.0019999798490695306,0.6307650073206442
704,0.0019999798490695306,0.6309480234260615
705,0.0020050175816868345,0.6309480234260615
706,0.0020050175816868345,0.6310395314787701
707,0.0020150930469214415,0.6310395314787701
708,0.0020150930469214415,0.6311310395314788
709,0.002025168512156049,0.6311310395314788
710,0.002025168512156049,0.6312225475841874
711,0.0020302062447733523,0.6312225475841874
712,0.0020302062447733523,0.6314970717423133
713,0.002045319442625263,0.6314970717423133
714,0.002045319442625263,0.6317715959004392
715,0.0020553949078598705,0.6317715959004392
716,0.0020553949078598705,0.6323206442166911
717,0.002060432640477174,0.6323206442166911
718,0.002060432640477174,0.6331442166910688
719,0.0020654703730944774,0.6331442166910688
720,0.0020654703730944774,0.6339677891654466
721,0.002085621303563692,0.6339677891654466
722,0.002085621303563692,0.6340592972181552
723,0.0020906590361809956,0.6340592972181552
724,0.0020906590361809956,0.634608345534407
725,0.002095696768798299,0.634608345534407
726,0.002095696768798299,0.6346998535871157
727,0.0021057722340329064,0.6346998535871157
728,0.0021057722340329064,0.6347913616398243
729,0.002115847699267514,0.6347913616398243
730,0.002115847699267514,0.6348828696925329
731,0.0021208854318848173,0.6348828696925329
732,0.0021208854318848173,0.6350658857979502
733,0.0021259231645021207,0.6350658857979502
734,0.0021259231645021207,0.6352489019033675
735,0.0021309608971194246,0.6352489019033675
736,0.0021309608971194246,0.6353404099560761
737,0.002135998629736728,0.6353404099560761
738,0.002135998629736728,0.6355234260614934
739,0.0021410363623540316,0.6355234260614934
740,0.0021410363623540316,0.6361639824304539
741,0.0021460740949713355,0.6361639824304539
742,0.0021460740949713355,0.6362554904831625
743,0.002151111827588639,0.6362554904831625
744,0.002151111827588639,0.6363469985358712
745,0.0021561495602059424,0.6363469985358712
746,0.0021561495602059424,0.6377196193265008
747,0.0021611872928232463,0.6377196193265008
748,0.0021611872928232463,0.6378111273792094
749,0.0021662250254405498,0.6378111273792094
750,0.0021662250254405498,0.6380856515373353
751,0.002176300490675157,0.6380856515373353
752,0.002176300490675157,0.638909224011713
753,0.0021813382232924606,0.638909224011713
754,0.0021813382232924606,0.6392752562225475
755,0.002186375955909764,0.6392752562225475
756,0.002186375955909764,0.6395497803806734
757,0.0021964514211443714,0.6395497803806734
758,0.0021964514211443714,0.6404648609077599
759,0.0022065268863789783,0.6404648609077599
760,0.0022065268863789783,0.6406478770131772
761,0.0022166023516135857,0.6406478770131772
762,0.0022166023516135857,0.6408308931185944
763,0.002221640084230889,0.6408308931185944
764,0.002221640084230889,0.6409224011713031
765,0.0022317155494654965,0.6409224011713031
766,0.0022317155494654965,0.6411054172767203
767,0.002241791014700104,0.6411054172767203
768,0.002241791014700104,0.6413799414348462
769,0.0022569042125520147,0.6413799414348462
770,0.0022569042125520147,0.6414714494875549
771,0.002261941945169318,0.6414714494875549
772,0.002261941945169318,0.6417459736456809
773,0.0022720174104039256,0.6417459736456809
774,0.0022720174104039256,0.6418374816983895
775,0.0022820928756385325,0.6418374816983895
776,0.0022820928756385325,0.6419289897510981
777,0.0022871306082558364,0.6419289897510981
778,0.0022871306082558364,0.6423865300146413
779,0.00229216834087314,0.6423865300146413
780,0.00229216834087314,0.6425695461200586
781,0.0022972060734904433,0.6425695461200586
782,0.0022972060734904433,0.6428440702781845
783,0.0023022438061077472,0.6428440702781845
784,0.0023022438061077472,0.6430270863836017
785,0.0023072815387250507,0.6430270863836017
786,0.0023072815387250507,0.643210102489019
787,0.002312319271342354,0.643210102489019
788,0.002312319271342354,0.6436676427525623
789,0.002317357003959658,0.6436676427525623
790,0.002317357003959658,0.6439421669106882
791,0.0023223947365769615,0.6439421669106882
792,0.0023223947365769615,0.6440336749633968
793,0.002327432469194265,0.6440336749633968
794,0.002327432469194265,0.6441251830161054
795,0.0023324702018115684,0.6441251830161054
796,0.0023324702018115684,0.6442166910688141
797,0.0023375079344288723,0.6442166910688141
798,0.0023375079344288723,0.6445827232796486
799,0.0023475833996634793,0.6445827232796486
800,0.0023475833996634793,0.6456808199121523
801,0.002352621132280783,0.6456808199121523
802,0.002352621132280783,0.6458638360175696
803,0.0023576588648980866,0.6458638360175696
804,0.0023576588648980866,0.6459553440702782
805,0.00236269659751539,0.6459553440702782
806,0.00236269659751539,0.6460468521229868
807,0.002377809795367301,0.6460468521229868
808,0.002377809795367301,0.6471449487554904
809,0.0023878852606019083,0.6471449487554904
810,0.0023878852606019083,0.6473279648609077
811,0.0023929229932192118,0.6473279648609077
812,0.0023929229932192118,0.6474194729136163
813,0.0023979607258365157,0.6474194729136163
814,0.0023979607258365157,0.6478770131771596
815,0.0024080361910711226,0.6478770131771596
816,0.0024080361910711226,0.6482430453879942
817,0.0024130739236884265,0.6482430453879942
818,0.0024130739236884265,0.6487005856515373
819,0.0024231493889230334,0.6487005856515373
820,0.0024231493889230334,0.6496156661786238
821,0.0024281871215403373,0.6496156661786238
822,0.0024281871215403373,0.6497071742313324
823,0.0024332248541576408,0.6497071742313324
824,0.0024332248541576408,0.649798682284041
825,0.0024382625867749442,0.649798682284041
826,0.0024382625867749442,0.6501647144948756
827,0.002443300319392248,0.6501647144948756
828,0.002443300319392248,0.6502562225475842
829,0.0024483380520095516,0.6502562225475842
830,0.0024483380520095516,0.6504392386530015
831,0.002453375784626855,0.6504392386530015
832,0.002453375784626855,0.6505307467057101
833,0.0024584135172441585,0.6505307467057101
834,0.0024584135172441585,0.6515373352855052
835,0.0024634512498614624,0.6515373352855052
836,0.0024634512498614624,0.6516288433382138
837,0.002468488982478766,0.6516288433382138
838,0.002468488982478766,0.6518118594436311
839,0.0024735267150960694,0.6518118594436311
840,0.0024735267150960694,0.6525439238653001
841,0.0024836021803306767,0.6525439238653001
842,0.0024836021803306767,0.6527269399707174
843,0.00248863991294798,0.6527269399707174
844,0.00248863991294798,0.652818448023426
845,0.0024987153781825876,0.652818448023426
846,0.0024987153781825876,0.6533674963396779
847,0.002503753110799891,0.6533674963396779
848,0.002503753110799891,0.6538250366032211
849,0.002508790843417195,0.6538250366032211
850,0.002508790843417195,0.6540080527086384
851,0.0025138285760344984,0.6540080527086384
852,0.0025138285760344984,0.6545571010248902
853,0.002518866308651802,0.6545571010248902
854,0.002518866308651802,0.6546486090775988
855,0.002528941773886409,0.6546486090775988
856,0.002528941773886409,0.6549231332357247
857,0.0025339795065037127,0.6549231332357247
858,0.0025339795065037127,0.6559297218155198
859,0.0025390172391210166,0.6559297218155198
860,0.0025390172391210166,0.656112737920937
861,0.0025490927043556235,0.656112737920937
862,0.0025490927043556235,0.6562042459736457
863,0.0025541304369729274,0.6562042459736457
864,0.0025541304369729274,0.6572108345534406
865,0.002559168169590231,0.6572108345534406
866,0.002559168169590231,0.657393850658858
867,0.0025642059022075343,0.657393850658858
868,0.0025642059022075343,0.6587664714494875
869,0.0025692436348248382,0.6587664714494875
870,0.0025692436348248382,0.6590409956076134
871,0.0025742813674421417,0.6590409956076134
872,0.0025742813674421417,0.6593155197657394
873,0.002579319100059445,0.6593155197657394
874,0.002579319100059445,0.6599560761346999
875,0.002584356832676749,0.6599560761346999
876,0.002584356832676749,0.6610541727672035
877,0.002594432297911356,0.6610541727672035
878,0.002594432297911356,0.6616032210834554
879,0.0025994700305286595,0.6616032210834554
880,0.0025994700305286595,0.6620607613469985
881,0.0026045077631459634,0.6620607613469985
882,0.0026045077631459634,0.6622437774524158
883,0.0026145832283805703,0.6622437774524158
884,0.0026145832283805703,0.6623352855051244
885,0.002619620960997874,0.6623352855051244
886,0.002619620960997874,0.6625183016105417
887,0.0026246586936151776,0.6625183016105417
888,0.0026246586936151776,0.6631588579795022
889,0.0026397718914670885,0.6631588579795022
890,0.0026397718914670885,0.6632503660322109
891,0.002649847356701696,0.6632503660322109
892,0.002649847356701696,0.6636163982430454
893,0.0026599228219363028,0.6636163982430454
894,0.0026599228219363028,0.6641654465592972
895,0.0026800737524055175,0.6641654465592972
896,0.0026800737524055175,0.6648060029282576
897,0.0026901492176401244,0.6648060029282576
898,0.0026901492176401244,0.6648975109809663
899,0.002700224682874732,0.6648975109809663
900,0.002700224682874732,0.6650805270863837
901,0.0027052624154920353,0.6650805270863837
902,0.0027052624154920353,0.6651720351390923
903,0.002710300148109339,0.6651720351390923
904,0.002710300148109339,0.6652635431918009
905,0.0027153378807266426,0.6652635431918009
906,0.0027153378807266426,0.6653550512445096
907,0.002720375613343946,0.6653550512445096
908,0.002720375613343946,0.6656295754026355
909,0.0027254133459612495,0.6656295754026355
910,0.0027254133459612495,0.6658125915080527
911,0.0027304510785785534,0.6658125915080527
912,0.0027304510785785534,0.66599560761347
913,0.0027455642764304643,0.66599560761347
914,0.0027455642764304643,0.6664531478770132
915,0.0027506020090477677,0.6664531478770132
916,0.0027506020090477677,0.667276720351391
917,0.002760677474282375,0.667276720351391
918,0.002760677474282375,0.66800878477306
919,0.0027657152068996786,0.66800878477306
920,0.0027657152068996786,0.6681002928257687
921,0.002775790672134286,0.6681002928257687
922,0.002775790672134286,0.6686493411420205
923,0.0027808284047515894,0.6686493411420205
924,0.0027808284047515894,0.6687408491947291
925,0.002785866137368893,0.6687408491947291
926,0.002785866137368893,0.6690153733528551
927,0.0027909038699861968,0.6690153733528551
928,0.0027909038699861968,0.669289897510981
929,0.0028060170678381076,0.669289897510981
930,0.0028060170678381076,0.6695644216691069
931,0.002811054800455411,0.6695644216691069
932,0.002811054800455411,0.6701134699853587
933,0.0028160925330727145,0.6701134699853587
934,0.0028160925330727145,0.6702049780380673
935,0.002826167998307322,0.6702049780380673
936,0.002826167998307322,0.6703879941434846
937,0.0028412811961592327,0.6703879941434846
938,0.0028412811961592327,0.6704795021961932
939,0.002846318928776536,0.6704795021961932
940,0.002846318928776536,0.6707540263543191
941,0.00285135666139384,0.6707540263543191
942,0.00285135666139384,0.6708455344070278
943,0.0028563943940111435,0.6708455344070278
944,0.0028563943940111435,0.6710285505124451
945,0.0028664698592457505,0.6710285505124451
946,0.0028664698592457505,0.6711200585651538
947,0.0028715075918630544,0.6711200585651538
948,0.0028715075918630544,0.6712115666178624
949,0.002876545324480358,0.6712115666178624
950,0.002876545324480358,0.6713945827232797
951,0.0028916585223322687,0.6713945827232797
952,0.0028916585223322687,0.6714860907759883
953,0.002896696254949572,0.6714860907759883
954,0.002896696254949572,0.6715775988286969
955,0.002901733987566876,0.6715775988286969
956,0.002901733987566876,0.6716691068814056
957,0.0029067717201841795,0.6716691068814056
958,0.0029067717201841795,0.6717606149341142
959,0.002911809452801483,0.6717606149341142
960,0.002911809452801483,0.6718521229868228
961,0.0029218849180360903,0.6718521229868228
962,0.0029218849180360903,0.6719436310395315
963,0.0029319603832706977,0.6719436310395315
964,0.0029319603832706977,0.6721266471449487
965,0.002936998115888001,0.6721266471449487
966,0.002936998115888001,0.6726756954612005
967,0.002952111313739912,0.6726756954612005
968,0.002952111313739912,0.6730417276720352
969,0.0029621867789745193,0.6730417276720352
970,0.0029621867789745193,0.6731332357247438
971,0.002967224511591823,0.6731332357247438
972,0.002967224511591823,0.6733162518301611
973,0.0029722622442091263,0.6733162518301611
974,0.0029722622442091263,0.673590775988287
975,0.00297729997682643,0.673590775988287
976,0.00297729997682643,0.6738653001464129
977,0.002987375442061037,0.6738653001464129
978,0.002987375442061037,0.6739568081991215
979,0.0029924131746783406,0.6739568081991215
980,0.0029924131746783406,0.6741398243045388
981,0.003002488639912948,0.6741398243045388
982,0.003002488639912948,0.674322840409956
983,0.0030075263725302514,0.674322840409956
984,0.0030075263725302514,0.6744143484626647
985,0.0030125641051475553,0.6744143484626647
986,0.0030125641051475553,0.6747803806734992
987,0.003027677302999466,0.6747803806734992
988,0.003027677302999466,0.674871888726208
989,0.0030478282334686804,0.674871888726208
990,0.0030478282334686804,0.6751464128843339
991,0.0030579036987032878,0.6751464128843339
992,0.0030579036987032878,0.6753294289897511
993,0.0030629414313205912,0.6753294289897511
994,0.0030629414313205912,0.6754209370424598
995,0.0030679791639378947,0.6754209370424598
996,0.0030679791639378947,0.6759699853587116
997,0.0030730168965551986,0.6759699853587116
998,0.0030730168965551986,0.6762445095168375
999,0.003078054629172502,0.6762445095168375
1000,0.003078054629172502,0.6763360175695461
1001,0.0030830923617898055,0.6763360175695461
1002,0.0030830923617898055,0.676610541727672
1003,0.0030881300944071094,0.676610541727672
1004,0.0030881300944071094,0.6771595900439239
1005,0.003093167827024413,0.6771595900439239
1006,0.003093167827024413,0.6781661786237189
1007,0.0030982055596417164,0.6781661786237189
1008,0.0030982055596417164,0.6782576866764275
1009,0.0031032432922590203,0.6782576866764275
1010,0.0031032432922590203,0.6783491947291361
1011,0.003128431955345538,0.6783491947291361
1012,0.003128431955345538,0.678623718887262
1013,0.0031385074205801454,0.678623718887262
1014,0.0031385074205801454,0.6788067349926794
1015,0.003143545153197449,0.6788067349926794
1016,0.003143545153197449,0.6789897510980967
1017,0.0031485828858147523,0.6789897510980967
1018,0.0031485828858147523,0.6790812591508053
1019,0.003153620618432056,0.6790812591508053
1020,0.003153620618432056,0.6792642752562226
1021,0.0031737715489012705,0.6792642752562226
1022,0.0031737715489012705,0.6801793557833089
1023,0.003178809281518574,0.6801793557833089
1024,0.003178809281518574,0.6802708638360175
1025,0.003183847014135878,0.6802708638360175
1026,0.003183847014135878,0.6805453879941434
1027,0.0031888847467531813,0.6805453879941434
1028,0.0031888847467531813,0.6807284040995608
1029,0.003193922479370485,0.6807284040995608
1030,0.003193922479370485,0.6810944363103953
1031,0.003203997944605092,0.6810944363103953
1032,0.003203997944605092,0.681185944363104
1033,0.0032090356772223956,0.681185944363104
1034,0.0032090356772223956,0.6816434846266471
1035,0.0032140734098396995,0.6816434846266471
1036,0.0032140734098396995,0.6817349926793558
1037,0.003219111142457003,0.6817349926793558
1038,0.003219111142457003,0.6820095168374817
1039,0.0032241488750743065,0.6820095168374817
1040,0.0032241488750743065,0.6821010248901903
1041,0.0032291866076916103,0.6821010248901903
1042,0.0032291866076916103,0.6821925329428989
1043,0.003234224340308914,0.6821925329428989
1044,0.003234224340308914,0.6822840409956076
1045,0.0032392620729262173,0.6822840409956076
1046,0.0032392620729262173,0.6824670571010248
1047,0.003244299805543521,0.6824670571010248
1048,0.003244299805543521,0.6825585651537335
1049,0.0032493375381608246,0.6826500732064422
1050,0.003254375270778128,0.6826500732064422
1051,0.003254375270778128,0.6832906295754027
1052,0.0032644507360127355,0.6832906295754027
1053,0.0032644507360127355,0.6833821376281113
1054,0.003269488468630039,0.6833821376281113
1055,0.003269488468630039,0.6834736456808199
1056,0.0032745262012473424,0.6834736456808199
1057,0.0032745262012473424,0.6835651537335286
1058,0.0032795639338646463,0.6835651537335286
1059,0.0032795639338646463,0.6843887262079063
1060,0.0032896393990992532,0.6843887262079063
1061,0.0032896393990992532,0.6845717423133236
1062,0.003304752596951164,0.6845717423133236
1063,0.003304752596951164,0.6847547584187409
1064,0.0033148280621857714,0.6847547584187409
1065,0.0033148280621857714,0.6850292825768668
1066,0.003319865794803075,0.6850292825768668
1067,0.003319865794803075,0.6851207906295754
1068,0.003324903527420379,0.6851207906295754
1069,0.003324903527420379,0.6853038067349927
1070,0.0033400167252722896,0.6853038067349927
1071,0.0033400167252722896,0.6853953147877013
1072,0.003345054457889593,0.6853953147877013
1073,0.003345054457889593,0.68548682284041
1074,0.0033500921905068965,0.68548682284041
1075,0.0033500921905068965,0.6856698389458272
1076,0.0033551299231242004,0.6856698389458272
1077,0.0033551299231242004,0.6857613469985359
1078,0.0033652053883588074,0.6857613469985359
1079,0.0033652053883588074,0.6860358711566618
1080,0.0033702431209761113,0.6860358711566618
1081,0.0033702431209761113,0.686218887262079
1082,0.0033903940514453256,0.686218887262079
1083,0.0033903940514453256,0.6864019033674963
1084,0.0034004695166799325,0.6864019033674963
1085,0.0034004695166799325,0.6865849194729137
1086,0.0034055072492972364,0.6865849194729137
1087,0.0034055072492972364,0.6866764275256223
1088,0.00341054498191454,0.6866764275256223
1089,0.00341054498191454,0.6867679355783309
1090,0.0034155827145318433,0.6867679355783309
1091,0.0034155827145318433,0.6872254758418741
1092,0.0034206204471491472,0.6872254758418741
1093,0.0034206204471491472,0.6875
1094,0.003430695912383754,0.6875
1095,0.003430695912383754,0.6876830161054173
1096,0.003435733645001058,0.6876830161054173
1097,0.003435733645001058,0.6879575402635432
1098,0.0034407713776183615,0.6879575402635432
1099,0.0034407713776183615,0.6881405563689604
1100,0.003445809110235665,0.6881405563689604
1101,0.003445809110235665,0.6883235724743777
1102,0.0034558845754702723,0.6883235724743777
1103,0.0034558845754702723,0.6885980966325037
1104,0.003470997773322183,0.6885980966325037
1105,0.003470997773322183,0.6893301610541728
1106,0.003486110971174094,0.6893301610541728
1107,0.003486110971174094,0.6896961932650073
1108,0.0034911487037913975,0.6896961932650073
1109,0.0034911487037913975,0.6897877013177159
1110,0.003501224169026005,0.6897877013177159
1111,0.003501224169026005,0.6898792093704246
1112,0.003511299634260612,0.6898792093704246
1113,0.003511299634260612,0.6903367496339677
1114,0.0035163373668779157,0.6903367496339677
1115,0.0035163373668779157,0.6905197657393851
1116,0.003521375099495219,0.6905197657393851
1117,0.003521375099495219,0.6910688140556369
1118,0.00353648829734713,0.6910688140556369
1119,0.00353648829734713,0.6911603221083455
1120,0.0035415260299644334,0.6911603221083455
1121,0.0035415260299644334,0.6913433382137628
1122,0.0035465637625817373,0.6913433382137628
1123,0.0035465637625817373,0.6915263543191801
1124,0.0035667146930509516,0.6915263543191801
1125,0.0035667146930509516,0.6917093704245973
1126,0.003571752425668255,0.6917093704245973
1127,0.003571752425668255,0.6919838945827232
1128,0.003586865623520166,0.6919838945827232
1129,0.003586865623520166,0.6921669106881405
1130,0.00359190335613747,0.6921669106881405
1131,0.00359190335613747,0.6922584187408491
1132,0.0035969410887547733,0.6922584187408491
1133,0.0035969410887547733,0.6926244509516838
1134,0.0036019788213720767,0.6926244509516838
1135,0.0036019788213720767,0.6928074670571011
1136,0.0036221297518412915,0.6928074670571011
1137,0.0036221297518412915,0.6933565153733529
1138,0.0036322052170758984,0.6933565153733529
1139,0.0036322052170758984,0.6937225475841874
1140,0.0036372429496932023,0.6937225475841874
1141,0.0036372429496932023,0.6939055636896047
1142,0.0036573938801624166,0.6939055636896047
1143,0.0036573938801624166,0.6941800878477306
1144,0.00366243161277972,0.6941800878477306
1145,0.00366243161277972,0.6943631039531479
1146,0.0036674693453970235,0.6943631039531479
1147,0.0036674693453970235,0.6944546120058566
1148,0.0036725070780143274,0.6944546120058566
1149,0.0036725070780143274,0.6945461200585652
1150,0.003677544810631631,0.6945461200585652
1151,0.003677544810631631,0.6946376281112738
1152,0.0036825825432489343,0.6946376281112738
1153,0.0036825825432489343,0.6950036603221084
1154,0.0036876202758662382,0.6950036603221084
1155,0.0036876202758662382,0.695095168374817
1156,0.0036926580084835417,0.695095168374817
1157,0.0036926580084835417,0.6955527086383602
1158,0.003697695741100845,0.6955527086383602
1159,0.003697695741100845,0.6959187408491947
1160,0.003702733473718149,0.6959187408491947
1161,0.003702733473718149,0.6960102489019033
1162,0.003712808938952756,0.6960102489019033
1163,0.003712808938952756,0.6961932650073206
1164,0.00371784667157006,0.6961932650073206
1165,0.00371784667157006,0.6964677891654466
1166,0.0037329598694219707,0.6964677891654466
1167,0.0037329598694219707,0.6967423133235725
1168,0.0037430353346565776,0.6967423133235725
1169,0.0037430353346565776,0.697108345534407
1170,0.0037480730672738815,0.697108345534407
1171,0.0037480730672738815,0.6975658857979502
1172,0.0037581485325084885,0.6975658857979502
1173,0.0037581485325084885,0.6976573938506588
1174,0.003768223997743096,0.6976573938506588
1175,0.003768223997743096,0.6978404099560761
1176,0.0037732617303603993,0.6978404099560761
1177,0.0037732617303603993,0.698114934114202
1178,0.0037833371955950067,0.698114934114202
1179,0.0037833371955950067,0.6982064421669106
1180,0.00378837492821231,0.6982064421669106
1181,0.00378837492821231,0.6986639824304539
1182,0.0037934126608296136,0.6986639824304539
1183,0.0037934126608296136,0.6993045387994143
1184,0.0037984503934469175,0.6993045387994143
1185,0.0037984503934469175,0.6994875549048316
1186,0.003803488126064221,0.6994875549048316
1187,0.003803488126064221,0.6995790629575402
1188,0.0038135635912988283,0.6995790629575402
1189,0.0038135635912988283,0.6997620790629575
1190,0.003818601323916132,0.6997620790629575
1191,0.003818601323916132,0.6998535871156661
1192,0.0038236390565334353,0.6998535871156661
1193,0.0038236390565334353,0.6999450951683748
1194,0.0038337145217680426,0.6999450951683748
1195,0.0038337145217680426,0.7000366032210834
1196,0.003838752254385346,0.7000366032210834
1197,0.003838752254385346,0.7004941434846267
1198,0.0038488277196199534,0.7004941434846267
1199,0.0038488277196199534,0.700677159590044
1200,0.003853865452237257,0.700677159590044
1201,0.003853865452237257,0.7007686676427526
1202,0.0038639409174718643,0.7007686676427526
1203,0.0038639409174718643,0.7008601756954612
1204,0.0038689786500891677,0.7008601756954612
1205,0.0038689786500891677,0.7010431918008785
1206,0.0038740163827064716,0.7010431918008785
1207,0.0038740163827064716,0.7011346998535871
1208,0.003879054115323775,0.7011346998535871
1209,0.003879054115323775,0.7012262079062958
1210,0.0038891295805583825,0.7012262079062958
1211,0.0038891295805583825,0.7013177159590044
1212,0.003894167313175686,0.7013177159590044
1213,0.003894167313175686,0.7015922401171303
1214,0.0039042427784102933,0.7015922401171303
1215,0.0039042427784102933,0.7016837481698389
1216,0.003909280511027596,0.7016837481698389
1217,0.003909280511027596,0.7017752562225475
1218,0.003924393708879507,0.7017752562225475
1219,0.003924393708879507,0.7020497803806734
1220,0.003929431441496811,0.7020497803806734
1221,0.003929431441496811,0.7024158125915081
1222,0.003939506906731418,0.7024158125915081
1223,0.003939506906731418,0.7025988286969254
1224,0.003949582371966026,0.7025988286969254
1225,0.003949582371966026,0.7028733528550513
1226,0.003954620104583329,0.7028733528550513
1227,0.003954620104583329,0.7032393850658858
1228,0.003959657837200633,0.7032393850658858
1229,0.003959657837200633,0.7035139092240117
1230,0.003964695569817937,0.7035139092240117
1231,0.003964695569817937,0.703696925329429
1232,0.0039747710350525435,0.703696925329429
1233,0.0039747710350525435,0.7038799414348462
1234,0.0039798087676698474,0.7038799414348462
1235,0.0039798087676698474,0.7040629575402635
1236,0.0039848465002871505,0.7040629575402635
1237,0.0039848465002871505,0.7042459736456809
1238,0.004004997430756365,0.7042459736456809
1239,0.004004997430756365,0.7043374816983895
1240,0.004015072895990972,0.7043374816983895
1241,0.004015072895990972,0.7044289897510981
1242,0.004020110628608276,0.7044289897510981
1243,0.004020110628608276,0.7045204978038068
1244,0.00402514836122558,0.7045204978038068
1245,0.00402514836122558,0.7046120058565154
1246,0.004035223826460187,0.7046120058565154
1247,0.004035223826460187,0.7055270863836017
1248,0.004040261559077491,0.7055270863836017
1249,0.004040261559077491,0.7056185944363104
1250,0.004045299291694794,0.7056185944363104
1251,0.004045299291694794,0.705710102489019
1252,0.0040654502221640085,0.705710102489019
1253,0.0040654502221640085,0.7058016105417276
1254,0.004070487954781312,0.7058016105417276
1255,0.004070487954781312,0.7062591508052709
1256,0.004080563420015919,0.7062591508052709
1257,0.004080563420015919,0.7063506588579795
1258,0.00409567661786783,0.7063506588579795
1259,0.00409567661786783,0.7065336749633968
1260,0.004120865280954348,0.7065336749633968
1261,0.004120865280954348,0.7066251830161054
1262,0.004125903013571652,0.7066251830161054
1263,0.004125903013571652,0.7068081991215227
1264,0.004130940746188955,0.7068081991215227
1265,0.004130940746188955,0.7068997071742313
1266,0.004141016211423563,0.7068997071742313
1267,0.004141016211423563,0.70699121522694
1268,0.0041611671418927765,0.70699121522694
1269,0.0041611671418927765,0.7070827232796486
1270,0.00416620487451008,0.7070827232796486
1271,0.00416620487451008,0.7071742313323572
1272,0.004176280339744687,0.7071742313323572
1273,0.004176280339744687,0.7073572474377745
1274,0.004191393537596598,0.7073572474377745
1275,0.004191393537596598,0.7074487554904831
1276,0.00422161993330042,0.7074487554904831
1277,0.00422161993330042,0.7076317715959004
1278,0.004226657665917724,0.7076317715959004
1279,0.004226657665917724,0.707723279648609
1280,0.004231695398535028,0.707723279648609
1281,0.004231695398535028,0.7078147877013177
1282,0.004236733131152331,0.7078147877013177
1283,0.004236733131152331,0.7081808199121523
1284,0.0042417708637696346,0.7081808199121523
1285,0.0042417708637696346,0.708272327964861
1286,0.0042468085963869385,0.708272327964861
1287,0.0042468085963869385,0.7083638360175696
1288,0.0042518463290042415,0.7083638360175696
1289,0.0042518463290042415,0.7084553440702782
1290,0.00427703499209076,0.7084553440702782
1291,0.00427703499209076,0.7086383601756955
1292,0.004282072724708063,0.7086383601756955
1293,0.004282072724708063,0.7087298682284041
1294,0.004287110457325367,0.7087298682284041
1295,0.004287110457325367,0.7088213762811127
1296,0.004292148189942671,0.7088213762811127
1297,0.004292148189942671,0.7090959004392386
1298,0.004302223655177278,0.7090959004392386
1299,0.004302223655177278,0.7091874084919473
1300,0.004307261387794582,0.7091874084919473
1301,0.004307261387794582,0.7094619326500732
1302,0.004312299120411885,0.7094619326500732
1303,0.004312299120411885,0.7096449487554904
1304,0.004322374585646493,0.7096449487554904
1305,0.004322374585646493,0.7098279648609077
1306,0.004327412318263796,0.7098279648609077
1307,0.004327412318263796,0.7099194729136163
1308,0.0043324500508810995,0.7099194729136163
1309,0.0043324500508810995,0.7100109809663251
1310,0.004337487783498403,0.7100109809663251
1311,0.004337487783498403,0.7101024890190337
1312,0.0043425255161157065,0.7101024890190337
1313,0.0043425255161157065,0.7103770131771596
1314,0.004352600981350314,0.7103770131771596
1315,0.004352600981350314,0.7106515373352855
1316,0.004362676446584921,0.7106515373352855
1317,0.004362676446584921,0.7108345534407028
1318,0.004372751911819528,0.7108345534407028
1319,0.004372751911819528,0.71101756954612
1320,0.004382827377054136,0.71101756954612
1321,0.004382827377054136,0.7111090775988287
1322,0.004387865109671439,0.7111090775988287
1323,0.004387865109671439,0.7112005856515373
1324,0.004397940574906046,0.7112005856515373
1325,0.004397940574906046,0.7113836017569546
1326,0.004418091505375261,0.7113836017569546
1327,0.004418091505375261,0.7114751098096632
1328,0.004438242435844475,0.7114751098096632
1329,0.004438242435844475,0.7115666178623719
1330,0.004453355633696386,0.7115666178623719
1331,0.004453355633696386,0.7116581259150805
1332,0.004458393366313689,0.7116581259150805
1333,0.004458393366313689,0.7117496339677891
1334,0.004468468831548297,0.7117496339677891
1335,0.004468468831548297,0.7121156661786238
1336,0.0044735065641656,0.7121156661786238
1337,0.0044735065641656,0.7122071742313324
1338,0.004478544296782904,0.7122071742313324
1339,0.004478544296782904,0.7123901903367497
1340,0.004498695227252119,0.7123901903367497
1341,0.004498695227252119,0.7124816983894583
1342,0.0045087706924867256,0.7124816983894583
1343,0.0045087706924867256,0.7125732064421669
1344,0.0045138084251040295,0.7125732064421669
1345,0.0045138084251040295,0.7127562225475842
1346,0.004538997088190547,0.7127562225475842
1347,0.004538997088190547,0.7129392386530015
1348,0.004544034820807851,0.7129392386530015
1349,0.004544034820807851,0.7130307467057101
1350,0.004554110286042458,0.7130307467057101
1351,0.004554110286042458,0.7134882869692533
1352,0.004559148018659762,0.7134882869692533
1353,0.004559148018659762,0.7135797950219619
1354,0.004564185751277065,0.7135797950219619
1355,0.004564185751277065,0.7137628111273792
1356,0.004569223483894369,0.7137628111273792
1357,0.004569223483894369,0.7138543191800878
1358,0.004574261216511673,0.7138543191800878
1359,0.004574261216511673,0.7139458272327965
1360,0.004579298949128976,0.7139458272327965
1361,0.004579298949128976,0.7146778916544656
1362,0.00458433668174628,0.7146778916544656
1363,0.00458433668174628,0.7147693997071742
1364,0.0046044876122154944,0.7147693997071742
1365,0.0046044876122154944,0.7149524158125915
1366,0.0046095253448327975,0.7149524158125915
1367,0.0046095253448327975,0.7150439238653001
1368,0.004619600810067405,0.7150439238653001
1369,0.004619600810067405,0.7152269399707174
1370,0.004624638542684708,0.7152269399707174
1371,0.004624638542684708,0.7154099560761347
1372,0.004629676275302012,0.7154099560761347
1373,0.004629676275302012,0.7155929721815519
1374,0.004639751740536619,0.7155929721815519
1375,0.004639751740536619,0.7156844802342606
1376,0.004644789473153923,0.7156844802342606
1377,0.004644789473153923,0.7158674963396779
1378,0.00465486493838853,0.7158674963396779
1379,0.00465486493838853,0.7161420204978038
1380,0.004659902671005834,0.7161420204978038
1381,0.004659902671005834,0.7166910688140556
1382,0.004664940403623137,0.7166910688140556
1383,0.004664940403623137,0.7168740849194729
1384,0.004669978136240441,0.7168740849194729
1385,0.004669978136240441,0.7169655929721815
1386,0.004680053601475048,0.7169655929721815
1387,0.004680053601475048,0.7170571010248902
1388,0.004685091334092352,0.7170571010248902
1389,0.004685091334092352,0.7171486090775988
1390,0.0046901290667096555,0.7171486090775988
1391,0.0046901290667096555,0.7173316251830161
1392,0.0047002045319442624,0.7173316251830161
1393,0.0047002045319442624,0.717606149341142
1394,0.004720355462413477,0.717606149341142
1395,0.004720355462413477,0.7176976573938506
1396,0.004730430927648084,0.7176976573938506
1397,0.004730430927648084,0.7180636896046853
1398,0.004735468660265388,0.7180636896046853
1399,0.004735468660265388,0.7182467057101025
1400,0.004740506392882691,0.7182467057101025
1401,0.004740506392882691,0.718612737920937
1402,0.004745544125499995,0.718612737920937
1403,0.004745544125499995,0.7187042459736457
1404,0.004750581858117299,0.7187042459736457
1405,0.004750581858117299,0.718887262079063
1406,0.004760657323351906,0.718887262079063
1407,0.004760657323351906,0.7191617862371888
1408,0.0047808082538211205,0.7191617862371888
1409,0.0047808082538211205,0.7193448023426061
1410,0.004790883719055727,0.7193448023426061
1411,0.004790883719055727,0.7194363103953147
1412,0.004795921451673031,0.7194363103953147
1413,0.004795921451673031,0.7195278184480234
1414,0.004800959184290334,0.7195278184480234
1415,0.004800959184290334,0.719619326500732
1416,0.004816072382142245,0.719619326500732
1417,0.004816072382142245,0.7199853587115667
1418,0.004831185579994156,0.7199853587115667
1419,0.004831185579994156,0.7202598828696926
1420,0.004841261045228764,0.7202598828696926
1421,0.004841261045228764,0.7204428989751098
1422,0.004846298777846067,0.7204428989751098
1423,0.004846298777846067,0.7206259150805271
1424,0.004851336510463371,0.7206259150805271
1425,0.004851336510463371,0.7208089311859444
1426,0.004856374243080675,0.7208089311859444
1427,0.004856374243080675,0.720900439238653
1428,0.004861411975697978,0.720900439238653
1429,0.004861411975697978,0.7210834553440703
1430,0.0048664497083152815,0.7210834553440703
1431,0.0048664497083152815,0.7214494875549048
1432,0.004881562906167192,0.7214494875549048
1433,0.004881562906167192,0.7215409956076134
1434,0.004886600638784496,0.7215409956076134
1435,0.004886600638784496,0.7216325036603221
1436,0.004891638371401799,0.7216325036603221
1437,0.004891638371401799,0.7218155197657394
1438,0.004901713836636407,0.7218155197657394
1439,0.004901713836636407,0.7219985358711567
1440,0.00490675156925371,0.7219985358711567
1441,0.00490675156925371,0.722181551976574
1442,0.004911789301871014,0.722181551976574
1443,0.004911789301871014,0.7222730600292826
1444,0.004916827034488317,0.7222730600292826
1445,0.004916827034488317,0.7224560761346999
1446,0.004921864767105621,0.7224560761346999
1447,0.004921864767105621,0.7225475841874085
1448,0.004926902499722925,0.7225475841874085
1449,0.004926902499722925,0.7231881405563689
1450,0.004931940232340228,0.7231881405563689
1451,0.004931940232340228,0.7232796486090776
1452,0.004936977964957532,0.7232796486090776
1453,0.004936977964957532,0.7235541727672035
1454,0.004942015697574836,0.7235541727672035
1455,0.004942015697574836,0.7237371888726208
1456,0.004947053430192139,0.7237371888726208
1457,0.004947053430192139,0.7238286969253295
1458,0.004952091162809443,0.7238286969253295
1459,0.004952091162809443,0.7244692532942899
1460,0.0049621666280440496,0.7244692532942899
1461,0.0049621666280440496,0.7245607613469985
1462,0.0049672043606613535,0.7245607613469985
1463,0.0049672043606613535,0.7248352855051244
1464,0.004972242093278657,0.7248352855051244
1465,0.004972242093278657,0.7249267935578331
1466,0.004987355291130568,0.7249267935578331
1467,0.004987355291130568,0.7250183016105417
1468,0.004997430756365175,0.7250183016105417
1469,0.004997430756365175,0.7251098096632503
1470,0.005022619419451693,0.7251098096632503
1471,0.005022619419451693,0.7252928257686676
1472,0.005032694884686301,0.7252928257686676
1473,0.005032694884686301,0.7254758418740849
1474,0.005037732617303604,0.7254758418740849
1475,0.005037732617303604,0.7255673499267935
1476,0.005042770349920908,0.7255673499267935
1477,0.005042770349920908,0.7257503660322109
1478,0.0050478080825382115,0.7257503660322109
1479,0.0050478080825382115,0.7258418740849195
1480,0.005067959013007425,0.7258418740849195
1481,0.005067959013007425,0.7259333821376281
1482,0.005072996745624729,0.7259333821376281
1483,0.005072996745624729,0.7261163982430454
1484,0.005078034478242033,0.7261163982430454
1485,0.005078034478242033,0.7265739385065886
1486,0.005108260873945855,0.7265739385065886
1487,0.005108260873945855,0.7266654465592972
1488,0.005118336339180462,0.7266654465592972
1489,0.005118336339180462,0.7267569546120058
1490,0.005123374071797766,0.7267569546120058
1491,0.005123374071797766,0.7270314787701317
1492,0.005128411804415069,0.7270314787701317
1493,0.005128411804415069,0.7271229868228404
1494,0.0051384872696496765,0.7271229868228404
1495,0.0051384872696496765,0.7273060029282576
1496,0.005153600467501587,0.7273060029282576
1497,0.005153600467501587,0.7273975109809663
1498,0.005163675932736194,0.7273975109809663
1499,0.005163675932736194,0.7274890190336749
1500,0.005168713665353498,0.7274890190336749
1501,0.005168713665353498,0.7275805270863837
1502,0.005173751397970801,0.7275805270863837
1503,0.005173751397970801,0.7277635431918009
1504,0.005178789130588105,0.7277635431918009
1505,0.005178789130588105,0.7279465592972182
1506,0.005188864595822712,0.7279465592972182
1507,0.005188864595822712,0.7280380673499268
1508,0.005219090991526534,0.7280380673499268
1509,0.005219090991526534,0.72849560761347
1510,0.0052342041893784445,0.72849560761347
1511,0.0052342041893784445,0.7285871156661786
1512,0.005239241921995748,0.7285871156661786
1513,0.005239241921995748,0.7288616398243045
1514,0.005244279654613051,0.7288616398243045
1515,0.005244279654613051,0.729227672035139
1516,0.005264430585082266,0.729227672035139
1517,0.005264430585082266,0.7294106881405563
1518,0.00526946831769957,0.7294106881405563
1519,0.00526946831769957,0.7295021961932651
1520,0.005279543782934177,0.7295021961932651
1521,0.005279543782934177,0.7295937042459737
1522,0.005284581515551481,0.7295937042459737
1523,0.005284581515551481,0.7298682284040996
1524,0.005289619248168784,0.7298682284040996
1525,0.005289619248168784,0.7299597364568082
1526,0.005309770178637999,0.7299597364568082
1527,0.005309770178637999,0.7300512445095169
1528,0.0053198456438726055,0.7300512445095169
1529,0.0053198456438726055,0.7303257686676428
1530,0.005334958841724516,0.7303257686676428
1531,0.005334958841724516,0.73050878477306
1532,0.005345034306959124,0.73050878477306
1533,0.005345034306959124,0.7306918008784773
1534,0.005350072039576427,0.7306918008784773
1535,0.005350072039576427,0.7310578330893118
1536,0.005370222970045642,0.7310578330893118
1537,0.005370222970045642,0.7313323572474377
1538,0.005380298435280249,0.7313323572474377
1539,0.005380298435280249,0.7314238653001464
1540,0.005385336167897553,0.7314238653001464
1541,0.005385336167897553,0.7316068814055637
1542,0.00539541163313216,0.7316068814055637
1543,0.00539541163313216,0.731789897510981
1544,0.005400449365749464,0.731789897510981
1545,0.005400449365749464,0.7318814055636896
1546,0.0054054870983667675,0.7318814055636896
1547,0.0054054870983667675,0.7319729136163983
1548,0.0054105248309840705,0.7319729136163983
1549,0.0054105248309840705,0.7320644216691069
1550,0.005420600296218678,0.7320644216691069
1551,0.005420600296218678,0.7321559297218155
1552,0.005425638028835981,0.7321559297218155
1553,0.005425638028835981,0.7322474377745242
1554,0.005435713494070589,0.7322474377745242
1555,0.005435713494070589,0.7324304538799414
1556,0.005440751226687892,0.7324304538799414
1557,0.005440751226687892,0.732796486090776
1558,0.005450826691922499,0.732796486090776
1559,0.005450826691922499,0.7329795021961932
1560,0.00546593988977441,0.7329795021961932
1561,0.00546593988977441,0.7333455344070278
1562,0.005476015355009018,0.7333455344070278
1563,0.005476015355009018,0.733803074670571
1564,0.005486090820243625,0.733803074670571
1565,0.005486090820243625,0.7338945827232797
1566,0.005506241750712839,0.7338945827232797
1567,0.005506241750712839,0.7346266471449487
1568,0.005511279483330142,0.7346266471449487
1569,0.005511279483330142,0.7351756954612005
1570,0.00552135494856475,0.7351756954612005
1571,0.00552135494856475,0.7352672035139092
1572,0.005531430413799357,0.7352672035139092
1573,0.005531430413799357,0.7354502196193266
1574,0.005541505879033964,0.7354502196193266
1575,0.005541505879033964,0.7355417276720352
1576,0.005561656809503179,0.7355417276720352
1577,0.005561656809503179,0.736090775988287
1578,0.0055918832052070004,0.736090775988287
1579,0.0055918832052070004,0.7361822840409956
1580,0.005606996403058911,0.7361822840409956
1581,0.005606996403058911,0.7366398243045388
1582,0.005612034135676215,0.7366398243045388
1583,0.005612034135676215,0.7367313323572474
1584,0.005622109600910822,0.7367313323572474
1585,0.005622109600910822,0.7369143484626647
1586,0.005627147333528126,0.7369143484626647
1587,0.005627147333528126,0.7370058565153733
1588,0.005632185066145429,0.7370058565153733
1589,0.005632185066145429,0.7371888726207906
1590,0.005637222798762733,0.7371888726207906
1591,0.005637222798762733,0.7376464128843339
1592,0.005642260531380037,0.7376464128843339
1593,0.005642260531380037,0.7377379209370425
1594,0.005652335996614644,0.7377379209370425
1595,0.005652335996614644,0.738103953147877
1596,0.005657373729231948,0.738103953147877
1597,0.005657373729231948,0.7383784773060029
1598,0.005667449194466555,0.7383784773060029
1599,0.005667449194466555,0.7384699853587116
1600,0.005687600124935769,0.7384699853587116
1601,0.005687600124935769,0.7385614934114202
1602,0.005697675590170376,0.7385614934114202
1603,0.005697675590170376,0.7392020497803806
1604,0.00570271332278768,0.7392020497803806
1605,0.00570271332278768,0.7395680819912153
1606,0.005722864253256894,0.7395680819912153
1607,0.005722864253256894,0.7396595900439239
1608,0.005727901985874198,0.7396595900439239
1609,0.005727901985874198,0.7397510980966325
1610,0.005732939718491501,0.7397510980966325
1611,0.005732939718491501,0.7400256222547584
1612,0.005743015183726109,0.7400256222547584
1613,0.005743015183726109,0.7402086383601757
1614,0.005763166114195323,0.7402086383601757
1615,0.005763166114195323,0.7403001464128843
1616,0.005783317044664537,0.7403001464128843
1617,0.005783317044664537,0.740391654465593
1618,0.005788354777281841,0.740391654465593
1619,0.005788354777281841,0.7404831625183016
1620,0.005793392509899144,0.7404831625183016
1621,0.005793392509899144,0.7406661786237189
1622,0.005798430242516448,0.7406661786237189
1623,0.005798430242516448,0.7412152269399708
1624,0.005803467975133752,0.7412152269399708
1625,0.005803467975133752,0.7413067349926794
1626,0.005808505707751055,0.7413067349926794
1627,0.005808505707751055,0.741398243045388
1628,0.005818581172985663,0.741398243045388
1629,0.005818581172985663,0.7417642752562226
1630,0.005823618905602966,0.7417642752562226
1631,0.005823618905602966,0.7422218155197657
1632,0.005833694370837574,0.7422218155197657
1633,0.005833694370837574,0.7424963396778916
1634,0.0058488075686894845,0.7424963396778916
1635,0.0058488075686894845,0.7425878477306003
1636,0.0058538453013067876,0.7425878477306003
1637,0.0058538453013067876,0.7426793557833089
1638,0.0058588830339240915,0.7426793557833089
1639,0.0058588830339240915,0.7427708638360175
1640,0.005879033964393306,0.7427708638360175
1641,0.005879033964393306,0.7431368960468521
1642,0.005889109429627913,0.7431368960468521
1643,0.005889109429627913,0.7432284040995608
1644,0.005904222627479824,0.7432284040995608
1645,0.005904222627479824,0.7433199121522694
1646,0.005919335825331735,0.7433199121522694
1647,0.005919335825331735,0.743685944363104
1648,0.005924373557949039,0.743685944363104
1649,0.005924373557949039,0.7437774524158126
1650,0.0059394867558009495,0.7437774524158126
1651,0.0059394867558009495,0.7439604685212299
1652,0.00595459995365286,0.7439604685212299
1653,0.00595459995365286,0.7440519765739385
1654,0.005959637686270163,0.7440519765739385
1655,0.005959637686270163,0.7443265007320644
1656,0.005969713151504771,0.7443265007320644
1657,0.005969713151504771,0.7445095168374817
1658,0.005984826349356681,0.7445095168374817
1659,0.005984826349356681,0.7446925329428989
1660,0.005989864081973985,0.7446925329428989
1661,0.005989864081973985,0.7448755490483162
1662,0.005994901814591289,0.7448755490483162
1663,0.005994901814591289,0.7450585651537335
1664,0.005999939547208592,0.7450585651537335
1665,0.005999939547208592,0.7453330893118595
1666,0.0060100150124432,0.7453330893118595
1667,0.0060100150124432,0.7454245973645681
1668,0.006015052745060503,0.7454245973645681
1669,0.006015052745060503,0.7456076134699854
1670,0.006020090477677807,0.7456076134699854
1671,0.006020090477677807,0.7458821376281113
1672,0.006025128210295111,0.7458821376281113
1673,0.006025128210295111,0.7459736456808199
1674,0.006030165942912414,0.7459736456808199
1675,0.006030165942912414,0.7461566617862372
1676,0.006040241408147021,0.7461566617862372
1677,0.006040241408147021,0.7465226939970717
1678,0.006045279140764324,0.7465226939970717
1679,0.006045279140764324,0.7466142020497804
1680,0.006070467803850843,0.7466142020497804
1681,0.006070467803850843,0.7469802342606149
1682,0.006075505536468146,0.7469802342606149
1683,0.006075505536468146,0.7470717423133236
1684,0.006090618734320057,0.7470717423133236
1685,0.006090618734320057,0.7471632503660323
1686,0.006095656466937361,0.7471632503660323
1687,0.006095656466937361,0.7472547584187409
1688,0.006100694199554665,0.7472547584187409
1689,0.006100694199554665,0.7473462664714495
1690,0.006110769664789272,0.7473462664714495
1691,0.006110769664789272,0.7474377745241582
1692,0.0061258828626411825,0.7474377745241582
1693,0.0061258828626411825,0.7475292825768668
1694,0.006130920595258486,0.7475292825768668
1695,0.006130920595258486,0.7476207906295754
1696,0.006140996060493093,0.7476207906295754
1697,0.006140996060493093,0.7478953147877013
1698,0.006156109258345004,0.7478953147877013
1699,0.006156109258345004,0.7481698389458272
1700,0.006166184723579611,0.7481698389458272
1701,0.006166184723579611,0.7482613469985359
1702,0.006176260188814219,0.7482613469985359
1703,0.006176260188814219,0.7484443631039531
1704,0.006186335654048826,0.7484443631039531
1705,0.006186335654048826,0.7485358711566618
1706,0.006201448851900737,0.7485358711566618
1707,0.006201448851900737,0.748718887262079
1708,0.006226637514987254,0.748718887262079
1709,0.006226637514987254,0.7489934114202049
1710,0.006246788445456469,0.7489934114202049
1711,0.006246788445456469,0.7490849194729137
1712,0.006256863910691076,0.7490849194729137
1713,0.006256863910691076,0.7491764275256223
1714,0.00626190164330838,0.7491764275256223
1715,0.00626190164330838,0.7493594436310396
1716,0.006266939375925683,0.7493594436310396
1717,0.006266939375925683,0.7497254758418741
1718,0.006271977108542987,0.7497254758418741
1719,0.006271977108542987,0.75
1720,0.006287090306394898,0.75
1721,0.006287090306394898,0.7500915080527086
1722,0.0063022035042468085,0.7500915080527086
1723,0.0063022035042468085,0.7502745241581259
1724,0.0063122789694814154,0.7502745241581259
1725,0.0063122789694814154,0.7507320644216691
1726,0.006317316702098719,0.7507320644216691
1727,0.006317316702098719,0.7509150805270863
1728,0.006322354434716023,0.7509150805270863
1729,0.006322354434716023,0.751281112737921
1730,0.00633242989995063,0.751281112737921
1731,0.00633242989995063,0.7517386530014641
1732,0.006337467632567934,0.7517386530014641
1733,0.006337467632567934,0.7518301610541728
1734,0.006342505365185237,0.7518301610541728
1735,0.006342505365185237,0.75201317715959
1736,0.006372731760889059,0.75201317715959
1737,0.006372731760889059,0.7524707174231332
1738,0.0063828072261236666,0.7524707174231332
1739,0.0063828072261236666,0.7526537335285505
1740,0.0063928826913582735,0.7526537335285505
1741,0.0063928826913582735,0.7527452415812591
1742,0.00640295815659288,0.7527452415812591
1743,0.00640295815659288,0.7528367496339677
1744,0.006407995889210184,0.7528367496339677
1745,0.006407995889210184,0.7529282576866764
1746,0.006413033621827488,0.7529282576866764
1747,0.006413033621827488,0.7530197657393851
1748,0.006423109087062095,0.7530197657393851
1749,0.006423109087062095,0.7532027818448024
1750,0.006428146819679399,0.7532027818448024
1751,0.006428146819679399,0.753294289897511
1752,0.006433184552296702,0.753294289897511
1753,0.006433184552296702,0.7535688140556369
1754,0.006438222284914006,0.7535688140556369
1755,0.006438222284914006,0.7537518301610542
1756,0.006458373215383221,0.7537518301610542
1757,0.006458373215383221,0.7538433382137628
1758,0.006463410948000524,0.7538433382137628
1759,0.006463410948000524,0.7539348462664714
1760,0.006468448680617828,0.7539348462664714
1761,0.006468448680617828,0.7542093704245973
1762,0.006503712808938953,0.7542093704245973
1763,0.006503712808938953,0.7543923865300146
1764,0.006508750541556256,0.7543923865300146
1765,0.006508750541556256,0.7545754026354319
1766,0.00651378827417356,0.7545754026354319
1767,0.00651378827417356,0.7547584187408491
1768,0.006518826006790863,0.7547584187408491
1769,0.006518826006790863,0.7548499267935578
1770,0.006523863739408167,0.7548499267935578
1771,0.006523863739408167,0.7549414348462665
1772,0.006528901472025471,0.7549414348462665
1773,0.006528901472025471,0.7550329428989752
1774,0.006533939204642774,0.7550329428989752
1775,0.006533939204642774,0.7551244509516838
1776,0.006538976937260078,0.7551244509516838
1777,0.006538976937260078,0.7553074670571011
1778,0.006549052402494685,0.7553074670571011
1779,0.006549052402494685,0.7553989751098097
1780,0.006554090135111989,0.7553989751098097
1781,0.006554090135111989,0.7556734992679356
1782,0.006574241065581203,0.7556734992679356
1783,0.006574241065581203,0.7557650073206442
1784,0.0065792787981985065,0.7557650073206442
1785,0.0065792787981985065,0.7559480234260615
1786,0.006614542926519632,0.7559480234260615
1787,0.006614542926519632,0.7564055636896047
1788,0.006619580659136936,0.7564055636896047
1789,0.006619580659136936,0.7564970717423133
1790,0.006634693856988847,0.7564970717423133
1791,0.006634693856988847,0.7565885797950219
1792,0.006654844787458061,0.7565885797950219
1793,0.006654844787458061,0.7569546120058566
1794,0.006669957985309971,0.7569546120058566
1795,0.006669957985309971,0.7570461200585652
1796,0.006680033450544579,0.7570461200585652
1797,0.006680033450544579,0.7571376281112738
1798,0.006690108915779186,0.7571376281112738
1799,0.006690108915779186,0.7572291361639825
1800,0.006700184381013793,0.7572291361639825
1801,0.006700184381013793,0.7574121522693997
1802,0.006705222113631097,0.7574121522693997
1803,0.006705222113631097,0.757595168374817
1804,0.006710259846248401,0.757595168374817
1805,0.006710259846248401,0.7577781844802343
1806,0.006720335311483008,0.7577781844802343
1807,0.006720335311483008,0.7580527086383602
1808,0.006730410776717615,0.7580527086383602
1809,0.006730410776717615,0.7582357247437774
1810,0.006745523974569526,0.7582357247437774
1811,0.006745523974569526,0.7583272327964861
1812,0.006755599439804133,0.7583272327964861
1813,0.006755599439804133,0.7587847730600292
1814,0.006770712637656044,0.7587847730600292
1815,0.006770712637656044,0.758876281112738
1816,0.006780788102890651,0.758876281112738
1817,0.006780788102890651,0.7589677891654466
1818,0.006790863568125258,0.7589677891654466
1819,0.006790863568125258,0.7590592972181552
1820,0.006811014498594473,0.7590592972181552
1821,0.006811014498594473,0.7594253294289898
1822,0.00682108996382908,0.7594253294289898
1823,0.00682108996382908,0.759608345534407
1824,0.006851316359532901,0.759608345534407
1825,0.006851316359532901,0.7596998535871157
1826,0.006861391824767508,0.7596998535871157
1827,0.006861391824767508,0.7597913616398243
1828,0.006871467290002116,0.7597913616398243
1829,0.006871467290002116,0.7598828696925329
1830,0.006876505022619419,0.7598828696925329
1831,0.006876505022619419,0.7600658857979502
1832,0.00689161822047133,0.7600658857979502
1833,0.00689161822047133,0.7604319180087847
1834,0.006896655953088634,0.7604319180087847
1835,0.006896655953088634,0.7605234260614934
1836,0.006901693685705938,0.7605234260614934
1837,0.006901693685705938,0.7609809663250366
1838,0.006911769150940545,0.7609809663250366
1839,0.006911769150940545,0.7610724743777453
1840,0.006916806883557849,0.7610724743777453
1841,0.006916806883557849,0.7613469985358712
1842,0.0069268823487924555,0.7613469985358712
1843,0.0069268823487924555,0.7614385065885798
1844,0.0069369578140270624,0.7614385065885798
1845,0.0069369578140270624,0.7616215226939971
1846,0.006941995546644366,0.7616215226939971
1847,0.006941995546644366,0.7617130307467057
1848,0.00694703327926167,0.7617130307467057
1849,0.00694703327926167,0.7618045387994143
1850,0.006957108744496277,0.7618045387994143
1851,0.006957108744496277,0.7619875549048316
1852,0.006962146477113581,0.7619875549048316
1853,0.006962146477113581,0.7622620790629575
1854,0.006972221942348188,0.7622620790629575
1855,0.006972221942348188,0.762628111273792
1856,0.006982297407582795,0.762628111273792
1857,0.006982297407582795,0.7627196193265008
1858,0.00700244833805201,0.7627196193265008
1859,0.00700244833805201,0.7629941434846267
1860,0.007022599268521224,0.7629941434846267
1861,0.007022599268521224,0.763177159590044
1862,0.007047787931607742,0.763177159590044
1863,0.007047787931607742,0.7632686676427526
1864,0.007052825664225045,0.7632686676427526
1865,0.007052825664225045,0.7633601756954612
1866,0.007057863396842349,0.7633601756954612
1867,0.007057863396842349,0.7636346998535871
1868,0.007062901129459653,0.7636346998535871
1869,0.007062901129459653,0.7637262079062958
1870,0.007067938862076956,0.7637262079062958
1871,0.007067938862076956,0.763909224011713
1872,0.007078014327311564,0.763909224011713
1873,0.007078014327311564,0.7640922401171303
1874,0.007083052059928867,0.7640922401171303
1875,0.007083052059928867,0.7642752562225475
1876,0.007088089792546171,0.7642752562225475
1877,0.007088089792546171,0.7643667642752562
1878,0.007098165257780778,0.7643667642752562
1879,0.007098165257780778,0.7644582723279648
1880,0.0071132784556326885,0.7644582723279648
1881,0.0071132784556326885,0.7645497803806734
1882,0.007118316188249992,0.7645497803806734
1883,0.007118316188249992,0.7646412884333821
1884,0.007123353920867296,0.7646412884333821
1885,0.007123353920867296,0.7648243045387995
1886,0.007153580316571118,0.7648243045387995
1887,0.007153580316571118,0.7650988286969254
1888,0.007158618049188421,0.7650988286969254
1889,0.007158618049188421,0.765190336749634
1890,0.007168693514423029,0.765190336749634
1891,0.007168693514423029,0.7655563689604685
1892,0.007173731247040332,0.7655563689604685
1893,0.007173731247040332,0.7657393850658858
1894,0.007178768979657636,0.7657393850658858
1895,0.007178768979657636,0.7658308931185944
1896,0.007188844444892243,0.7658308931185944
1897,0.007188844444892243,0.7661054172767203
1898,0.007234184038447975,0.7661054172767203
1899,0.007234184038447975,0.7662884333821376
1900,0.007259372701534494,0.7662884333821376
1901,0.007259372701534494,0.7663799414348462
1902,0.007269448166769101,0.7663799414348462
1903,0.007269448166769101,0.7664714494875549
1904,0.007279523632003708,0.7664714494875549
1905,0.007279523632003708,0.7665629575402635
1906,0.0072845613646210115,0.7665629575402635
1907,0.0072845613646210115,0.7666544655929722
1908,0.007299674562472922,0.7666544655929722
1909,0.007299674562472922,0.7667459736456809
1910,0.00732486322555944,0.7667459736456809
1911,0.00732486322555944,0.7670204978038068
1912,0.007334938690794047,0.7670204978038068
1913,0.007334938690794047,0.767203513909224
1914,0.007339976423411351,0.767203513909224
1915,0.007339976423411351,0.7672950219619327
1916,0.007345014156028655,0.7672950219619327
1917,0.007345014156028655,0.7673865300146413
1918,0.007350051888645958,0.7673865300146413
1919,0.007350051888645958,0.7674780380673499
1920,0.007355089621263262,0.7674780380673499
1921,0.007355089621263262,0.7677525622254758
1922,0.007370202819115173,0.7677525622254758
1923,0.007370202819115173,0.7678440702781845
1924,0.0073752405517324765,0.7678440702781845
1925,0.0073752405517324765,0.7681185944363104
1926,0.0073802782843497795,0.7681185944363104
1927,0.0073802782843497795,0.768210102489019
1928,0.007390353749584387,0.768210102489019
1929,0.007390353749584387,0.7685761346998536
1930,0.00739539148220169,0.7685761346998536
1931,0.00739539148220169,0.7689421669106882
1932,0.007410504680053601,0.7689421669106882
1933,0.007410504680053601,0.7691251830161054
1934,0.007420580145288209,0.7691251830161054
1935,0.007420580145288209,0.7693081991215227
1936,0.007430655610522816,0.7693081991215227
1937,0.007430655610522816,0.7693997071742313
1938,0.007445768808374727,0.7693997071742313
1939,0.007445768808374727,0.7695827232796486
1940,0.007450806540992031,0.7695827232796486
1941,0.007450806540992031,0.7696742313323572
1942,0.0074659197388439414,0.7696742313323572
1943,0.0074659197388439414,0.7700402635431918
1944,0.007475995204078548,0.7700402635431918
1945,0.007475995204078548,0.770223279648609
1946,0.007481032936695852,0.770223279648609
1947,0.007481032936695852,0.7704978038067349
1948,0.007486070669313155,0.7704978038067349
1949,0.007486070669313155,0.7705893118594437
1950,0.007491108401930459,0.7705893118594437
1951,0.007491108401930459,0.7706808199121523
1952,0.007496146134547763,0.7706808199121523
1953,0.007496146134547763,0.770772327964861
1954,0.007501183867165066,0.770772327964861
1955,0.007501183867165066,0.7708638360175696
1956,0.007516297065016977,0.7708638360175696
1957,0.007516297065016977,0.7709553440702782
1958,0.007536447995486192,0.7709553440702782
1959,0.007536447995486192,0.7710468521229868
1960,0.007541485728103496,0.7710468521229868
1961,0.007541485728103496,0.7711383601756955
1962,0.0075515611933381025,0.7711383601756955
1963,0.007556598925955406,0.7711383601756955
1964,0.007556598925955406,0.7712298682284041
1965,0.00757674985642462,0.7712298682284041
1966,0.00757674985642462,0.7714128843338214
1967,0.007581787589041924,0.7714128843338214
1968,0.007581787589041924,0.77150439238653
1969,0.007591863054276531,0.77150439238653
1970,0.007591863054276531,0.7715959004392386
1971,0.007596900786893835,0.7715959004392386
1972,0.007596900786893835,0.7717789165446559
1973,0.007601938519511138,0.7717789165446559
1974,0.007601938519511138,0.7721449487554904
1975,0.007612013984745746,0.7721449487554904
1976,0.007612013984745746,0.7722364568081991
1977,0.007617051717363049,0.7722364568081991
1978,0.007617051717363049,0.7724194729136163
1979,0.007627127182597657,0.7724194729136163
1980,0.007627127182597657,0.7725109809663251
1981,0.00763216491521496,0.7725109809663251
1982,0.00763216491521496,0.7729685212298683
1983,0.007677504508770692,0.7729685212298683
1984,0.007677504508770692,0.7730600292825769
1985,0.007697655439239907,0.7730600292825769
1986,0.007697655439239907,0.7731515373352855
1987,0.007712768637091818,0.7731515373352855
1988,0.007712768637091818,0.7732430453879942
1989,0.0077278818349437286,0.7732430453879942
1990,0.0077278818349437286,0.7733345534407028
1991,0.0077329195675610325,0.7733345534407028
1992,0.0077329195675610325,0.7734260614934114
1993,0.0077379573001783355,0.7734260614934114
1994,0.0077379573001783355,0.773792093704246
1995,0.007742995032795639,0.773792093704246
1996,0.007742995032795639,0.7738836017569546
1997,0.007748032765412943,0.7738836017569546
1998,0.007748032765412943,0.7742496339677891
1999,0.007753070498030246,0.7742496339677891
2000,0.007753070498030246,0.7744326500732065
2001,0.00775810823064755,0.7744326500732065
2002,0.00775810823064755,0.774798682284041
2003,0.007763145963264854,0.774798682284041
2004,0.007763145963264854,0.7753477306002928
2005,0.007768183695882157,0.7753477306002928
2006,0.007768183695882157,0.7754392386530015
2007,0.007793372358968676,0.7754392386530015
2008,0.007793372358968676,0.7757137628111274
2009,0.007798410091585979,0.7757137628111274
2010,0.007798410091585979,0.775805270863836
2011,0.007808485556820587,0.775805270863836
2012,0.007808485556820587,0.7758967789165446
2013,0.00781352328943789,0.7758967789165446
2014,0.00781352328943789,0.7760797950219619
2015,0.0078286364872898,0.7760797950219619
2016,0.0078286364872898,0.7761713030746705
2017,0.00786893834822823,0.7761713030746705
2018,0.00786893834822823,0.7763543191800878
2019,0.007873976080845533,0.7763543191800878
2020,0.007873976080845533,0.7764458272327965
2021,0.007914277941783962,0.7764458272327965
2022,0.007914277941783962,0.7766288433382138
2023,0.007929391139635873,0.7766288433382138
2024,0.007929391139635873,0.7768118594436311
2025,0.00795457980272239,0.7768118594436311
2026,0.00795457980272239,0.7769033674963397
2027,0.007969693000574301,0.7769033674963397
2028,0.007969693000574301,0.7769948755490483
2029,0.007979768465808909,0.7769948755490483
2030,0.007979768465808909,0.777086383601757
2031,0.008004957128895427,0.777086383601757
2032,0.008004957128895427,0.7771778916544656
2033,0.00800999486151273,0.7771778916544656
2034,0.00800999486151273,0.7772693997071742
2035,0.008020070326747338,0.7772693997071742
2036,0.008020070326747338,0.7773609077598829
2037,0.008025108059364641,0.7773609077598829
2038,0.008025108059364641,0.7774524158125915
2039,0.00805029672245116,0.7774524158125915
2040,0.00805029672245116,0.7775439238653001
2041,0.008070447652920374,0.7775439238653001
2042,0.008070447652920374,0.7776354319180088
2043,0.008090598583389588,0.7776354319180088
2044,0.008090598583389588,0.7777269399707174
2045,0.008110749513858803,0.7777269399707174
2046,0.008110749513858803,0.777818448023426
2047,0.008130900444328017,0.777818448023426
2048,0.008130900444328017,0.7779099560761347
2049,0.00817624003788375,0.7779099560761347
2050,0.00817624003788375,0.7780014641288433
2051,0.008181277770501053,0.7780014641288433
2052,0.008181277770501053,0.7781844802342606
2053,0.008221579631439482,0.7781844802342606
2054,0.008221579631439482,0.7784590043923866
2055,0.008226617364056785,0.7784590043923866
2056,0.008226617364056785,0.7785505124450952
2057,0.008241730561908696,0.7785505124450952
2058,0.008241730561908696,0.7786420204978038
2059,0.008251806027143304,0.7786420204978038
2060,0.008251806027143304,0.7787335285505125
2061,0.00826188149237791,0.7787335285505125
2062,0.00826188149237791,0.7789165446559297
2063,0.008271956957612518,0.7789165446559297
2064,0.008271956957612518,0.7790080527086384
2065,0.00827699469022982,0.7790080527086384
2066,0.00827699469022982,0.779099560761347
2067,0.008282032422847125,0.779099560761347
2068,0.008282032422847125,0.7791910688140556
2069,0.008297145620699036,0.7791910688140556
2070,0.008297145620699036,0.7793740849194729
2071,0.008307221085933642,0.7793740849194729
2072,0.008307221085933642,0.7794655929721815
2073,0.008312258818550947,0.7794655929721815
2074,0.008312258818550947,0.7795571010248902
2075,0.00831729655116825,0.7795571010248902
2076,0.00831729655116825,0.7799231332357247
2077,0.008327372016402858,0.7799231332357247
2078,0.008327372016402858,0.780106149341142
2079,0.008362636144723982,0.780106149341142
2080,0.008362636144723982,0.7801976573938506
2081,0.008367673877341286,0.7801976573938506
2082,0.008367673877341286,0.7802891654465594
2083,0.00837271160995859,0.7802891654465594
2084,0.00837271160995859,0.780380673499268
2085,0.008377749342575893,0.780380673499268
2086,0.008377749342575893,0.7804721815519766
2087,0.008392862540427804,0.7804721815519766
2088,0.008392862540427804,0.7805636896046853
2089,0.008402938005662412,0.7805636896046853
2090,0.008402938005662412,0.7807467057101025
2091,0.008413013470897018,0.7807467057101025
2092,0.008413013470897018,0.7809297218155198
2093,0.008418051203514323,0.7809297218155198
2094,0.008418051203514323,0.781112737920937
2095,0.008453315331835447,0.781112737920937
2096,0.008453315331835447,0.7812957540263543
2097,0.008463390797070055,0.7812957540263543
2098,0.008463390797070055,0.781387262079063
2099,0.008478503994921966,0.781387262079063
2100,0.008478503994921966,0.7814787701317716
2101,0.008523843588477699,0.7814787701317716
2102,0.008523843588477699,0.7817532942898975
2103,0.008533919053712305,0.7817532942898975
2104,0.008533919053712305,0.7818448023426061
2105,0.008549032251564215,0.7818448023426061
2106,0.008549032251564215,0.7819363103953147
2107,0.008559107716798823,0.7819363103953147
2108,0.008559107716798823,0.7820278184480234
2109,0.008564145449416126,0.7820278184480234
2110,0.008564145449416126,0.782119326500732
2111,0.008574220914650734,0.782119326500732
2112,0.008574220914650734,0.7822108345534406
2113,0.008594371845119948,0.7822108345534406
2114,0.008594371845119948,0.7823023426061494
2115,0.008604447310354556,0.7823023426061494
2116,0.008604447310354556,0.782393850658858
2117,0.008619560508206467,0.782393850658858
2118,0.008619560508206467,0.7824853587115667
2119,0.008629635973441074,0.7824853587115667
2120,0.008629635973441074,0.7825768667642753
2121,0.008634673706058377,0.7825768667642753
2122,0.008634673706058377,0.7826683748169839
2123,0.008659862369144896,0.7826683748169839
2124,0.008659862369144896,0.7828513909224012
2125,0.008685051032231413,0.7828513909224012
2126,0.008685051032231413,0.7829428989751098
2127,0.008700164230083324,0.7829428989751098
2128,0.008700164230083324,0.783400439238653
2129,0.008705201962700629,0.783400439238653
2130,0.008705201962700629,0.7834919472913616
2131,0.008710239695317932,0.7834919472913616
2132,0.008710239695317932,0.7837664714494875
2133,0.00872031516055254,0.7837664714494875
2134,0.00872031516055254,0.7838579795021962
2135,0.008725352893169842,0.7838579795021962
2136,0.008725352893169842,0.7839494875549048
2137,0.008730390625787145,0.7839494875549048
2138,0.008730390625787145,0.7840409956076134
2139,0.008740466091021753,0.7840409956076134
2140,0.008740466091021753,0.7841325036603221
2141,0.008760617021490967,0.7841325036603221
2142,0.008760617021490967,0.7842240117130308
2143,0.008765654754108272,0.7842240117130308
2144,0.008765654754108272,0.7843155197657394
2145,0.008775730219342878,0.7843155197657394
2146,0.008775730219342878,0.7844070278184481
2147,0.00882106981289861,0.7844070278184481
2148,0.00882106981289861,0.7844985358711567
2149,0.008831145278133218,0.7844985358711567
2150,0.008831145278133218,0.7845900439238653
2151,0.00886137167383704,0.7845900439238653
2152,0.00886137167383704,0.784681551976574
2153,0.008881522604306254,0.784681551976574
2154,0.008881522604306254,0.7847730600292826
2155,0.008891598069540861,0.7847730600292826
2156,0.008891598069540861,0.7848645680819912
2157,0.008901673534775468,0.7848645680819912
2158,0.008901673534775468,0.7849560761346999
2159,0.00893189993047929,0.7849560761346999
2160,0.00893189993047929,0.7851390922401171
2161,0.008936937663096594,0.7851390922401171
2162,0.008936937663096594,0.7853221083455344
2163,0.0089470131283312,0.7853221083455344
2164,0.0089470131283312,0.7860541727672035
2165,0.008972201791417719,0.7860541727672035
2166,0.008972201791417719,0.7864202049780381
2167,0.008992352721886933,0.7864202049780381
2168,0.008992352721886933,0.7866032210834554
2169,0.008997390454504237,0.7866032210834554
2170,0.008997390454504237,0.7872437774524158
2171,0.009007465919738843,0.7872437774524158
2172,0.009007465919738843,0.7874267935578331
2173,0.009017541384973451,0.7874267935578331
2174,0.009017541384973451,0.787701317715959
2175,0.009022579117590754,0.787701317715959
2176,0.009022579117590754,0.7877928257686676
2177,0.009027616850208059,0.7877928257686676
2178,0.009027616850208059,0.7878843338213762
2179,0.009032654582825362,0.7878843338213762
2180,0.009032654582825362,0.7880673499267935
2181,0.009037692315442665,0.7880673499267935
2182,0.009037692315442665,0.7881588579795022
2183,0.009047767780677273,0.7881588579795022
2184,0.009047767780677273,0.7882503660322109
2185,0.00905784324591188,0.7882503660322109
2186,0.00905784324591188,0.7883418740849195
2187,0.009062880978529184,0.7883418740849195
2188,0.009062880978529184,0.7884333821376281
2189,0.009067918711146487,0.7884333821376281
2190,0.009067918711146487,0.7885248901903368
2191,0.009072956443763791,0.7885248901903368
2192,0.009072956443763791,0.7886163982430454
2193,0.009088069641615702,0.7886163982430454
2194,0.009088069641615702,0.788707906295754
2195,0.009098145106850308,0.788707906295754
2196,0.009098145106850308,0.7888909224011713
2197,0.009108220572084916,0.7888909224011713
2198,0.009108220572084916,0.7891654465592972
2199,0.009118296037319524,0.7891654465592972
2200,0.009118296037319524,0.7902635431918009
2201,0.009158597898257952,0.7902635431918009
2202,0.009158597898257952,0.7903550512445096
2203,0.009173711096109862,0.7903550512445096
2204,0.009173711096109862,0.7906295754026355
2205,0.009178748828727167,0.7906295754026355
2206,0.009178748828727167,0.7907210834553441
2207,0.00918378656134447,0.7907210834553441
2208,0.00918378656134447,0.7908125915080527
2209,0.009208975224430989,0.7908125915080527
2210,0.009208975224430989,0.7909040995607614
2211,0.009219050689665595,0.7909040995607614
2212,0.009219050689665595,0.79099560761347
2213,0.0092240884222829,0.79099560761347
2214,0.0092240884222829,0.7910871156661786
2215,0.009229126154900203,0.7910871156661786
2216,0.009229126154900203,0.7914531478770132
2217,0.009234163887517506,0.7914531478770132
2218,0.009234163887517506,0.7915446559297218
2219,0.009244239352752114,0.7915446559297218
2220,0.009244239352752114,0.7916361639824304
2221,0.009249277085369417,0.7916361639824304
2222,0.009249277085369417,0.791727672035139
2223,0.009269428015838632,0.791727672035139
2224,0.009269428015838632,0.7918191800878477
2225,0.009284541213690543,0.7918191800878477
2226,0.009284541213690543,0.7919106881405563
2227,0.009304692144159757,0.7919106881405563
2228,0.009304692144159757,0.7920021961932651
2229,0.009314767609394363,0.7920021961932651
2230,0.009314767609394363,0.7920937042459737
2231,0.009334918539863579,0.7920937042459737
2232,0.009334918539863579,0.792276720351391
2233,0.00935003173771549,0.792276720351391
2234,0.00935003173771549,0.7925512445095169
2235,0.009355069470332792,0.7925512445095169
2236,0.009355069470332792,0.7927342606149341
2237,0.009360107202950095,0.7927342606149341
2238,0.009360107202950095,0.7928257686676428
2239,0.009380258133419311,0.7928257686676428
2240,0.009380258133419311,0.7929172767203514
2241,0.009400409063888525,0.7929172767203514
2242,0.009400409063888525,0.79300878477306
2243,0.009420559994357739,0.79300878477306
2244,0.009420559994357739,0.7931918008784773
2245,0.009430635459592347,0.7931918008784773
2246,0.009430635459592347,0.7932833089311859
2247,0.00943567319220965,0.7932833089311859
2248,0.00943567319220965,0.7933748169838946
2249,0.009440710924826954,0.7933748169838946
2250,0.009440710924826954,0.7934663250366032
2251,0.009445748657444257,0.7934663250366032
2252,0.009445748657444257,0.7935578330893118
2253,0.009460861855296168,0.7935578330893118
2254,0.009460861855296168,0.7936493411420205
2255,0.009465899587913471,0.7936493411420205
2256,0.009465899587913471,0.7940153733528551
2257,0.009470937320530776,0.7941068814055637
2258,0.009470937320530776,0.7941983894582724
2259,0.009481012785765382,0.7941983894582724
2260,0.009481012785765382,0.7943814055636896
2261,0.009496125983617293,0.7943814055636896
2262,0.009496125983617293,0.7947474377745242
2263,0.009501163716234598,0.7947474377745242
2264,0.009501163716234598,0.7948389458272328
2265,0.0095062014488519,0.7948389458272328
2266,0.0095062014488519,0.7949304538799414
2267,0.009526352379321115,0.7949304538799414
2268,0.009526352379321115,0.7950219619326501
2269,0.009551541042407633,0.7950219619326501
2270,0.009551541042407633,0.7951134699853587
2271,0.009556578775024936,0.7951134699853587
2272,0.009556578775024936,0.7952049780380673
2273,0.009586805170728758,0.7952049780380673
2274,0.009586805170728758,0.795296486090776
2275,0.009591842903346063,0.795296486090776
2276,0.009591842903346063,0.7954795021961932
2277,0.009606956101197973,0.7954795021961932
2278,0.009606956101197973,0.7955710102489019
2279,0.009611993833815276,0.7955710102489019
2280,0.009611993833815276,0.7956625183016105
2281,0.009622069299049884,0.7956625183016105
2282,0.009622069299049884,0.7958455344070278
2283,0.00963214476428449,0.7958455344070278
2284,0.00963214476428449,0.7959370424597365
2285,0.009662371159988312,0.7959370424597365
2286,0.009662371159988312,0.7960285505124451
2287,0.009677484357840223,0.7960285505124451
2288,0.009677484357840223,0.7962115666178624
2289,0.009692597555692134,0.7962115666178624
2290,0.009692597555692134,0.796303074670571
2291,0.009732899416630563,0.796303074670571
2292,0.009732899416630563,0.7963945827232797
2293,0.009773201277568993,0.7963945827232797
2294,0.009773201277568993,0.7965775988286969
2295,0.009778239010186296,0.7965775988286969
2296,0.009778239010186296,0.7966691068814056
2297,0.009793352208038206,0.7966691068814056
2298,0.009793352208038206,0.7969436310395315
2299,0.009828616336359331,0.7969436310395315
2300,0.009828616336359331,0.7970351390922401
2301,0.009843729534211242,0.7970351390922401
2302,0.009843729534211242,0.7972181551976574
2303,0.009863880464680456,0.7972181551976574
2304,0.009863880464680456,0.7975841874084919
2305,0.009878993662532367,0.7975841874084919
2306,0.009878993662532367,0.7976756954612005
2307,0.009899144593001582,0.7976756954612005
2308,0.009899144593001582,0.7979502196193266
2309,0.009924333256088099,0.7979502196193266
2310,0.009924333256088099,0.7980417276720352
2311,0.009934408721322707,0.7980417276720352
2312,0.009934408721322707,0.7981332357247438
2313,0.009949521919174618,0.7981332357247438
2314,0.009949521919174618,0.7983162518301611
2315,0.009959597384409226,0.7983162518301611
2316,0.009959597384409226,0.7984992679355783
2317,0.009974710582261136,0.7984992679355783
2318,0.009974710582261136,0.7986822840409956
2319,0.010004936977964958,0.7986822840409956
2320,0.010004936977964958,0.7988653001464129
2321,0.010015012443199564,0.7988653001464129
2322,0.010015012443199564,0.7989568081991215
2323,0.010025087908434172,0.7989568081991215
2324,0.010025087908434172,0.7990483162518301
2325,0.01005027657152069,0.7990483162518301
2326,0.01005027657152069,0.7991398243045388
2327,0.010055314304137994,0.7991398243045388
2328,0.010055314304137994,0.799322840409956
2329,0.010075465234607207,0.799322840409956
2330,0.010075465234607207,0.7994143484626647
2331,0.010080502967224512,0.7994143484626647
2332,0.010080502967224512,0.7995058565153733
2333,0.010085540699841815,0.7995058565153733
2334,0.010085540699841815,0.799597364568082
2335,0.010105691630311029,0.799597364568082
2336,0.010105691630311029,0.7996888726207906
2337,0.010140955758632155,0.7996888726207906
2338,0.010140955758632155,0.7997803806734992
2339,0.010151031223866762,0.7997803806734992
2340,0.010151031223866762,0.8000549048316252
2341,0.01016110668910137,0.8000549048316252
2342,0.01016110668910137,0.8001464128843339
2343,0.010166144421718672,0.8001464128843339
2344,0.010166144421718672,0.8002379209370425
2345,0.010171182154335977,0.8002379209370425
2346,0.010171182154335977,0.8003294289897511
2347,0.010261861341447442,0.8003294289897511
2348,0.010261861341447442,0.8005124450951684
2349,0.010266899074064745,0.8005124450951684
2350,0.010266899074064745,0.800603953147877
2351,0.010271936806682048,0.800603953147877
2352,0.010271936806682048,0.8006954612005857
2353,0.010282012271916656,0.8006954612005857
2354,0.010282012271916656,0.8007869692532943
2355,0.010287050004533959,0.8007869692532943
2356,0.010287050004533959,0.8008784773060029
2357,0.010312238667620478,0.8008784773060029
2358,0.010312238667620478,0.8010614934114202
2359,0.01031727640023778,0.8010614934114202
2360,0.01031727640023778,0.8011530014641288
2361,0.0103424650633243,0.8011530014641288
2362,0.0103424650633243,0.8012445095168375
2363,0.010347502795941602,0.8012445095168375
2364,0.010347502795941602,0.8014275256222547
2365,0.010397880122114638,0.8014275256222547
2366,0.010397880122114638,0.8017020497803806
2367,0.010412993319966549,0.8017020497803806
2368,0.010412993319966549,0.801885065885798
2369,0.01044321971567037,0.801885065885798
2370,0.01044321971567037,0.8019765739385066
2371,0.010458332913522281,0.8019765739385066
2372,0.010458332913522281,0.8021595900439239
2373,0.010473446111374192,0.8021595900439239
2374,0.010473446111374192,0.8024341142020498
2375,0.0104835215766088,0.8024341142020498
2376,0.0104835215766088,0.8026171303074671
2377,0.01049863477446071,0.8026171303074671
2378,0.01049863477446071,0.8027086383601757
2379,0.010508710239695318,0.8027086383601757
2380,0.010508710239695318,0.802891654465593
2381,0.010513747972312621,0.802891654465593
2382,0.010513747972312621,0.8029831625183016
2383,0.01052382343754723,0.8029831625183016
2384,0.01052382343754723,0.8030746705710102
2385,0.010528861170164532,0.8030746705710102
2386,0.010528861170164532,0.8031661786237189
2387,0.010533898902781835,0.8031661786237189
2388,0.010533898902781835,0.8034407027818448
2389,0.010569163031102962,0.8034407027818448
2390,0.010569163031102962,0.803623718887262
2391,0.010589313961572176,0.803623718887262
2392,0.010589313961572176,0.8037152269399708
2393,0.010599389426806783,0.8037152269399708
2394,0.010599389426806783,0.8038067349926794
2395,0.010604427159424086,0.8038067349926794
2396,0.010604427159424086,0.8041727672035139
2397,0.01060946489204139,0.8041727672035139
2398,0.01060946489204139,0.8042642752562226
2399,0.010629615822510605,0.8042642752562226
2400,0.010629615822510605,0.8043557833089312
2401,0.010644729020362516,0.8043557833089312
2402,0.010644729020362516,0.8044472913616398
2403,0.010649766752979819,0.8044472913616398
2404,0.010649766752979819,0.8045387994143485
2405,0.01067999314868364,0.8045387994143485
2406,0.01067999314868364,0.8046303074670571
2407,0.010690068613918248,0.8046303074670571
2408,0.010690068613918248,0.804904831625183
2409,0.010715257277004765,0.804904831625183
2410,0.010715257277004765,0.8051793557833089
2411,0.01073540820747398,0.8051793557833089
2412,0.01073540820747398,0.8055453879941434
2413,0.010740445940091284,0.8055453879941434
2414,0.010740445940091284,0.8056368960468521
2415,0.010745483672708587,0.8056368960468521
2416,0.010745483672708587,0.8057284040995608
2417,0.010750521405325892,0.8057284040995608
2418,0.010750521405325892,0.8059114202049781
2419,0.010760596870560498,0.8059114202049781
2420,0.010760596870560498,0.8060029282576867
2421,0.01079082326626432,0.8060029282576867
2422,0.01079082326626432,0.806185944363104
2423,0.01080593646411623,0.806185944363104
2424,0.01080593646411623,0.8062774524158126
2425,0.010831125127202749,0.8062774524158126
2426,0.010831125127202749,0.8063689604685212
2427,0.010836162859820052,0.8063689604685212
2428,0.010836162859820052,0.8064604685212299
2429,0.010856313790289267,0.8064604685212299
2430,0.010856313790289267,0.8065519765739385
2431,0.010881502453375784,0.8065519765739385
2432,0.010881502453375784,0.8066434846266471
2433,0.010911728849079606,0.8066434846266471
2434,0.010911728849079606,0.8068265007320644
2435,0.010921804314314214,0.8068265007320644
2436,0.010921804314314214,0.806918008784773
2437,0.01093187977954882,0.806918008784773
2438,0.01093187977954882,0.8070095168374817
2439,0.010936917512166125,0.8070095168374817
2440,0.010936917512166125,0.8071010248901903
2441,0.010952030710018035,0.8071010248901903
2442,0.010952030710018035,0.8071925329428989
2443,0.010992332570956463,0.8071925329428989
2444,0.010992332570956463,0.8072840409956076
2445,0.011017521234042982,0.8072840409956076
2446,0.011017521234042982,0.8073755490483162
2447,0.01102759669927759,0.8073755490483162
2448,0.01102759669927759,0.8074670571010248
2449,0.011047747629746803,0.8074670571010248
2450,0.011047747629746803,0.8075585651537335
2451,0.011052785362364106,0.8075585651537335
2452,0.011052785362364106,0.8080161054172768
2453,0.011057823094981411,0.8080161054172768
2454,0.011057823094981411,0.8083821376281113
2455,0.011072936292833322,0.8083821376281113
2456,0.011072936292833322,0.8084736456808199
2457,0.011088049490685233,0.8084736456808199
2458,0.011088049490685233,0.8085651537335286
2459,0.011108200421154447,0.8085651537335286
2460,0.011108200421154447,0.8086566617862372
2461,0.011123313619006358,0.8086566617862372
2462,0.011123313619006358,0.8089311859443631
2463,0.011138426816858268,0.8089311859443631
2464,0.011138426816858268,0.8091142020497804
2465,0.011163615479944787,0.8091142020497804
2466,0.011163615479944787,0.8092972181551976
2467,0.011173690945179393,0.8092972181551976
2468,0.011173690945179393,0.8093887262079063
2469,0.011198879608265912,0.8093887262079063
2470,0.011198879608265912,0.8094802342606149
2471,0.011213992806117823,0.8094802342606149
2472,0.011213992806117823,0.8095717423133236
2473,0.01122406827135243,0.8095717423133236
2474,0.01122406827135243,0.8096632503660323
2475,0.011254294667056252,0.8096632503660323
2476,0.011254294667056252,0.8097547584187409
2477,0.011264370132290858,0.8097547584187409
2478,0.011264370132290858,0.8098462664714495
2479,0.011274445597525466,0.8098462664714495
2480,0.011274445597525466,0.8099377745241582
2481,0.011299634260611984,0.8099377745241582
2482,0.011299634260611984,0.8100292825768668
2483,0.01130970972584659,0.8100292825768668
2484,0.01130970972584659,0.8101207906295754
2485,0.011319785191081198,0.8101207906295754
2486,0.011319785191081198,0.8102122986822841
2487,0.011329860656315806,0.8102122986822841
2488,0.011329860656315806,0.8103038067349927
2489,0.01133489838893311,0.8103038067349927
2490,0.01133489838893311,0.8103953147877013
2491,0.011339936121550412,0.8103953147877013
2492,0.011339936121550412,0.8105783308931186
2493,0.01135001158678502,0.8105783308931186
2494,0.01135001158678502,0.8106698389458272
2495,0.011375200249871539,0.8106698389458272
2496,0.011375200249871539,0.8108528550512445
2497,0.01139031344772345,0.8108528550512445
2498,0.01139031344772345,0.8109443631039531
2499,0.011395351180340752,0.8109443631039531
2500,0.011395351180340752,0.8114019033674963
2501,0.011400388912958056,0.8114019033674963
2502,0.011400388912958056,0.8114934114202049
2503,0.011440690773896485,0.8114934114202049
2504,0.011440690773896485,0.8116764275256223
2505,0.011470917169600307,0.8116764275256223
2506,0.011470917169600307,0.8117679355783309
2507,0.011501143565304128,0.8117679355783309
2508,0.011501143565304128,0.8118594436310396
2509,0.011521294495773342,0.8118594436310396
2510,0.011521294495773342,0.8119509516837482
2511,0.011536407693625253,0.8119509516837482
2512,0.011536407693625253,0.8120424597364568
2513,0.01154648315885986,0.8120424597364568
2514,0.01154648315885986,0.8121339677891655
2515,0.011551520891477164,0.8121339677891655
2516,0.011551520891477164,0.8122254758418741
2517,0.011556558624094467,0.8122254758418741
2518,0.011556558624094467,0.8125
2519,0.011576709554563682,0.8125
2520,0.011576709554563682,0.8125915080527086
2521,0.011586785019798288,0.8125915080527086
2522,0.011586785019798288,0.8126830161054173
2523,0.011647237811205932,0.8126830161054173
2524,0.011647237811205932,0.8127745241581259
2525,0.011652275543823237,0.8127745241581259
2526,0.011652275543823237,0.8128660322108345
2527,0.011662351009057843,0.8128660322108345
2528,0.011662351009057843,0.8129575402635432
2529,0.01167242647429245,0.8129575402635432
2530,0.01167242647429245,0.8130490483162518
2531,0.011702652869996272,0.8130490483162518
2532,0.011702652869996272,0.8131405563689604
2533,0.011763105661403915,0.8131405563689604
2534,0.011763105661403915,0.8132320644216691
2535,0.011768143394021218,0.8132320644216691
2536,0.011768143394021218,0.8133235724743777
2537,0.011773181126638523,0.8133235724743777
2538,0.011773181126638523,0.8134150805270863
2539,0.01178325659187313,0.8134150805270863
2540,0.01178325659187313,0.8135065885797951
2541,0.011803407522342345,0.8135065885797951
2542,0.011803407522342345,0.8135980966325037
2543,0.011833633918046167,0.8135980966325037
2544,0.011833633918046167,0.8138726207906296
2545,0.011843709383280773,0.8138726207906296
2546,0.011843709383280773,0.8139641288433382
2547,0.011848747115898077,0.8139641288433382
2548,0.011848747115898077,0.8141471449487555
2549,0.011858822581132683,0.8141471449487555
2550,0.011858822581132683,0.8142386530014641
2551,0.011884011244219202,0.8142386530014641
2552,0.011884011244219202,0.8144216691068814
2553,0.01190919990730572,0.8144216691068814
2554,0.01190919990730572,0.8146961932650073
2555,0.011914237639923024,0.8146961932650073
2556,0.011914237639923024,0.8147877013177159
2557,0.011919275372540327,0.8147877013177159
2558,0.011919275372540327,0.8148792093704246
2559,0.011934388570392238,0.8148792093704246
2560,0.011934388570392238,0.8149707174231332
2561,0.011939426303009542,0.8149707174231332
2562,0.011939426303009542,0.8150622254758418
2563,0.011954539500861453,0.8150622254758418
2564,0.011954539500861453,0.8153367496339677
2565,0.011959577233478756,0.8153367496339677
2566,0.011959577233478756,0.8154282576866764
2567,0.011969652698713362,0.8154282576866764
2568,0.011969652698713362,0.8155197657393851
2569,0.011974690431330667,0.8155197657393851
2570,0.011974690431330667,0.8157027818448024
2571,0.0120200300248864,0.8157027818448024
2572,0.0120200300248864,0.815794289897511
2573,0.012045218687972916,0.815794289897511
2574,0.012045218687972916,0.8158857979502196
2575,0.012055294153207524,0.8158857979502196
2576,0.012055294153207524,0.8160688140556369
2577,0.012070407351059435,0.8160688140556369
2578,0.012070407351059435,0.8162518301610542
2579,0.012095596014145954,0.8162518301610542
2580,0.012095596014145954,0.8163433382137628
2581,0.012100633746763257,0.8163433382137628
2582,0.012100633746763257,0.8165263543191801
2583,0.012115746944615167,0.8165263543191801
2584,0.012115746944615167,0.8166178623718887
2585,0.012140935607701686,0.8166178623718887
2586,0.012140935607701686,0.8167093704245973
2587,0.01214597334031899,0.8167093704245973
2588,0.01214597334031899,0.816800878477306
2589,0.012151011072936292,0.816800878477306
2590,0.012151011072936292,0.8168923865300146
2591,0.012181237468640114,0.8168923865300146
2592,0.012181237468640114,0.8169838945827232
2593,0.012211463864343935,0.8169838945827232
2594,0.012211463864343935,0.8170754026354319
2595,0.01221650159696124,0.8170754026354319
2596,0.01221650159696124,0.8171669106881405
2597,0.012221539329578543,0.8171669106881405
2598,0.012221539329578543,0.8173499267935578
2599,0.012226577062195846,0.8173499267935578
2600,0.012226577062195846,0.8174414348462665
2601,0.012236652527430454,0.8174414348462665
2602,0.012236652527430454,0.8176244509516838
2603,0.012241690260047757,0.8176244509516838
2604,0.012241690260047757,0.8177159590043924
2605,0.012246727992665062,0.8177159590043924
2606,0.012246727992665062,0.8178074670571011
2607,0.012251765725282365,0.8178074670571011
2608,0.012251765725282365,0.8178989751098097
2609,0.012297105318838097,0.8178989751098097
2610,0.012297105318838097,0.8182650073206442
2611,0.012312218516690008,0.8182650073206442
2612,0.012312218516690008,0.8183565153733529
2613,0.012327331714541919,0.8183565153733529
2614,0.012327331714541919,0.8184480234260615
2615,0.012337407179776527,0.8184480234260615
2616,0.012337407179776527,0.8186310395314788
2617,0.012387784505949562,0.8186310395314788
2618,0.012387784505949562,0.8189055636896047
2619,0.012392822238566865,0.8189055636896047
2620,0.012392822238566865,0.8189970717423133
2621,0.012407935436418776,0.8189970717423133
2622,0.012407935436418776,0.8190885797950219
2623,0.012423048634270687,0.8190885797950219
2624,0.012423048634270687,0.8191800878477306
2625,0.012443199564739903,0.8191800878477306
2626,0.012443199564739903,0.8192715959004392
2627,0.012473425960443724,0.8192715959004392
2628,0.012473425960443724,0.8194546120058566
2629,0.012493576890912938,0.8194546120058566
2630,0.012493576890912938,0.8195461200585652
2631,0.012498614623530241,0.8195461200585652
2632,0.012503652356147544,0.8196376281112738
2633,0.012528841019234063,0.8196376281112738
2634,0.012528841019234063,0.8197291361639825
2635,0.012533878751851366,0.8197291361639825
2636,0.012533878751851366,0.8198206442166911
2637,0.01253891648446867,0.8198206442166911
2638,0.01253891648446867,0.820095168374817
2639,0.012554029682320582,0.820095168374817
2640,0.012554029682320582,0.8201866764275256
2641,0.012559067414937885,0.8201866764275256
2642,0.012559067414937885,0.8203696925329429
2643,0.012574180612789795,0.8203696925329429
2644,0.012574180612789795,0.8204612005856515
2645,0.012589293810641706,0.8204612005856515
2646,0.012589293810641706,0.8205527086383602
2647,0.012629595671580136,0.8205527086383602
2648,0.012629595671580136,0.8206442166910688
2649,0.012654784334666653,0.8206442166910688
2650,0.012654784334666653,0.8207357247437774
2651,0.012659822067283957,0.8207357247437774
2652,0.012659822067283957,0.8208272327964861
2653,0.012674935265135868,0.8208272327964861
2654,0.012674935265135868,0.8209187408491947
2655,0.012679972997753171,0.8209187408491947
2656,0.012679972997753171,0.8210102489019033
2657,0.012700123928222385,0.8210102489019033
2658,0.012700123928222385,0.821101756954612
2659,0.012715237126074296,0.821101756954612
2660,0.012715237126074296,0.8211932650073206
2661,0.012750501254395422,0.8211932650073206
2662,0.012750501254395422,0.821376281112738
2663,0.012760576719630028,0.821376281112738
2664,0.012760576719630028,0.8214677891654466
2665,0.012765614452247333,0.8214677891654466
2666,0.012765614452247333,0.8215592972181552
2667,0.012795840847951155,0.8215592972181552
2668,0.012795840847951155,0.8216508052708639
2669,0.01280591631318576,0.8216508052708639
2670,0.01280591631318576,0.8217423133235725
2671,0.012815991778420369,0.8217423133235725
2672,0.012815991778420369,0.8220168374816984
2673,0.01283110497627228,0.8220168374816984
2674,0.01283110497627228,0.822108345534407
2675,0.012836142708889582,0.822108345534407
2676,0.012836142708889582,0.8221998535871157
