,fpr,tpr
0,0.0,0.0
1,0.0,0.0004575402635431918
2,0.0,0.00448389458272328
3,0.0,0.0046669106881405565
4,0.0,0.01738653001464129
5,5.037732617303604e-06,0.01738653001464129
6,5.037732617303604e-06,0.04438140556368961
7,5.037732617303604e-06,0.04456442166910688
8,5.037732617303604e-06,0.04584553440702782
9,1.0075465234607208e-05,0.04584553440702782
10,1.0075465234607208e-05,0.045937042459736455
11,1.5113197851910811e-05,0.045937042459736455
12,1.5113197851910811e-05,0.06863103953147877
13,2.0150930469214415e-05,0.06863103953147877
14,2.0150930469214415e-05,0.08674963396778916
15,2.0150930469214415e-05,0.08693265007320644
16,2.0150930469214415e-05,0.10166544655929721
17,2.518866308651802e-05,0.10166544655929721
18,2.518866308651802e-05,0.1257320644216691
19,2.518866308651802e-05,0.1259150805270864
20,2.518866308651802e-05,0.14824304538799415
21,3.0226395703821623e-05,0.14824304538799415
22,3.0226395703821623e-05,0.15364202049780382
23,3.0226395703821623e-05,0.15382503660322108
24,3.0226395703821623e-05,0.16013909224011713
25,3.526412832112523e-05,0.16013909224011713
26,3.526412832112523e-05,0.17276720351390923
27,4.030186093842883e-05,0.17276720351390923
28,4.030186093842883e-05,0.18091142020497805
29,4.533959355573244e-05,0.18091142020497805
30,4.533959355573244e-05,0.2101939970717423
31,5.037732617303604e-05,0.2101939970717423
32,5.037732617303604e-05,0.21724011713030747
33,5.5415058790339646e-05,0.21724011713030747
34,5.5415058790339646e-05,0.2197108345534407
35,6.0452791407643246e-05,0.2197108345534407
36,6.0452791407643246e-05,0.22547584187408493
37,6.549052402494685e-05,0.22547584187408493
38,6.549052402494685e-05,0.22822108345534406
39,7.052825664225046e-05,0.22822108345534406
40,7.052825664225046e-05,0.23746339677891654
41,7.556598925955406e-05,0.23746339677891654
42,7.556598925955406e-05,0.23865300146412885
43,8.060372187685766e-05,0.23865300146412885
44,8.060372187685766e-05,0.24231332357247437
45,8.564145449416126e-05,0.24231332357247437
46,8.564145449416126e-05,0.24752928257686677
47,9.067918711146488e-05,0.24752928257686677
48,9.067918711146488e-05,0.24871888726207905
49,9.571691972876848e-05,0.24871888726207905
50,9.571691972876848e-05,0.2512811127379209
51,0.00010075465234607208,0.2512811127379209
52,0.00010075465234607208,0.26592240117130306
53,0.00010579238496337569,0.26592240117130306
54,0.00010579238496337569,0.26903367496339675
55,0.00011083011758067929,0.26903367496339675
56,0.00011083011758067929,0.2863286969253294
57,0.00011586785019798289,0.2863286969253294
58,0.00011586785019798289,0.3027086383601757
59,0.00012090558281528649,0.3027086383601757
60,0.00012090558281528649,0.3058199121522694
61,0.0001259433154325901,0.3058199121522694
62,0.0001259433154325901,0.31451317715959004
63,0.0001309810480498937,0.31451317715959004
64,0.0001309810480498937,0.316800878477306
65,0.0001309810480498937,0.3169838945827233
66,0.0001309810480498937,0.31716691068814057
67,0.00013601878066719732,0.31716691068814057
68,0.00013601878066719732,0.32650073206442165
69,0.00014105651328450092,0.32650073206442165
70,0.00014105651328450092,0.3323572474377745
71,0.00014609424590180452,0.3323572474377745
72,0.00014609424590180452,0.33986090775988287
73,0.00015113197851910812,0.33986090775988287
74,0.00015113197851910812,0.34141654465592974
75,0.00015616971113641172,0.34141654465592974
76,0.00015616971113641172,0.34425329428989754
77,0.00016120744375371532,0.34425329428989754
78,0.00016120744375371532,0.34837115666178625
79,0.00016624517637101892,0.34837115666178625
80,0.00016624517637101892,0.36200585651537337
81,0.00017128290898832252,0.36200585651537337
82,0.00017128290898832252,0.366398243045388
83,0.00017632064160562615,0.366398243045388
84,0.00017632064160562615,0.3685944363103953
85,0.00018135837422292975,0.3685944363103953
86,0.00018135837422292975,0.3785688140556369
87,0.00018639610684023335,0.3785688140556369
88,0.00018639610684023335,0.3787518301610542
89,0.00019143383945753695,0.3787518301610542
90,0.00019143383945753695,0.38012445095168373
91,0.00019647157207484055,0.38012445095168373
92,0.00019647157207484055,0.38771961932650073
93,0.00020150930469214415,0.38771961932650073
94,0.00020150930469214415,0.3883601756954612
95,0.00020654703730944775,0.3883601756954612
96,0.00020654703730944775,0.390190336749634
97,0.00021158476992675138,0.390190336749634
98,0.00021158476992675138,0.39723645680819913
99,0.00021662250254405498,0.39723645680819913
100,0.00021662250254405498,0.40034773060029283
101,0.00022166023516135858,0.40034773060029283
102,0.00022166023516135858,0.40474011713030744
103,0.00022669796777866218,0.40474011713030744
104,0.00022669796777866218,0.4134333821376281
105,0.00023173570039596578,0.4134333821376281
106,0.00023173570039596578,0.41471449487554907
107,0.00023677343301326938,0.41471449487554907
108,0.00023677343301326938,0.4148060029282577
109,0.00023677343301326938,0.41498901903367497
110,0.00023677343301326938,0.41654465592972184
111,0.00024181116563057298,0.41654465592972184
112,0.00024181116563057298,0.41782576866764276
113,0.0002468488982478766,0.41782576866764276
114,0.0002468488982478766,0.41874084919472915
115,0.0002518866308651802,0.41874084919472915
116,0.0002518866308651802,0.4201134699853587
117,0.0002569243634824838,0.4201134699853587
118,0.0002569243634824838,0.42185212298682284
119,0.0002619620960997874,0.42185212298682284
120,0.0002619620960997874,0.42212664714494874
121,0.000266999828717091,0.42212664714494874
122,0.000266999828717091,0.424597364568082
123,0.00027203756133439464,0.424597364568082
124,0.00027203756133439464,0.42468887262079064
125,0.0002770752939516982,0.42468887262079064
126,0.0002770752939516982,0.42807467057101023
127,0.00028211302656900184,0.42807467057101023
128,0.00028211302656900184,0.42926427525622257
129,0.0002871507591863054,0.42926427525622257
130,0.0002871507591863054,0.43017935578330896
131,0.00029218849180360904,0.43017935578330896
132,0.00029218849180360904,0.431185944363104
133,0.0002972262244209126,0.431185944363104
134,0.0002972262244209126,0.4314604685212299
135,0.00030226395703821624,0.4314604685212299
136,0.00030226395703821624,0.43191800878477304
137,0.0003073016896555198,0.43191800878477304
138,0.0003073016896555198,0.43237554904831627
139,0.00031233942227282344,0.43237554904831627
140,0.00031233942227282344,0.4337481698389458
141,0.00031737715489012707,0.4337481698389458
142,0.00031737715489012707,0.43795754026354317
143,0.00032241488750743065,0.43795754026354317
144,0.00032241488750743065,0.4386896046852123
145,0.00032745262012473427,0.4386896046852123
146,0.00032745262012473427,0.4394216691068814
147,0.00033249035274203785,0.4394216691068814
148,0.00033249035274203785,0.44051976573938506
149,0.0003375280853593415,0.44051976573938506
150,0.0003375280853593415,0.4410688140556369
151,0.00034256581797664505,0.4410688140556369
152,0.00034256581797664505,0.4419838945827233
153,0.0003476035505939487,0.4419838945827233
154,0.0003476035505939487,0.44262445095168373
155,0.0003526412832112523,0.44262445095168373
156,0.0003526412832112523,0.4437225475841874
157,0.0003576790158285559,0.4437225475841874
158,0.0003576790158285559,0.44399707174231334
159,0.0003627167484458595,0.44399707174231334
160,0.0003627167484458595,0.44546120058565153
161,0.0003677544810631631,0.44546120058565153
162,0.0003677544810631631,0.44591874084919475
163,0.0003727922136804667,0.44591874084919475
164,0.0003727922136804667,0.44710834553440704
165,0.0003778299462977703,0.44710834553440704
166,0.0003778299462977703,0.44875549048316254
167,0.0003828676789150739,0.44875549048316254
168,0.0003828676789150739,0.4501281112737921
169,0.00038790541153237753,0.4501281112737921
170,0.00038790541153237753,0.45168374816983897
171,0.0003929431441496811,0.45168374816983897
172,0.0003929431441496811,0.45378843338213765
173,0.00039798087676698473,0.45378843338213765
174,0.00039798087676698473,0.45525256222547583
175,0.0004030186093842883,0.45525256222547583
176,0.0004030186093842883,0.4558931185944363
177,0.00040805634200159193,0.4558931185944363
178,0.00040805634200159193,0.4591874084919473
179,0.00041813180723619913,0.4591874084919473
180,0.00041813180723619913,0.46046852122986826
181,0.00042316953985350276,0.46046852122986826
182,0.00042316953985350276,0.4613836017569546
183,0.00043324500508810996,0.4613836017569546
184,0.00043324500508810996,0.4620241581259151
185,0.00043828273770541354,0.4620241581259151
186,0.00043828273770541354,0.463305270863836
187,0.00044332047032271716,0.463305270863836
188,0.00044332047032271716,0.46605051244509516
189,0.00045339593555732436,0.46605051244509516
190,0.00045339593555732436,0.4670571010248902
191,0.00045843366817462794,0.4670571010248902
192,0.00045843366817462794,0.4687042459736457
193,0.00046347140079193157,0.4687042459736457
194,0.00046347140079193157,0.4689787701317716
195,0.0004685091334092352,0.4689787701317716
196,0.0004685091334092352,0.46980234260614934
197,0.00047354686602653877,0.46980234260614934
198,0.00047354686602653877,0.4712664714494876
199,0.0004785845986438424,0.4712664714494876
200,0.0004785845986438424,0.47337115666178625
201,0.00048362233126114597,0.47337115666178625
202,0.00048362233126114597,0.47703147877013174
203,0.0004936977964957532,0.47703147877013174
204,0.0004936977964957532,0.48096632503660325
205,0.0004987355291130568,0.48096632503660325
206,0.0004987355291130568,0.48197291361639827
207,0.0005037732617303604,0.48197291361639827
208,0.0005037732617303604,0.48654831625183015
209,0.000508810994347664,0.48654831625183015
210,0.000508810994347664,0.48746339677891654
211,0.0005138487269649676,0.48746339677891654
212,0.0005138487269649676,0.48773792093704244
213,0.0005188864595822712,0.48773792093704244
214,0.0005188864595822712,0.48792093704245976
215,0.0005239241921995748,0.48792093704245976
216,0.0005239241921995748,0.49039165446559296
217,0.0005289619248168785,0.49039165446559296
218,0.0005289619248168785,0.49066617862371886
219,0.000533999657434182,0.49066617862371886
220,0.000533999657434182,0.4930453879941435
221,0.0005390373900514856,0.4930453879941435
222,0.0005390373900514856,0.4940519765739385
223,0.0005440751226687893,0.4940519765739385
224,0.0005440751226687893,0.4945095168374817
225,0.0005491128552860929,0.4945095168374817
226,0.0005491128552860929,0.49515007320644217
227,0.0005541505879033964,0.49515007320644217
228,0.0005541505879033964,0.4959736456808199
229,0.0005692637857553073,0.4959736456808199
230,0.0005692637857553073,0.49670571010248904
231,0.0005743015183726108,0.49670571010248904
232,0.0005743015183726108,0.4970717423133236
233,0.0005793392509899145,0.4970717423133236
234,0.0005793392509899145,0.4974377745241581
235,0.0005843769836072181,0.4974377745241581
236,0.0005843769836072181,0.49752928257686674
237,0.0005894147162245217,0.49752928257686674
238,0.0005894147162245217,0.4984443631039531
239,0.0005944524488418252,0.4984443631039531
240,0.0005944524488418252,0.4985358711566618
241,0.0005994901814591289,0.4985358711566618
242,0.0005994901814591289,0.5011896046852123
243,0.0006045279140764325,0.5011896046852123
244,0.0006045279140764325,0.5013726207906296
245,0.0006146033793110396,0.5013726207906296
246,0.0006146033793110396,0.5019216691068814
247,0.0006196411119283433,0.5019216691068814
248,0.0006196411119283433,0.5021961932650073
249,0.0006246788445456469,0.5021961932650073
250,0.0006246788445456469,0.5062225475841874
251,0.0006297165771629505,0.5062225475841874
252,0.0006297165771629505,0.507595168374817
253,0.0006347543097802541,0.507595168374817
254,0.0006347543097802541,0.5085102489019033
255,0.0006397920423975577,0.5085102489019033
256,0.0006397920423975577,0.5089677891654466
257,0.0006448297750148613,0.5089677891654466
258,0.0006448297750148613,0.5111639824304539
259,0.0006498675076321649,0.5111639824304539
260,0.0006498675076321649,0.5114385065885798
261,0.0006549052402494685,0.5114385065885798
262,0.0006549052402494685,0.5118045387994143
263,0.0006599429728667721,0.5118045387994143
264,0.0006599429728667721,0.5120790629575402
265,0.0006649807054840757,0.5120790629575402
266,0.0006649807054840757,0.5124450951683748
267,0.0006700184381013794,0.5124450951683748
268,0.0006700184381013794,0.5125366032210834
269,0.000675056170718683,0.5125366032210834
270,0.000675056170718683,0.5127196193265008
271,0.0006800939033359865,0.5127196193265008
272,0.0006800939033359865,0.5130856515373353
273,0.0006901693685705938,0.5130856515373353
274,0.0006901693685705938,0.5140007320644217
275,0.0006952071011878973,0.5140007320644217
276,0.0006952071011878973,0.5156478770131772
277,0.0007002448338052009,0.5156478770131772
278,0.0007002448338052009,0.5178440702781845
279,0.0007052825664225046,0.5178440702781845
280,0.0007052825664225046,0.5180270863836017
281,0.0007103202990398082,0.5180270863836017
282,0.0007103202990398082,0.5206808199121523
283,0.0007153580316571118,0.5206808199121523
284,0.0007153580316571118,0.5210468521229868
285,0.0007203957642744153,0.5210468521229868
286,0.0007203957642744153,0.52150439238653
287,0.000725433496891719,0.52150439238653
288,0.000725433496891719,0.5224194729136163
289,0.0007304712295090226,0.5224194729136163
290,0.0007304712295090226,0.5226939970717424
291,0.0007355089621263262,0.5226939970717424
292,0.0007355089621263262,0.5242496339677891
293,0.0007405466947436298,0.5242496339677891
294,0.0007405466947436298,0.524798682284041
295,0.0007455844273609334,0.524798682284041
296,0.0007455844273609334,0.5257137628111274
297,0.000750622159978237,0.5257137628111274
298,0.000750622159978237,0.5263543191800878
299,0.0007556598925955406,0.5263543191800878
300,0.0007556598925955406,0.5264458272327965
301,0.0007657353578301478,0.5264458272327965
302,0.0007657353578301478,0.5273609077598829
303,0.0007707730904474514,0.5273609077598829
304,0.0007707730904474514,0.5280929721815519
305,0.0007808485556820586,0.5280929721815519
306,0.0007808485556820586,0.5282759882869692
307,0.0007858862882993622,0.5282759882869692
308,0.0007858862882993622,0.5284590043923866
309,0.0007909240209166658,0.5284590043923866
310,0.0007909240209166658,0.5296486090775988
311,0.0007959617535339695,0.5296486090775988
312,0.0007959617535339695,0.5310212298682284
313,0.000800999486151273,0.5310212298682284
314,0.000800999486151273,0.5312957540263543
315,0.0008060372187685766,0.5312957540263543
316,0.0008060372187685766,0.532119326500732
317,0.0008161126840031839,0.532119326500732
318,0.0008161126840031839,0.5322108345534406
319,0.0008211504166204874,0.5322108345534406
320,0.0008211504166204874,0.5333089311859444
321,0.000826188149237791,0.5333089311859444
322,0.000826188149237791,0.5334919472913616
323,0.0008312258818550947,0.5334919472913616
324,0.0008312258818550947,0.5335834553440703
325,0.0008362636144723983,0.5335834553440703
326,0.0008362636144723983,0.534681551976574
327,0.0008413013470897018,0.534681551976574
328,0.0008413013470897018,0.5349560761346999
329,0.0008463390797070055,0.5349560761346999
330,0.0008463390797070055,0.5362371888726208
331,0.0008513768123243091,0.5362371888726208
332,0.0008513768123243091,0.5363286969253295
333,0.0008564145449416127,0.5363286969253295
334,0.0008564145449416127,0.5370607613469985
335,0.0008664900101762199,0.5370607613469985
336,0.0008664900101762199,0.5371522693997072
337,0.0008715277427935235,0.5371522693997072
338,0.0008715277427935235,0.539714494875549
339,0.0008765654754108271,0.539714494875549
340,0.0008765654754108271,0.5401720351390923
341,0.0008916786732627379,0.5401720351390923
342,0.0008916786732627379,0.5402635431918009
343,0.0009017541384973452,0.5402635431918009
344,0.0009017541384973452,0.5410871156661786
345,0.0009067918711146487,0.5410871156661786
346,0.0009067918711146487,0.5416361639824304
347,0.0009118296037319523,0.5416361639824304
348,0.0009118296037319523,0.5428257686676428
349,0.0009168673363492559,0.5428257686676428
350,0.0009168673363492559,0.5433748169838946
351,0.0009219050689665596,0.5433748169838946
352,0.0009219050689665596,0.5434663250366032
353,0.000942055999435774,0.5434663250366032
354,0.000942055999435774,0.5441983894582724
355,0.0009470937320530775,0.5441983894582724
356,0.0009470937320530775,0.544289897510981
357,0.0009521314646703811,0.544289897510981
358,0.0009521314646703811,0.5443814055636896
359,0.0009571691972876848,0.5443814055636896
360,0.0009571691972876848,0.5452049780380673
361,0.0009622069299049884,0.5452049780380673
362,0.0009622069299049884,0.5458455344070278
363,0.0009672446625222919,0.5458455344070278
364,0.0009672446625222919,0.5468521229868228
365,0.0009722823951395956,0.5468521229868228
366,0.0009722823951395956,0.5475841874084919
367,0.000977320127756899,0.5475841874084919
368,0.000977320127756899,0.5489568081991215
369,0.0009823578603742028,0.5489568081991215
370,0.0009823578603742028,0.549597364568082
371,0.0009873955929915064,0.549597364568082
372,0.0009873955929915064,0.5505124450951684
373,0.00099243332560881,0.5505124450951684
374,0.00099243332560881,0.5522510980966325
375,0.0009974710582261136,0.5522510980966325
376,0.0009974710582261136,0.5524341142020498
377,0.0010025087908434173,0.5524341142020498
378,0.0010025087908434173,0.5532576866764275
379,0.0010075465234607207,0.5532576866764275
380,0.0010075465234607207,0.5538067349926794
381,0.0010125842560780244,0.5538067349926794
382,0.0010125842560780244,0.556918008784773
383,0.001017621988695328,0.556918008784773
384,0.001017621988695328,0.5588396778916545
385,0.0010226597213126316,0.5588396778916545
386,0.0010226597213126316,0.5620424597364568
387,0.0010276974539299352,0.5620424597364568
388,0.0010276974539299352,0.5626830161054173
389,0.0010327351865472387,0.5626830161054173
390,0.0010327351865472387,0.5629575402635432
391,0.0010377729191645424,0.5629575402635432
392,0.0010377729191645424,0.5635980966325037
393,0.0010478483843991495,0.5635980966325037
394,0.0010478483843991495,0.5646961932650073
395,0.0010528861170164532,0.5646961932650073
396,0.0010528861170164532,0.5648792093704246
397,0.001057923849633757,0.5648792093704246
398,0.001057923849633757,0.5649707174231332
399,0.0010629615822510604,0.5649707174231332
400,0.0010629615822510604,0.5665263543191801
401,0.001067999314868364,0.5665263543191801
402,0.001067999314868364,0.5666178623718887
403,0.0010730370474856677,0.5666178623718887
404,0.0010730370474856677,0.5672584187408491
405,0.0010780747801029712,0.5672584187408491
406,0.0010780747801029712,0.5674414348462665
407,0.0010831125127202749,0.5674414348462665
408,0.0010831125127202749,0.5689970717423133
409,0.0010881502453375786,0.5689970717423133
410,0.0010881502453375786,0.5698206442166911
411,0.001093187977954882,0.5698206442166911
412,0.001093187977954882,0.5699121522693997
413,0.0010982257105721857,0.5699121522693997
414,0.0010982257105721857,0.5700036603221084
415,0.0011032634431894892,0.5700036603221084
416,0.0011032634431894892,0.5705527086383602
417,0.0011083011758067929,0.5705527086383602
418,0.0011083011758067929,0.5706442166910688
419,0.0011133389084240965,0.5706442166910688
420,0.0011133389084240965,0.5711932650073206
421,0.0011183766410414,0.5711932650073206
422,0.0011183766410414,0.5712847730600292
423,0.0011234143736587037,0.5712847730600292
424,0.0011234143736587037,0.5720168374816984
425,0.0011284521062760074,0.5720168374816984
426,0.0011284521062760074,0.572108345534407
427,0.0011334898388933108,0.572108345534407
428,0.0011334898388933108,0.5723828696925329
429,0.0011385275715106145,0.5723828696925329
430,0.0011385275715106145,0.573389458272328
431,0.0011435653041279182,0.573389458272328
432,0.0011435653041279182,0.5734809663250366
433,0.0011486030367452217,0.5734809663250366
434,0.0011486030367452217,0.5735724743777453
435,0.0011536407693625253,0.5735724743777453
436,0.0011536407693625253,0.5736639824304539
437,0.001158678501979829,0.5736639824304539
438,0.001158678501979829,0.5738469985358712
439,0.0011637162345971325,0.5738469985358712
440,0.0011637162345971325,0.5743045387994143
441,0.0011687539672144362,0.5743045387994143
442,0.0011687539672144362,0.5746705710102489
443,0.0011737916998317396,0.5746705710102489
444,0.0011737916998317396,0.5754941434846267
445,0.0011788294324490433,0.5754941434846267
446,0.0011788294324490433,0.5755856515373353
447,0.001183867165066347,0.5755856515373353
448,0.001183867165066347,0.5761346998535871
449,0.0011889048976836505,0.5761346998535871
450,0.0011889048976836505,0.5766837481698389
451,0.0011939426303009541,0.5766837481698389
452,0.0011939426303009541,0.5772327964860908
453,0.0011989803629182578,0.5772327964860908
454,0.0011989803629182578,0.5774158125915081
455,0.0012040180955355613,0.5774158125915081
456,0.0012040180955355613,0.5785139092240117
457,0.001209055828152865,0.5785139092240117
458,0.001209055828152865,0.5788799414348462
459,0.0012140935607701687,0.5788799414348462
460,0.0012140935607701687,0.5795204978038068
461,0.0012191312933874721,0.5795204978038068
462,0.0012191312933874721,0.5804355783308931
463,0.0012241690260047758,0.5804355783308931
464,0.0012241690260047758,0.5809846266471449
465,0.001234244491239383,0.5809846266471449
466,0.001234244491239383,0.5818997071742313
467,0.0012392822238566866,0.5818997071742313
468,0.0012392822238566866,0.5823572474377745
469,0.0012493576890912938,0.5823572474377745
470,0.0012493576890912938,0.5828147877013177
471,0.0012543954217085975,0.5828147877013177
472,0.0012543954217085975,0.5829062957540263
473,0.001259433154325901,0.5829062957540263
474,0.001259433154325901,0.5830893118594437
475,0.0012644708869432046,0.5830893118594437
476,0.0012644708869432046,0.5840959004392386
477,0.0012695086195605083,0.5840959004392386
478,0.0012695086195605083,0.5843704245973645
479,0.0012745463521778118,0.5843704245973645
480,0.0012745463521778118,0.5854685212298683
481,0.0012795840847951154,0.5854685212298683
482,0.0012795840847951154,0.5856515373352855
483,0.0012846218174124191,0.5856515373352855
484,0.0012846218174124191,0.5859260614934114
485,0.0012896595500297226,0.5859260614934114
486,0.0012896595500297226,0.5864751098096632
487,0.0012946972826470263,0.5864751098096632
488,0.0012946972826470263,0.5871156661786238
489,0.0012997350152643297,0.5871156661786238
490,0.0012997350152643297,0.5876647144948756
491,0.0013047727478816334,0.5876647144948756
492,0.0013047727478816334,0.5879392386530015
493,0.001309810480498937,0.5879392386530015
494,0.001309810480498937,0.5887628111273792
495,0.0013148482131162406,0.5887628111273792
496,0.0013148482131162406,0.5894033674963397
497,0.0013198859457335442,0.5894033674963397
498,0.0013198859457335442,0.5896778916544656
499,0.001324923678350848,0.5896778916544656
500,0.001324923678350848,0.5904099560761347
501,0.0013299614109681514,0.5904099560761347
502,0.0013299614109681514,0.5905014641288433
503,0.001334999143585455,0.5905014641288433
504,0.001334999143585455,0.5908674963396779
505,0.0013400368762027587,0.5908674963396779
506,0.0013400368762027587,0.5909590043923866
507,0.0013450746088200622,0.5909590043923866
508,0.0013450746088200622,0.5927891654465594
509,0.001350112341437366,0.5927891654465594
510,0.001350112341437366,0.5933382137628112
511,0.0013551500740546696,0.5933382137628112
512,0.0013551500740546696,0.5935212298682284
513,0.001360187806671973,0.5935212298682284
514,0.001360187806671973,0.5948023426061494
515,0.0013652255392892767,0.5948023426061494
516,0.0013652255392892767,0.5950768667642753
517,0.0013702632719065802,0.5950768667642753
518,0.0013702632719065802,0.5951683748169839
519,0.0013753010045238839,0.5951683748169839
520,0.0013753010045238839,0.5957174231332357
521,0.0013803387371411876,0.5957174231332357
522,0.0013803387371411876,0.5958089311859444
523,0.001385376469758491,0.5958089311859444
524,0.001385376469758491,0.5962664714494875
525,0.0013904142023757947,0.5962664714494875
526,0.0013904142023757947,0.5963579795021962
527,0.0013954519349930984,0.5963579795021962
528,0.0013954519349930984,0.5965409956076134
529,0.0014004896676104018,0.5965409956076134
530,0.0014004896676104018,0.5969070278184481
531,0.0014156028654623127,0.5969070278184481
532,0.0014156028654623127,0.5980051244509517
533,0.0014206405980796164,0.5980051244509517
534,0.0014206405980796164,0.5981881405563689
535,0.00142567833069692,0.5981881405563689
536,0.00142567833069692,0.5983711566617862
537,0.0014307160633142235,0.5983711566617862
538,0.0014307160633142235,0.5997437774524158
539,0.0014357537959315272,0.5997437774524158
540,0.0014357537959315272,0.6003843338213762
541,0.0014407915285488306,0.6003843338213762
542,0.0014407915285488306,0.6016654465592972
543,0.0014458292611661343,0.6016654465592972
544,0.0014458292611661343,0.6017569546120058
545,0.001450866993783438,0.6017569546120058
546,0.001450866993783438,0.6019399707174231
547,0.0014559047264007415,0.6019399707174231
548,0.0014559047264007415,0.6025805270863837
549,0.0014659801916353488,0.6025805270863837
550,0.0014659801916353488,0.6033125915080527
551,0.0014710179242526523,0.6033125915080527
552,0.0014710179242526523,0.6034040995607614
553,0.0014962065873391703,0.6034040995607614
554,0.0014962065873391703,0.60349560761347
555,0.001501244319956474,0.60349560761347
556,0.001501244319956474,0.6037701317715959
557,0.0015062820525737776,0.6037701317715959
558,0.0015062820525737776,0.6051427525622255
559,0.0015163575178083848,0.6051427525622255
560,0.0015163575178083848,0.6054172767203514
561,0.0015213952504256885,0.6054172767203514
562,0.0015213952504256885,0.6056918008784773
563,0.001526432983042992,0.6056918008784773
564,0.001526432983042992,0.6071559297218155
565,0.0015365084482775993,0.6071559297218155
566,0.0015365084482775993,0.6074304538799414
567,0.0015415461808949028,0.6074304538799414
568,0.0015415461808949028,0.6075219619326501
569,0.0015465839135122064,0.6075219619326501
570,0.0015465839135122064,0.6083455344070278
571,0.0015566593787468136,0.6083455344070278
572,0.0015566593787468136,0.6089860907759883
573,0.0015616971113641173,0.6089860907759883
574,0.0015616971113641173,0.609809663250366
575,0.0015667348439814207,0.609809663250366
576,0.0015667348439814207,0.6100841874084919
577,0.0015717725765987244,0.6100841874084919
578,0.0015717725765987244,0.6101756954612005
579,0.0015818480418333316,0.6101756954612005
580,0.0015818480418333316,0.6102672035139092
581,0.0015868857744506353,0.6102672035139092
582,0.0015868857744506353,0.6103587115666179
583,0.001591923507067939,0.6103587115666179
584,0.001591923507067939,0.6108162518301611
585,0.0015969612396852424,0.6108162518301611
586,0.0015969612396852424,0.6116398243045388
587,0.001601998972302546,0.6116398243045388
588,0.001601998972302546,0.6119143484626647
589,0.0016070367049198498,0.6119143484626647
590,0.0016070367049198498,0.6130124450951684
591,0.0016120744375371532,0.6130124450951684
592,0.0016120744375371532,0.6131954612005857
593,0.001617112170154457,0.6131954612005857
594,0.001617112170154457,0.6134699853587116
595,0.0016221499027717606,0.6134699853587116
596,0.0016221499027717606,0.6151171303074671
597,0.0016322253680063677,0.6151171303074671
598,0.0016322253680063677,0.6152086383601757
599,0.0016372631006236712,0.6152086383601757
600,0.0016372631006236712,0.6167642752562226
601,0.0016423008332409749,0.6167642752562226
602,0.0016423008332409749,0.617404831625183
603,0.001652376298475582,0.617404831625183
604,0.001652376298475582,0.6177708638360175
605,0.0016574140310928857,0.6177708638360175
606,0.0016574140310928857,0.6179538799414348
607,0.0016624517637101894,0.6179538799414348
608,0.0016624517637101894,0.6187774524158126
609,0.0016674894963274929,0.6187774524158126
610,0.0016674894963274929,0.6190519765739385
611,0.0016775649615621002,0.6190519765739385
612,0.0016775649615621002,0.6192349926793558
613,0.0016826026941794037,0.6192349926793558
614,0.0016826026941794037,0.619418008784773
615,0.0016876404267967074,0.619418008784773
616,0.0016876404267967074,0.6203330893118595
617,0.001692678159414011,0.6203330893118595
618,0.001692678159414011,0.6214311859443631
619,0.0017027536246486182,0.6214311859443631
620,0.0017027536246486182,0.6216142020497804
621,0.0017077913572659217,0.6216142020497804
622,0.0017077913572659217,0.6217972181551976
623,0.0017128290898832253,0.6217972181551976
624,0.0017128290898832253,0.6226207906295754
625,0.001717866822500529,0.6226207906295754
626,0.001717866822500529,0.6232613469985359
627,0.0017229045551178325,0.6232613469985359
628,0.0017229045551178325,0.6234443631039531
629,0.0017279422877351362,0.6234443631039531
630,0.0017279422877351362,0.623718887262079
631,0.0017380177529697433,0.623718887262079
632,0.0017380177529697433,0.6239019033674963
633,0.0017531309508216541,0.6239019033674963
634,0.0017531309508216541,0.6242679355783309
635,0.0017581686834389578,0.6242679355783309
636,0.0017581686834389578,0.6244509516837482
637,0.0017632064160562613,0.6244509516837482
638,0.0017632064160562613,0.6248169838945827
639,0.001768244148673565,0.6248169838945827
640,0.001768244148673565,0.625
641,0.0017783196139081721,0.625
642,0.0017783196139081721,0.6250915080527086
643,0.0017833573465254758,0.6250915080527086
644,0.0017833573465254758,0.6252745241581259
645,0.0017883950791427795,0.6252745241581259
646,0.0017883950791427795,0.6257320644216691
647,0.001793432811760083,0.6257320644216691
648,0.001793432811760083,0.6258235724743777
649,0.0017984705443773866,0.6258235724743777
650,0.0017984705443773866,0.6260065885797951
651,0.0018085460096119938,0.6260065885797951
652,0.0018085460096119938,0.62701317715959
653,0.0018135837422292975,0.62701317715959
654,0.0018135837422292975,0.6278367496339677
655,0.0018186214748466011,0.6278367496339677
656,0.0018186214748466011,0.6282027818448024
657,0.0018236592074639046,0.6282027818448024
658,0.0018236592074639046,0.628294289897511
659,0.0018387724053158154,0.628294289897511
660,0.0018387724053158154,0.6283857979502196
661,0.0018438101379331191,0.6283857979502196
662,0.0018438101379331191,0.629300878477306
663,0.0018488478705504226,0.629300878477306
664,0.0018488478705504226,0.6296669106881405
665,0.0018538856031677263,0.6296669106881405
666,0.0018538856031677263,0.6312225475841874
667,0.00185892333578503,0.6312225475841874
668,0.00185892333578503,0.6315885797950219
669,0.0018639610684023334,0.6315885797950219
670,0.0018639610684023334,0.6317715959004392
671,0.001868998801019637,0.6317715959004392
672,0.001868998801019637,0.6321376281112738
673,0.0018740365336369408,0.6321376281112738
674,0.0018740365336369408,0.6323206442166911
675,0.0018790742662542442,0.6323206442166911
676,0.0018790742662542442,0.6324121522693997
677,0.001884111998871548,0.6324121522693997
678,0.001884111998871548,0.6328696925329429
679,0.0018891497314888516,0.6328696925329429
680,0.0018891497314888516,0.6337847730600292
681,0.001894187464106155,0.6337847730600292
682,0.001894187464106155,0.6341508052708639
683,0.001909300661958066,0.6341508052708639
684,0.001909300661958066,0.6347913616398243
685,0.0019143383945753696,0.6347913616398243
686,0.0019143383945753696,0.6350658857979502
687,0.001919376127192673,0.6350658857979502
688,0.001919376127192673,0.6352489019033675
689,0.0019294515924272804,0.6352489019033675
690,0.0019294515924272804,0.6363469985358712
691,0.0019344893250445839,0.6363469985358712
692,0.0019344893250445839,0.6367130307467057
693,0.0019395270576618876,0.6367130307467057
694,0.0019395270576618876,0.6368045387994143
695,0.0019445647902791912,0.6368045387994143
696,0.0019445647902791912,0.6373535871156661
697,0.001954640255513798,0.6373535871156661
698,0.001954640255513798,0.6374450951683748
699,0.001959677988131102,0.6374450951683748
700,0.001959677988131102,0.637628111273792
701,0.001969753453365709,0.637628111273792
702,0.001969753453365709,0.6377196193265008
703,0.001974791185983013,0.6377196193265008
704,0.001974791185983013,0.637902635431918
705,0.0019798289186003164,0.637902635431918
706,0.0019798289186003164,0.6379941434846267
707,0.0019899043838349237,0.6379941434846267
708,0.0019899043838349237,0.6390922401171303
709,0.001994942116452227,0.6390922401171303
710,0.001994942116452227,0.6391837481698389
711,0.0019999798490695306,0.6391837481698389
712,0.0019999798490695306,0.6394582723279648
713,0.0020050175816868345,0.6394582723279648
714,0.0020050175816868345,0.6395497803806734
715,0.0020150930469214415,0.6395497803806734
716,0.0020150930469214415,0.6397327964860908
717,0.0020201307795387454,0.6397327964860908
718,0.0020201307795387454,0.6400073206442167
719,0.002025168512156049,0.6400073206442167
720,0.002025168512156049,0.6400988286969254
721,0.0020302062447733523,0.6400988286969254
722,0.0020302062447733523,0.6407393850658858
723,0.002035243977390656,0.6407393850658858
724,0.002035243977390656,0.6409224011713031
725,0.0020402817100079597,0.6409224011713031
726,0.0020402817100079597,0.6413799414348462
727,0.002050357175242567,0.6413799414348462
728,0.002050357175242567,0.6414714494875549
729,0.0020553949078598705,0.6414714494875549
730,0.0020553949078598705,0.642203513909224
731,0.002060432640477174,0.642203513909224
732,0.002060432640477174,0.6422950219619327
733,0.0020705081057117813,0.6422950219619327
734,0.0020705081057117813,0.6425695461200586
735,0.002075545838329085,0.6425695461200586
736,0.002075545838329085,0.6431185944363104
737,0.002085621303563692,0.6431185944363104
738,0.002085621303563692,0.6433931185944363
739,0.002095696768798299,0.6433931185944363
740,0.002095696768798299,0.6434846266471449
741,0.002100734501415603,0.6434846266471449
742,0.002100734501415603,0.6436676427525623
743,0.0021057722340329064,0.6436676427525623
744,0.0021057722340329064,0.6437591508052709
745,0.00211080996665021,0.6437591508052709
746,0.00211080996665021,0.6439421669106882
747,0.002115847699267514,0.6439421669106882
748,0.002115847699267514,0.6443081991215227
749,0.0021208854318848173,0.6443081991215227
750,0.0021208854318848173,0.6445827232796486
751,0.0021259231645021207,0.6445827232796486
752,0.0021259231645021207,0.6446742313323572
753,0.0021309608971194246,0.6446742313323572
754,0.0021309608971194246,0.6447657393850659
755,0.002135998629736728,0.6447657393850659
756,0.002135998629736728,0.6450402635431918
757,0.0021410363623540316,0.6450402635431918
758,0.0021410363623540316,0.6463213762811127
759,0.0021460740949713355,0.6463213762811127
760,0.0021460740949713355,0.6467789165446559
761,0.002151111827588639,0.6467789165446559
762,0.002151111827588639,0.6473279648609077
763,0.0021561495602059424,0.6473279648609077
764,0.0021561495602059424,0.6476024890190337
765,0.0021611872928232463,0.6476024890190337
766,0.0021611872928232463,0.6480600292825769
767,0.0021662250254405498,0.6480600292825769
768,0.0021662250254405498,0.64851756954612
769,0.0021964514211443714,0.64851756954612
770,0.0021964514211443714,0.6488836017569546
771,0.002201489153761675,0.6488836017569546
772,0.002201489153761675,0.6489751098096632
773,0.0022065268863789783,0.6489751098096632
774,0.0022065268863789783,0.6490666178623719
775,0.0022115646189962822,0.6490666178623719
776,0.0022115646189962822,0.6492496339677891
777,0.0022166023516135857,0.6492496339677891
778,0.0022166023516135857,0.6497071742313324
779,0.002221640084230889,0.6497071742313324
780,0.002221640084230889,0.6498901903367497
781,0.0022367532820828,0.6498901903367497
782,0.0022367532820828,0.6499816983894583
783,0.002241791014700104,0.6499816983894583
784,0.002241791014700104,0.6507137628111274
785,0.0022468287473174074,0.6507137628111274
786,0.0022468287473174074,0.6508967789165446
787,0.0022569042125520147,0.6508967789165446
788,0.0022569042125520147,0.6510797950219619
789,0.0022720174104039256,0.6510797950219619
790,0.0022720174104039256,0.6517203513909224
791,0.0022720174104039256,0.6519033674963397
792,0.002277055143021229,0.6519033674963397
793,0.002277055143021229,0.6523609077598829
794,0.0022820928756385325,0.6523609077598829
795,0.0022820928756385325,0.6527269399707174
796,0.0022871306082558364,0.6527269399707174
797,0.0022871306082558364,0.6530014641288433
798,0.00229216834087314,0.6530014641288433
799,0.00229216834087314,0.6531844802342606
800,0.002312319271342354,0.6531844802342606
801,0.002312319271342354,0.6534590043923866
802,0.002317357003959658,0.6534590043923866
803,0.002317357003959658,0.6538250366032211
804,0.0023324702018115684,0.6538250366032211
805,0.0023324702018115684,0.654099560761347
806,0.0023375079344288723,0.654099560761347
807,0.0023375079344288723,0.6543740849194729
808,0.002342545667046176,0.6543740849194729
809,0.002342545667046176,0.6544655929721815
810,0.002352621132280783,0.6544655929721815
811,0.002352621132280783,0.6545571010248902
812,0.00236269659751539,0.6545571010248902
813,0.00236269659751539,0.6546486090775988
814,0.0023727720627499975,0.6546486090775988
815,0.0023727720627499975,0.6548316251830161
816,0.0023878852606019083,0.6548316251830161
817,0.0023878852606019083,0.6554721815519766
818,0.0023929229932192118,0.6554721815519766
819,0.0023929229932192118,0.6559297218155198
820,0.0023979607258365157,0.6559297218155198
821,0.0023979607258365157,0.6564787701317716
822,0.0024080361910711226,0.6564787701317716
823,0.0024080361910711226,0.6573023426061494
824,0.0024231493889230334,0.6573023426061494
825,0.0024231493889230334,0.657393850658858
826,0.0024332248541576408,0.657393850658858
827,0.0024332248541576408,0.6582174231332357
828,0.002443300319392248,0.6582174231332357
829,0.002443300319392248,0.658400439238653
830,0.0024634512498614624,0.658400439238653
831,0.0024634512498614624,0.6589494875549048
832,0.0024735267150960694,0.6589494875549048
833,0.0024735267150960694,0.6593155197657394
834,0.0024785644477133733,0.6593155197657394
835,0.0024785644477133733,0.6598645680819912
836,0.0024836021803306767,0.6598645680819912
837,0.0024836021803306767,0.6600475841874085
838,0.002493677645565284,0.6600475841874085
839,0.002493677645565284,0.660413616398243
840,0.0024987153781825876,0.660413616398243
841,0.0024987153781825876,0.6606881405563689
842,0.002503753110799891,0.6606881405563689
843,0.002503753110799891,0.6613286969253295
844,0.0025138285760344984,0.6613286969253295
845,0.0025138285760344984,0.6619692532942899
846,0.002518866308651802,0.6619692532942899
847,0.002518866308651802,0.6621522693997072
848,0.002528941773886409,0.6621522693997072
849,0.002528941773886409,0.6624267935578331
850,0.0025390172391210166,0.6624267935578331
851,0.0025390172391210166,0.662701317715959
852,0.0025490927043556235,0.662701317715959
853,0.0025490927043556235,0.6627928257686676
854,0.0025541304369729274,0.6627928257686676
855,0.0025541304369729274,0.6628843338213762
856,0.0025642059022075343,0.6628843338213762
857,0.0025642059022075343,0.6629758418740849
858,0.0025692436348248382,0.6629758418740849
859,0.0025692436348248382,0.6636163982430454
860,0.0025742813674421417,0.6636163982430454
861,0.0025742813674421417,0.6638909224011713
862,0.002584356832676749,0.6638909224011713
863,0.002584356832676749,0.66398243045388
864,0.0025994700305286595,0.66398243045388
865,0.0025994700305286595,0.6643484626647145
866,0.0026045077631459634,0.6643484626647145
867,0.0026045077631459634,0.6645314787701317
868,0.0026145832283805703,0.6645314787701317
869,0.0026145832283805703,0.664714494875549
870,0.002619620960997874,0.664714494875549
871,0.002619620960997874,0.6652635431918009
872,0.0026246586936151776,0.6652635431918009
873,0.0026246586936151776,0.6653550512445096
874,0.002629696426232481,0.6653550512445096
875,0.002629696426232481,0.66599560761347
876,0.002634734158849785,0.66599560761347
877,0.002634734158849785,0.6660871156661786
878,0.0026397718914670885,0.6660871156661786
879,0.0026397718914670885,0.6668191800878477
880,0.002644809624084392,0.6668191800878477
881,0.002644809624084392,0.6670021961932651
882,0.002649847356701696,0.6670021961932651
883,0.002649847356701696,0.6675512445095169
884,0.0026548850893189993,0.6675512445095169
885,0.0026548850893189993,0.6679172767203514
886,0.0026599228219363028,0.6679172767203514
887,0.0026599228219363028,0.6687408491947291
888,0.0026649605545536067,0.6687408491947291
889,0.0026649605545536067,0.6688323572474377
890,0.00266999828717091,0.6688323572474377
891,0.00266999828717091,0.6695644216691069
892,0.0026750360197882136,0.6695644216691069
893,0.0026750360197882136,0.6701134699853587
894,0.0026901492176401244,0.6701134699853587
895,0.0026901492176401244,0.6702049780380673
896,0.0026951869502574283,0.6702049780380673
897,0.0026951869502574283,0.6703879941434846
898,0.002700224682874732,0.6703879941434846
899,0.002700224682874732,0.6704795021961932
900,0.0027052624154920353,0.6704795021961932
901,0.0027052624154920353,0.6708455344070278
902,0.0027153378807266426,0.6708455344070278
903,0.0027153378807266426,0.6710285505124451
904,0.002720375613343946,0.6710285505124451
905,0.002720375613343946,0.6712115666178624
906,0.0027254133459612495,0.6712115666178624
907,0.0027254133459612495,0.6716691068814056
908,0.0027304510785785534,0.6716691068814056
909,0.0027304510785785534,0.6718521229868228
910,0.002735488811195857,0.6718521229868228
911,0.002735488811195857,0.6720351390922401
912,0.0027405265438131604,0.6720351390922401
913,0.0027405265438131604,0.672309663250366
914,0.0027506020090477677,0.672309663250366
915,0.0027506020090477677,0.6726756954612005
916,0.002755639741665071,0.6726756954612005
917,0.002755639741665071,0.6731332357247438
918,0.002760677474282375,0.6731332357247438
919,0.002760677474282375,0.6734077598828697
920,0.0027657152068996786,0.6734077598828697
921,0.0027657152068996786,0.6734992679355783
922,0.002770752939516982,0.6734992679355783
923,0.002770752939516982,0.6737737920937042
924,0.0027959416026035002,0.6737737920937042
925,0.0027959416026035002,0.6740483162518301
926,0.002811054800455411,0.6740483162518301
927,0.002811054800455411,0.674322840409956
928,0.0028211302656900184,0.674322840409956
929,0.0028211302656900184,0.6744143484626647
930,0.002826167998307322,0.6744143484626647
931,0.002826167998307322,0.6745058565153733
932,0.0028312057309246253,0.6745058565153733
933,0.0028312057309246253,0.674871888726208
934,0.0028362434635419292,0.674871888726208
935,0.0028362434635419292,0.6749633967789166
936,0.0028412811961592327,0.6749633967789166
937,0.0028412811961592327,0.6752379209370425
938,0.002846318928776536,0.6752379209370425
939,0.002846318928776536,0.6753294289897511
940,0.002861432126628447,0.6753294289897511
941,0.002861432126628447,0.675603953147877
942,0.0028664698592457505,0.675603953147877
943,0.0028664698592457505,0.6757869692532943
944,0.0028715075918630544,0.6757869692532943
945,0.0028715075918630544,0.6759699853587116
946,0.0028916585223322687,0.6759699853587116
947,0.0028916585223322687,0.6764275256222547
948,0.002896696254949572,0.6764275256222547
949,0.002896696254949572,0.6779831625183016
950,0.002901733987566876,0.6779831625183016
951,0.002901733987566876,0.6782576866764275
952,0.0029067717201841795,0.6782576866764275
953,0.0029067717201841795,0.678623718887262
954,0.002911809452801483,0.678623718887262
955,0.002911809452801483,0.6792642752562226
956,0.0029218849180360903,0.6792642752562226
957,0.0029218849180360903,0.6794472913616398
958,0.0029319603832706977,0.6794472913616398
959,0.0029319603832706977,0.6798133235724744
960,0.002936998115888001,0.6798133235724744
961,0.002936998115888001,0.6799963396778916
962,0.0029420358485053046,0.6799963396778916
963,0.0029420358485053046,0.6802708638360175
964,0.002952111313739912,0.6802708638360175
965,0.002952111313739912,0.6809114202049781
966,0.0029621867789745193,0.6809114202049781
967,0.0029621867789745193,0.6810944363103953
968,0.002967224511591823,0.6810944363103953
969,0.002967224511591823,0.681185944363104
970,0.0029722622442091263,0.681185944363104
971,0.0029722622442091263,0.6820095168374817
972,0.00297729997682643,0.6820095168374817
973,0.00297729997682643,0.6822840409956076
974,0.0029823377094437336,0.6822840409956076
975,0.0029823377094437336,0.6826500732064422
976,0.002987375442061037,0.6826500732064422
977,0.002987375442061037,0.6827415812591509
978,0.0029924131746783406,0.6827415812591509
979,0.0029924131746783406,0.6829245973645681
980,0.0029974509072956445,0.6829245973645681
981,0.0029974509072956445,0.683199121522694
982,0.003002488639912948,0.683199121522694
983,0.003002488639912948,0.6832906295754027
984,0.0030075263725302514,0.6832906295754027
985,0.0030075263725302514,0.6842972181551976
986,0.0030125641051475553,0.6842972181551976
987,0.0030125641051475553,0.6848462664714495
988,0.003022639570382162,0.6848462664714495
989,0.003022639570382162,0.6853953147877013
990,0.003027677302999466,0.6853953147877013
991,0.003027677302999466,0.6858528550512445
992,0.003037752768234073,0.6858528550512445
993,0.003037752768234073,0.6859443631039531
994,0.003042790500851377,0.6859443631039531
995,0.003042790500851377,0.6863103953147877
996,0.0030478282334686804,0.6863103953147877
997,0.0030478282334686804,0.6877745241581259
998,0.0030629414313205912,0.6877745241581259
999,0.0030629414313205912,0.6882320644216691
1000,0.0030679791639378947,0.6882320644216691
1001,0.0030679791639378947,0.6884150805270863
1002,0.0030730168965551986,0.6884150805270863
1003,0.0030730168965551986,0.6890556368960469
1004,0.003078054629172502,0.6890556368960469
1005,0.003078054629172502,0.6892386530014641
1006,0.0030830923617898055,0.6892386530014641
1007,0.0030830923617898055,0.6894216691068814
1008,0.003093167827024413,0.6894216691068814
1009,0.003093167827024413,0.6896046852122987
1010,0.0031032432922590203,0.6896046852122987
1011,0.0031032432922590203,0.6897877013177159
1012,0.0031082810248763237,0.6897877013177159
1013,0.0031082810248763237,0.6898792093704246
1014,0.003113318757493627,0.6898792093704246
1015,0.003113318757493627,0.6904282576866764
1016,0.003118356490110931,0.6904282576866764
1017,0.003118356490110931,0.6906112737920937
1018,0.0031385074205801454,0.6906112737920937
1019,0.0031385074205801454,0.690794289897511
1020,0.003153620618432056,0.690794289897511
1021,0.003153620618432056,0.6910688140556369
1022,0.0031586583510493597,0.6910688140556369
1023,0.0031586583510493597,0.6913433382137628
1024,0.003168733816283967,0.6913433382137628
1025,0.003168733816283967,0.6914348462664714
1026,0.0031737715489012705,0.6914348462664714
1027,0.0031737715489012705,0.6916178623718887
1028,0.003178809281518574,0.6916178623718887
1029,0.003178809281518574,0.6920754026354319
1030,0.003183847014135878,0.6920754026354319
1031,0.003183847014135878,0.6925329428989752
1032,0.0031888847467531813,0.6925329428989752
1033,0.0031888847467531813,0.693081991215227
1034,0.0031989602119877887,0.693081991215227
1035,0.0031989602119877887,0.6931734992679356
1036,0.0032090356772223956,0.6931734992679356
1037,0.0032090356772223956,0.6932650073206442
1038,0.0032140734098396995,0.6932650073206442
1039,0.0032140734098396995,0.6933565153733529
1040,0.003219111142457003,0.6933565153733529
1041,0.003219111142457003,0.6935395314787701
1042,0.0032392620729262173,0.6935395314787701
1043,0.0032392620729262173,0.6936310395314788
1044,0.003244299805543521,0.6936310395314788
1045,0.003244299805543521,0.693814055636896
1046,0.0032493375381608246,0.693814055636896
1047,0.0032493375381608246,0.6939055636896047
1048,0.003254375270778128,0.6939055636896047
1049,0.003254375270778128,0.6939970717423133
1050,0.0032594130033954316,0.6939970717423133
1051,0.0032594130033954316,0.6940885797950219
1052,0.0032644507360127355,0.6940885797950219
1053,0.0032644507360127355,0.6942715959004392
1054,0.0032745262012473424,0.6942715959004392
1055,0.0032745262012473424,0.6944546120058566
1056,0.0032896393990992532,0.6944546120058566
1057,0.0032896393990992532,0.6946376281112738
1058,0.003294677131716557,0.6946376281112738
1059,0.003294677131716557,0.695095168374817
1060,0.003309790329568468,0.695095168374817
1061,0.003309790329568468,0.6951866764275256
1062,0.003319865794803075,0.6951866764275256
1063,0.003319865794803075,0.6954612005856515
1064,0.003324903527420379,0.6954612005856515
1065,0.003324903527420379,0.6956442166910688
1066,0.0033349789926549857,0.6956442166910688
1067,0.0033349789926549857,0.6961932650073206
1068,0.0033551299231242004,0.6961932650073206
1069,0.0033551299231242004,0.696376281112738
1070,0.003360167655741504,0.696376281112738
1071,0.003360167655741504,0.6967423133235725
1072,0.0033702431209761113,0.6967423133235725
1073,0.0033702431209761113,0.6968338213762811
1074,0.003385356318828022,0.6968338213762811
1075,0.003385356318828022,0.6969253294289898
1076,0.0033903940514453256,0.6969253294289898
1077,0.0033903940514453256,0.6970168374816984
1078,0.0034004695166799325,0.6970168374816984
1079,0.0034004695166799325,0.697108345534407
1080,0.00341054498191454,0.697108345534407
1081,0.00341054498191454,0.6972913616398243
1082,0.0034206204471491472,0.6972913616398243
1083,0.0034206204471491472,0.6976573938506588
1084,0.003430695912383754,0.6976573938506588
1085,0.003430695912383754,0.6984809663250366
1086,0.003435733645001058,0.6984809663250366
1087,0.003435733645001058,0.6985724743777453
1088,0.003445809110235665,0.6985724743777453
1089,0.003445809110235665,0.6986639824304539
1090,0.003450846842852969,0.6986639824304539
1091,0.003450846842852969,0.6987554904831625
1092,0.0034558845754702723,0.6987554904831625
1093,0.0034558845754702723,0.699396046852123
1094,0.003460922308087576,0.699396046852123
1095,0.003460922308087576,0.6994875549048316
1096,0.003470997773322183,0.6994875549048316
1097,0.003470997773322183,0.6997620790629575
1098,0.0034810732385567905,0.6997620790629575
1099,0.0034810732385567905,0.6998535871156661
1100,0.0034961864364087014,0.6998535871156661
1101,0.0034961864364087014,0.7000366032210834
1102,0.0035163373668779157,0.7000366032210834
1103,0.0035163373668779157,0.700128111273792
1104,0.003521375099495219,0.700128111273792
1105,0.003521375099495219,0.7002196193265008
1106,0.0035465637625817373,0.7002196193265008
1107,0.0035465637625817373,0.700677159590044
1108,0.0035516014951990408,0.700677159590044
1109,0.0035516014951990408,0.7008601756954612
1110,0.0035566392278163442,0.7008601756954612
1111,0.0035566392278163442,0.7010431918008785
1112,0.003561676960433648,0.7010431918008785
1113,0.003561676960433648,0.7015007320644217
1114,0.0035667146930509516,0.7015007320644217
1115,0.0035667146930509516,0.7015922401171303
1116,0.003576790158285559,0.7015922401171303
1117,0.003576790158285559,0.7016837481698389
1118,0.0035818278909028624,0.7016837481698389
1119,0.0035818278909028624,0.7018667642752562
1120,0.00359190335613747,0.7018667642752562
1121,0.00359190335613747,0.7019582723279648
1122,0.0035969410887547733,0.7019582723279648
1123,0.0035969410887547733,0.7025073206442167
1124,0.0036019788213720767,0.7025073206442167
1125,0.0036019788213720767,0.7030563689604685
1126,0.003612054286606684,0.7030563689604685
1127,0.003612054286606684,0.7032393850658858
1128,0.0036221297518412915,0.7032393850658858
1129,0.0036221297518412915,0.703696925329429
1130,0.0036322052170758984,0.703696925329429
1131,0.0036322052170758984,0.7041544655929722
1132,0.0036372429496932023,0.7041544655929722
1133,0.0036372429496932023,0.7044289897510981
1134,0.003647318414927809,0.7044289897510981
1135,0.003647318414927809,0.7046120058565154
1136,0.0036573938801624166,0.7046120058565154
1137,0.0036573938801624166,0.704703513909224
1138,0.0036674693453970235,0.704703513909224
1139,0.0036674693453970235,0.7052525622254758
1140,0.0036725070780143274,0.7052525622254758
1141,0.0036725070780143274,0.7054355783308931
1142,0.003677544810631631,0.7054355783308931
1143,0.003677544810631631,0.7055270863836017
1144,0.0036825825432489343,0.7055270863836017
1145,0.0036825825432489343,0.705710102489019
1146,0.003697695741100845,0.705710102489019
1147,0.003697695741100845,0.7058016105417276
1148,0.003712808938952756,0.7058016105417276
1149,0.003712808938952756,0.7060761346998536
1150,0.00371784667157006,0.7060761346998536
1151,0.00371784667157006,0.70699121522694
1152,0.0037228844041873634,0.70699121522694
1153,0.0037228844041873634,0.7076317715959004
1154,0.003727922136804667,0.7076317715959004
1155,0.003727922136804667,0.7078147877013177
1156,0.003753110799891185,0.7078147877013177
1157,0.003753110799891185,0.7079978038067349
1158,0.0037631862651257924,0.7079978038067349
1159,0.0037631862651257924,0.7080893118594437
1160,0.0037732617303603993,0.7080893118594437
1161,0.0037732617303603993,0.708272327964861
1162,0.003778299462977703,0.708272327964861
1163,0.003778299462977703,0.7086383601756955
1164,0.0037833371955950067,0.7086383601756955
1165,0.0037833371955950067,0.7087298682284041
1166,0.00378837492821231,0.7087298682284041
1167,0.00378837492821231,0.7089128843338214
1168,0.0037934126608296136,0.7089128843338214
1169,0.0037934126608296136,0.7090959004392386
1170,0.0037984503934469175,0.7090959004392386
1171,0.0037984503934469175,0.7094619326500732
1172,0.003803488126064221,0.7094619326500732
1173,0.003803488126064221,0.7098279648609077
1174,0.0038236390565334353,0.7098279648609077
1175,0.0038236390565334353,0.7099194729136163
1176,0.0038337145217680426,0.7099194729136163
1177,0.0038337145217680426,0.7100109809663251
1178,0.0038488277196199534,0.7100109809663251
1179,0.0038488277196199534,0.7103770131771596
1180,0.003858903184854561,0.7103770131771596
1181,0.003858903184854561,0.7104685212298683
1182,0.0038639409174718643,0.7104685212298683
1183,0.0038639409174718643,0.7105600292825769
1184,0.0038689786500891677,0.7105600292825769
1185,0.0038689786500891677,0.7106515373352855
1186,0.0038740163827064716,0.7106515373352855
1187,0.0038740163827064716,0.7107430453879942
1188,0.0038840918479410786,0.7107430453879942
1189,0.0038840918479410786,0.71101756954612
1190,0.0039143182436449,0.71101756954612
1191,0.0039143182436449,0.7111090775988287
1192,0.003934469174114115,0.7111090775988287
1193,0.003934469174114115,0.7113836017569546
1194,0.003939506906731418,0.7113836017569546
1195,0.003939506906731418,0.7114751098096632
1196,0.003944544639348722,0.7114751098096632
1197,0.003944544639348722,0.7118411420204978
1198,0.003949582371966026,0.7118411420204978
1199,0.003949582371966026,0.7119326500732065
1200,0.003954620104583329,0.7119326500732065
1201,0.003954620104583329,0.7122071742313324
1202,0.003959657837200633,0.7122071742313324
1203,0.003959657837200633,0.712298682284041
1204,0.003964695569817937,0.712298682284041
1205,0.003964695569817937,0.7127562225475842
1206,0.0039798087676698474,0.7127562225475842
1207,0.0039798087676698474,0.7134882869692533
1208,0.0039848465002871505,0.7134882869692533
1209,0.0039848465002871505,0.7137628111273792
1210,0.003994921965521758,0.7137628111273792
1211,0.003994921965521758,0.7138543191800878
1212,0.004015072895990972,0.7138543191800878
1213,0.004015072895990972,0.7140373352855052
1214,0.004020110628608276,0.7140373352855052
1215,0.004020110628608276,0.7142203513909224
1216,0.00402514836122558,0.7142203513909224
1217,0.00402514836122558,0.7144948755490483
1218,0.004030186093842883,0.7144948755490483
1219,0.004030186093842883,0.7147693997071742
1220,0.004035223826460187,0.7147693997071742
1221,0.004035223826460187,0.7151354319180088
1222,0.004040261559077491,0.7151354319180088
1223,0.004040261559077491,0.7154099560761347
1224,0.004045299291694794,0.7154099560761347
1225,0.004045299291694794,0.7156844802342606
1226,0.0040654502221640085,0.7156844802342606
1227,0.0040654502221640085,0.7161420204978038
1228,0.004080563420015919,0.7161420204978038
1229,0.004080563420015919,0.7162335285505125
1230,0.004090638885250526,0.7162335285505125
1231,0.004090638885250526,0.7165080527086384
1232,0.00409567661786783,0.7165080527086384
1233,0.00409567661786783,0.7174231332357247
1234,0.004100714350485134,0.7174231332357247
1235,0.004100714350485134,0.7175146412884333
1236,0.004110789815719741,0.7175146412884333
1237,0.004110789815719741,0.7176976573938506
1238,0.004115827548337045,0.7176976573938506
1239,0.004115827548337045,0.7179721815519766
1240,0.004125903013571652,0.7179721815519766
1241,0.004125903013571652,0.718612737920937
1242,0.004130940746188955,0.718612737920937
1243,0.004130940746188955,0.7187042459736457
1244,0.004135978478806259,0.7187042459736457
1245,0.004135978478806259,0.7187957540263543
1246,0.004141016211423563,0.7187957540263543
1247,0.004141016211423563,0.718887262079063
1248,0.00415109167665817,0.718887262079063
1249,0.00415109167665817,0.7189787701317716
1250,0.0041611671418927765,0.7189787701317716
1251,0.0041611671418927765,0.7194363103953147
1252,0.00416620487451008,0.7194363103953147
1253,0.00416620487451008,0.7201683748169839
1254,0.004176280339744687,0.7201683748169839
1255,0.004176280339744687,0.7204428989751098
1256,0.004181318072361991,0.7204428989751098
1257,0.004181318072361991,0.7208089311859444
1258,0.004186355804979295,0.7208089311859444
1259,0.004186355804979295,0.720900439238653
1260,0.004211544468065813,0.720900439238653
1261,0.004211544468065813,0.7209919472913616
1262,0.004216582200683117,0.7209919472913616
1263,0.004216582200683117,0.7211749633967789
1264,0.00422161993330042,0.7211749633967789
1265,0.00422161993330042,0.7213579795021962
1266,0.004226657665917724,0.7213579795021962
1267,0.004226657665917724,0.7219070278184481
1268,0.004236733131152331,0.7219070278184481
1269,0.004236733131152331,0.7219985358711567
1270,0.0042417708637696346,0.7219985358711567
1271,0.0042417708637696346,0.7226390922401171
1272,0.004256884061621545,0.7226390922401171
1273,0.004256884061621545,0.7231881405563689
1274,0.004271997259473456,0.7231881405563689
1275,0.004271997259473456,0.7233711566617862
1276,0.00427703499209076,0.7233711566617862
1277,0.00427703499209076,0.7234626647144948
1278,0.004282072724708063,0.7234626647144948
1279,0.004282072724708063,0.7235541727672035
1280,0.004302223655177278,0.7235541727672035
1281,0.004302223655177278,0.7238286969253295
1282,0.004307261387794582,0.7238286969253295
1283,0.004307261387794582,0.7242862371888726
1284,0.004322374585646493,0.7242862371888726
1285,0.004322374585646493,0.7243777452415813
1286,0.004327412318263796,0.7243777452415813
1287,0.004327412318263796,0.7244692532942899
1288,0.004337487783498403,0.7244692532942899
1289,0.004337487783498403,0.7247437774524158
1290,0.0043425255161157065,0.7247437774524158
1291,0.0043425255161157065,0.7251098096632503
1292,0.00434756324873301,0.7251098096632503
1293,0.00434756324873301,0.7259333821376281
1294,0.004372751911819528,0.7259333821376281
1295,0.004372751911819528,0.7260248901903368
1296,0.004377789644436832,0.7260248901903368
1297,0.004377789644436832,0.72648243045388
1298,0.004408016040140654,0.72648243045388
1299,0.004408016040140654,0.7266654465592972
1300,0.0044281669706098675,0.7266654465592972
1301,0.0044281669706098675,0.7271229868228404
1302,0.004433204703227171,0.7271229868228404
1303,0.004433204703227171,0.727214494875549
1304,0.004438242435844475,0.727214494875549
1305,0.004438242435844475,0.7273975109809663
1306,0.004443280168461778,0.7273975109809663
1307,0.004443280168461778,0.7275805270863837
1308,0.004453355633696386,0.7275805270863837
1309,0.004453355633696386,0.7282210834553441
1310,0.004463431098930993,0.7282210834553441
1311,0.004463431098930993,0.7284040995607614
1312,0.004468468831548297,0.7284040995607614
1313,0.004468468831548297,0.7288616398243045
1314,0.004478544296782904,0.7288616398243045
1315,0.004478544296782904,0.729227672035139
1316,0.004488619762017511,0.729227672035139
1317,0.004488619762017511,0.7295021961932651
1318,0.0045138084251040295,0.7295021961932651
1319,0.0045138084251040295,0.7298682284040996
1320,0.0045188461577213325,0.7298682284040996
1321,0.0045188461577213325,0.7299597364568082
1322,0.004523883890338636,0.7299597364568082
1323,0.004523883890338636,0.7303257686676428
1324,0.00452892162295594,0.7303257686676428
1325,0.00452892162295594,0.7308748169838946
1326,0.004538997088190547,0.7308748169838946
1327,0.004538997088190547,0.7313323572474377
1328,0.004544034820807851,0.7313323572474377
1329,0.004544034820807851,0.7314238653001464
1330,0.004559148018659762,0.7314238653001464
1331,0.004559148018659762,0.7315153733528551
1332,0.00458433668174628,0.7315153733528551
1333,0.00458433668174628,0.7316983894582724
1334,0.004589374414363584,0.7316983894582724
1335,0.004589374414363584,0.7318814055636896
1336,0.004594412146980887,0.7318814055636896
1337,0.004594412146980887,0.7319729136163983
1338,0.0045994498795981905,0.7319729136163983
1339,0.0045994498795981905,0.7320644216691069
1340,0.0046095253448327975,0.7320644216691069
1341,0.0046095253448327975,0.7324304538799414
1342,0.004614563077450101,0.7324304538799414
1343,0.004614563077450101,0.7325219619326501
1344,0.004624638542684708,0.7325219619326501
1345,0.004624638542684708,0.7326134699853587
1346,0.004629676275302012,0.7326134699853587
1347,0.004629676275302012,0.7327049780380673
1348,0.004639751740536619,0.7327049780380673
1349,0.004639751740536619,0.732796486090776
1350,0.004644789473153923,0.732796486090776
1351,0.004644789473153923,0.7328879941434846
1352,0.004649827205771226,0.7328879941434846
1353,0.004649827205771226,0.7329795021961932
1354,0.00465486493838853,0.7329795021961932
1355,0.00465486493838853,0.7330710102489019
1356,0.004659902671005834,0.7330710102489019
1357,0.004659902671005834,0.7336200585651538
1358,0.004664940403623137,0.7336200585651538
1359,0.004664940403623137,0.7337115666178624
1360,0.004675015868857745,0.7337115666178624
1361,0.004675015868857745,0.7339860907759883
1362,0.004680053601475048,0.7339860907759883
1363,0.004680053601475048,0.7343521229868228
1364,0.0046951667993269585,0.7343521229868228
1365,0.0046951667993269585,0.7344436310395315
1366,0.0047002045319442624,0.7344436310395315
1367,0.0047002045319442624,0.7345351390922401
1368,0.004705242264561566,0.7345351390922401
1369,0.004705242264561566,0.7347181551976574
1370,0.004715317729796173,0.7347181551976574
1371,0.004715317729796173,0.734809663250366
1372,0.004720355462413477,0.734809663250366
1373,0.004720355462413477,0.7350841874084919
1374,0.004735468660265388,0.7350841874084919
1375,0.004735468660265388,0.7352672035139092
1376,0.004740506392882691,0.7352672035139092
1377,0.004740506392882691,0.7353587115666179
1378,0.004745544125499995,0.7353587115666179
1379,0.004745544125499995,0.7355417276720352
1380,0.004750581858117299,0.7355417276720352
1381,0.004750581858117299,0.7359077598828697
1382,0.004760657323351906,0.7359077598828697
1383,0.004760657323351906,0.7362737920937042
1384,0.00476569505596921,0.7362737920937042
1385,0.00476569505596921,0.7363653001464129
1386,0.004775770521203817,0.7363653001464129
1387,0.004775770521203817,0.7367313323572474
1388,0.004790883719055727,0.7367313323572474
1389,0.004790883719055727,0.736822840409956
1390,0.004800959184290334,0.736822840409956
1391,0.004800959184290334,0.737097364568082
1392,0.004816072382142245,0.737097364568082
1393,0.004816072382142245,0.7372803806734992
1394,0.004821110114759549,0.7372803806734992
1395,0.004821110114759549,0.7374633967789166
1396,0.004826147847376853,0.7374633967789166
1397,0.004826147847376853,0.7375549048316252
1398,0.004831185579994156,0.7375549048316252
1399,0.004831185579994156,0.7376464128843339
1400,0.00483622331261146,0.7376464128843339
1401,0.00483622331261146,0.7378294289897511
1402,0.004841261045228764,0.7378294289897511
1403,0.004841261045228764,0.7380124450951684
1404,0.004846298777846067,0.7380124450951684
1405,0.004846298777846067,0.7382869692532943
1406,0.004851336510463371,0.7382869692532943
1407,0.004851336510463371,0.7383784773060029
1408,0.004856374243080675,0.7383784773060029
1409,0.004856374243080675,0.7384699853587116
1410,0.0048664497083152815,0.7384699853587116
1411,0.0048664497083152815,0.7385614934114202
1412,0.004881562906167192,0.7385614934114202
1413,0.004881562906167192,0.7386530014641288
1414,0.004886600638784496,0.7386530014641288
1415,0.004886600638784496,0.7387445095168375
1416,0.004896676104019103,0.7387445095168375
1417,0.004896676104019103,0.7390190336749634
1418,0.004901713836636407,0.7390190336749634
1419,0.004901713836636407,0.739110541727672
1420,0.004916827034488317,0.739110541727672
1421,0.004916827034488317,0.7392020497803806
1422,0.004921864767105621,0.7392020497803806
1423,0.004921864767105621,0.739385065885798
1424,0.004947053430192139,0.739385065885798
1425,0.004947053430192139,0.7398426061493412
1426,0.0049571288954267465,0.7398426061493412
1427,0.0049571288954267465,0.7400256222547584
1428,0.0049621666280440496,0.7400256222547584
1429,0.0049621666280440496,0.7403001464128843
1430,0.0049672043606613535,0.7403001464128843
1431,0.0049672043606613535,0.740391654465593
1432,0.00497727982589596,0.740391654465593
1433,0.00497727982589596,0.7404831625183016
1434,0.004982317558513264,0.7404831625183016
1435,0.004982317558513264,0.7405746705710102
1436,0.004992393023747871,0.7405746705710102
1437,0.004992393023747871,0.7406661786237189
1438,0.005002468488982479,0.7406661786237189
1439,0.005002468488982479,0.7409407027818448
1440,0.005007506221599782,0.7409407027818448
1441,0.005007506221599782,0.741123718887262
1442,0.005022619419451693,0.741123718887262
1443,0.005022619419451693,0.7412152269399708
1444,0.005037732617303604,0.7412152269399708
1445,0.005037732617303604,0.7414897510980967
1446,0.005042770349920908,0.7414897510980967
1447,0.005042770349920908,0.7415812591508053
1448,0.0050478080825382115,0.7415812591508053
1449,0.0050478080825382115,0.7416727672035139
1450,0.0050528458151555145,0.7416727672035139
1451,0.0050528458151555145,0.7418557833089312
1452,0.005067959013007425,0.7418557833089312
1453,0.005067959013007425,0.7419472913616398
1454,0.005072996745624729,0.7419472913616398
1455,0.005072996745624729,0.7424963396778916
1456,0.005078034478242033,0.7424963396778916
1457,0.005078034478242033,0.7430453879941434
1458,0.005108260873945855,0.7430453879941434
1459,0.005108260873945855,0.7431368960468521
1460,0.005113298606563158,0.7431368960468521
1461,0.005113298606563158,0.7432284040995608
1462,0.005123374071797766,0.7432284040995608
1463,0.005123374071797766,0.7435029282576867
1464,0.005128411804415069,0.7435029282576867
1465,0.005128411804415069,0.7435944363103953
1466,0.0051334495370323726,0.7435944363103953
1467,0.0051334495370323726,0.743685944363104
1468,0.0051435250022669795,0.743685944363104
1469,0.0051435250022669795,0.7437774524158126
1470,0.005148562734884283,0.7437774524158126
1471,0.005148562734884283,0.7438689604685212
1472,0.005178789130588105,0.7438689604685212
1473,0.005178789130588105,0.7442349926793558
1474,0.005183826863205408,0.7442349926793558
1475,0.005183826863205408,0.744418008784773
1476,0.005193902328440016,0.744418008784773
1477,0.005193902328440016,0.7446010248901903
1478,0.005198940061057319,0.7446010248901903
1479,0.005198940061057319,0.7449670571010248
1480,0.005203977793674623,0.7449670571010248
1481,0.005203977793674623,0.7450585651537335
1482,0.0052241287241438375,0.7450585651537335
1483,0.0052241287241438375,0.7453330893118595
1484,0.0052342041893784445,0.7453330893118595
1485,0.0052342041893784445,0.7455161054172768
1486,0.005239241921995748,0.7455161054172768
1487,0.005239241921995748,0.745699121522694
1488,0.005244279654613051,0.745699121522694
1489,0.005244279654613051,0.7458821376281113
1490,0.005249317387230355,0.7458821376281113
1491,0.005249317387230355,0.7461566617862372
1492,0.005254355119847659,0.7461566617862372
1493,0.005254355119847659,0.7464311859443631
1494,0.005264430585082266,0.7464311859443631
1495,0.005264430585082266,0.7465226939970717
1496,0.00526946831769957,0.7465226939970717
1497,0.00526946831769957,0.7468887262079063
1498,0.005274506050316873,0.7468887262079063
1499,0.005274506050316873,0.7470717423133236
1500,0.005279543782934177,0.7470717423133236
1501,0.005279543782934177,0.7472547584187409
1502,0.005284581515551481,0.7472547584187409
1503,0.005284581515551481,0.7473462664714495
1504,0.005289619248168784,0.7473462664714495
1505,0.005289619248168784,0.7474377745241582
1506,0.005304732446020695,0.7474377745241582
1507,0.005304732446020695,0.7478038067349927
1508,0.005309770178637999,0.7478038067349927
1509,0.005309770178637999,0.7480783308931186
1510,0.0053148079112553025,0.7480783308931186
1511,0.0053148079112553025,0.7482613469985359
1512,0.0053248833764899094,0.7482613469985359
1513,0.0053248833764899094,0.748718887262079
1514,0.005329921109107213,0.748718887262079
1515,0.005329921109107213,0.7490849194729137
1516,0.005334958841724516,0.7490849194729137
1517,0.005334958841724516,0.7493594436310396
1518,0.00533999657434182,0.7493594436310396
1519,0.00533999657434182,0.7495424597364568
1520,0.005345034306959124,0.7495424597364568
1521,0.005345034306959124,0.7497254758418741
1522,0.005350072039576427,0.7497254758418741
1523,0.005350072039576427,0.7500915080527086
1524,0.005355109772193731,0.7500915080527086
1525,0.005355109772193731,0.7501830161054173
1526,0.005360147504811035,0.7501830161054173
1527,0.005360147504811035,0.7502745241581259
1528,0.005370222970045642,0.7502745241581259
1529,0.005370222970045642,0.7505490483162518
1530,0.005375260702662946,0.7505490483162518
1531,0.005375260702662946,0.7507320644216691
1532,0.005385336167897553,0.7507320644216691
1533,0.005385336167897553,0.7508235724743777
1534,0.005390373900514857,0.7508235724743777
1535,0.005390373900514857,0.7514641288433382
1536,0.00539541163313216,0.7514641288433382
1537,0.00539541163313216,0.7516471449487555
1538,0.005400449365749464,0.7516471449487555
1539,0.005400449365749464,0.7519216691068814
1540,0.005415562563601374,0.7519216691068814
1541,0.005415562563601374,0.75201317715959
1542,0.005420600296218678,0.75201317715959
1543,0.005420600296218678,0.7521046852122987
1544,0.005425638028835981,0.7521046852122987
1545,0.005425638028835981,0.7525622254758418
1546,0.005435713494070589,0.7525622254758418
1547,0.005435713494070589,0.7526537335285505
1548,0.005450826691922499,0.7526537335285505
1549,0.005450826691922499,0.7527452415812591
1550,0.005455864424539803,0.7527452415812591
1551,0.005455864424539803,0.7528367496339677
1552,0.005460902157157107,0.7528367496339677
1553,0.005460902157157107,0.7531112737920937
1554,0.00546593988977441,0.7531112737920937
1555,0.00546593988977441,0.7532027818448024
1556,0.005476015355009018,0.7532027818448024
1557,0.005476015355009018,0.753294289897511
1558,0.005481053087626321,0.753294289897511
1559,0.005481053087626321,0.7534773060029283
1560,0.0055012040180955355,0.7534773060029283
1561,0.0055012040180955355,0.7536603221083455
1562,0.005506241750712839,0.7536603221083455
1563,0.005506241750712839,0.7538433382137628
1564,0.005516317215947446,0.7538433382137628
1565,0.005516317215947446,0.7542093704245973
1566,0.00552135494856475,0.7542093704245973
1567,0.00552135494856475,0.7543923865300146
1568,0.005526392681182053,0.7543923865300146
1569,0.005526392681182053,0.7545754026354319
1570,0.005531430413799357,0.7545754026354319
1571,0.005531430413799357,0.7546669106881405
1572,0.005546543611651268,0.7546669106881405
1573,0.005546543611651268,0.7551244509516838
1574,0.005561656809503179,0.7551244509516838
1575,0.005561656809503179,0.7552159590043924
1576,0.00557677000735509,0.7552159590043924
1577,0.00557677000735509,0.7556734992679356
1578,0.0055818077399723935,0.7556734992679356
1579,0.0055818077399723935,0.7557650073206442
1580,0.0055918832052070004,0.7557650073206442
1581,0.0055918832052070004,0.7558565153733529
1582,0.005601958670441607,0.7558565153733529
1583,0.005601958670441607,0.7559480234260615
1584,0.005617071868293518,0.7559480234260615
1585,0.005617071868293518,0.756314055636896
1586,0.005627147333528126,0.756314055636896
1587,0.005627147333528126,0.7564055636896047
1588,0.00564729826399734,0.7564055636896047
1589,0.00564729826399734,0.7567715959004392
1590,0.005652335996614644,0.7567715959004392
1591,0.005652335996614644,0.7568631039531479
1592,0.005657373729231948,0.7568631039531479
1593,0.005657373729231948,0.7575036603221084
1594,0.005662411461849251,0.7575036603221084
1595,0.005662411461849251,0.7576866764275256
1596,0.0056775246597011615,0.7576866764275256
1597,0.0056775246597011615,0.7578696925329429
1598,0.005682562392318465,0.7578696925329429
1599,0.005682562392318465,0.7579612005856515
1600,0.00570271332278768,0.7579612005856515
1601,0.00570271332278768,0.7581442166910688
1602,0.005707751055404983,0.7581442166910688
1603,0.005707751055404983,0.7582357247437774
1604,0.005722864253256894,0.7582357247437774
1605,0.005722864253256894,0.7585102489019033
1606,0.005727901985874198,0.7585102489019033
1607,0.005727901985874198,0.7586932650073206
1608,0.005732939718491501,0.7586932650073206
1609,0.005732939718491501,0.7587847730600292
1610,0.005737977451108805,0.7587847730600292
1611,0.005737977451108805,0.7590592972181552
1612,0.005743015183726109,0.7590592972181552
1613,0.005743015183726109,0.7591508052708639
1614,0.005753090648960716,0.7591508052708639
1615,0.005753090648960716,0.7592423133235725
1616,0.0057581283815780196,0.7592423133235725
1617,0.0057581283815780196,0.759608345534407
1618,0.005763166114195323,0.759608345534407
1619,0.005763166114195323,0.7601573938506588
1620,0.005783317044664537,0.7601573938506588
1621,0.005783317044664537,0.7604319180087847
1622,0.005793392509899144,0.7604319180087847
1623,0.005793392509899144,0.760614934114202
1624,0.005798430242516448,0.760614934114202
1625,0.005798430242516448,0.760889458272328
1626,0.005803467975133752,0.760889458272328
1627,0.005803467975133752,0.7609809663250366
1628,0.005813543440368359,0.7609809663250366
1629,0.005813543440368359,0.7610724743777453
1630,0.005823618905602966,0.7610724743777453
1631,0.005823618905602966,0.7612554904831625
1632,0.0058488075686894845,0.7612554904831625
1633,0.0058488075686894845,0.7615300146412884
1634,0.0058588830339240915,0.7615300146412884
1635,0.0058588830339240915,0.7617130307467057
1636,0.005863920766541395,0.7617130307467057
1637,0.005863920766541395,0.7618045387994143
1638,0.005889109429627913,0.7618045387994143
1639,0.005889109429627913,0.7619875549048316
1640,0.005904222627479824,0.7619875549048316
1641,0.005904222627479824,0.7620790629575402
1642,0.005909260360097128,0.7620790629575402
1643,0.005909260360097128,0.7621705710102489
1644,0.005924373557949039,0.7621705710102489
1645,0.005924373557949039,0.7623535871156661
1646,0.0059394867558009495,0.7623535871156661
1647,0.0059394867558009495,0.7624450951683748
1648,0.005949562221035556,0.7624450951683748
1649,0.005949562221035556,0.7625366032210834
1650,0.005959637686270163,0.7625366032210834
1651,0.005959637686270163,0.762902635431918
1652,0.005964675418887467,0.762902635431918
1653,0.005964675418887467,0.7629941434846267
1654,0.005969713151504771,0.7629941434846267
1655,0.005969713151504771,0.7630856515373353
1656,0.005974750884122074,0.7630856515373353
1657,0.005974750884122074,0.7632686676427526
1658,0.006004977279825896,0.7632686676427526
1659,0.006004977279825896,0.7633601756954612
1660,0.006015052745060503,0.7633601756954612
1661,0.006015052745060503,0.7636346998535871
1662,0.006020090477677807,0.7636346998535871
1663,0.006020090477677807,0.7637262079062958
1664,0.006030165942912414,0.7637262079062958
1665,0.006030165942912414,0.7641837481698389
1666,0.006040241408147021,0.7641837481698389
1667,0.006040241408147021,0.7644582723279648
1668,0.006050316873381628,0.7644582723279648
1669,0.006050316873381628,0.7645497803806734
1670,0.006055354605998932,0.7645497803806734
1671,0.006055354605998932,0.7649158125915081
1672,0.006060392338616235,0.7649158125915081
1673,0.006060392338616235,0.7650988286969254
1674,0.006065430071233539,0.7650988286969254
1675,0.006065430071233539,0.7652818448023426
1676,0.00608054326908545,0.7652818448023426
1677,0.00608054326908545,0.7653733528550513
1678,0.006100694199554665,0.7653733528550513
1679,0.006100694199554665,0.7654648609077599
1680,0.006105731932171968,0.7654648609077599
1681,0.006105731932171968,0.7655563689604685
1682,0.006140996060493093,0.7655563689604685
1683,0.006140996060493093,0.7658308931185944
1684,0.006156109258345004,0.7658308931185944
1685,0.006156109258345004,0.7659224011713031
1686,0.006171222456196915,0.7659224011713031
1687,0.006171222456196915,0.7661054172767203
1688,0.006181297921431522,0.7661054172767203
1689,0.006181297921431522,0.766196925329429
1690,0.006201448851900737,0.766196925329429
1691,0.006201448851900737,0.7662884333821376
1692,0.0062115243171353435,0.7662884333821376
1693,0.0062115243171353435,0.7664714494875549
1694,0.0062165620497526474,0.7664714494875549
1695,0.0062165620497526474,0.7667459736456809
1696,0.006226637514987254,0.7667459736456809
1697,0.006226637514987254,0.7668374816983895
1698,0.006231675247604558,0.7668374816983895
1699,0.006231675247604558,0.7670204978038068
1700,0.006236712980221862,0.7670204978038068
1701,0.006236712980221862,0.7671120058565154
1702,0.006251826178073772,0.7671120058565154
1703,0.006251826178073772,0.7672950219619327
1704,0.006256863910691076,0.7672950219619327
1705,0.006256863910691076,0.7674780380673499
1706,0.006271977108542987,0.7674780380673499
1707,0.006271977108542987,0.7679355783308931
1708,0.006277014841160291,0.7679355783308931
1709,0.006277014841160291,0.7683931185944363
1710,0.006287090306394898,0.7683931185944363
1711,0.006287090306394898,0.7686676427525623
1712,0.006292128039012202,0.7686676427525623
1713,0.006292128039012202,0.7687591508052709
1714,0.0063022035042468085,0.7687591508052709
1715,0.0063022035042468085,0.7689421669106882
1716,0.006307241236864112,0.7689421669106882
1717,0.006307241236864112,0.7690336749633968
1718,0.0063122789694814154,0.7690336749633968
1719,0.0063122789694814154,0.7693081991215227
1720,0.006317316702098719,0.7693081991215227
1721,0.006317316702098719,0.7696742313323572
1722,0.006327392167333326,0.7696742313323572
1723,0.006327392167333326,0.7697657393850659
1724,0.006357618563037148,0.7697657393850659
1725,0.006357618563037148,0.7698572474377745
1726,0.006372731760889059,0.7698572474377745
1727,0.006372731760889059,0.770223279648609
1728,0.006377769493506363,0.770223279648609
1729,0.006377769493506363,0.7703147877013177
1730,0.0063828072261236666,0.7703147877013177
1731,0.0063828072261236666,0.7704978038067349
1732,0.00638784495874097,0.7704978038067349
1733,0.00638784495874097,0.770772327964861
1734,0.0063928826913582735,0.770772327964861
1735,0.0063928826913582735,0.7709553440702782
1736,0.006397920423975577,0.7709553440702782
1737,0.006397920423975577,0.7710468521229868
1738,0.00640295815659288,0.7710468521229868
1739,0.00640295815659288,0.7711383601756955
1740,0.006407995889210184,0.7711383601756955
1741,0.006407995889210184,0.7713213762811127
1742,0.006418071354444791,0.7713213762811127
1743,0.006418071354444791,0.7718704245973645
1744,0.006428146819679399,0.7718704245973645
1745,0.006428146819679399,0.7719619326500732
1746,0.006438222284914006,0.7719619326500732
1747,0.006438222284914006,0.7721449487554904
1748,0.0064785241458524346,0.7721449487554904
1749,0.0064785241458524346,0.7722364568081991
1750,0.0064835618784697385,0.7722364568081991
1751,0.0064835618784697385,0.7723279648609077
1752,0.006493637343704345,0.7723279648609077
1753,0.006493637343704345,0.7724194729136163
1754,0.006503712808938953,0.7724194729136163
1755,0.006503712808938953,0.7726024890190337
1756,0.006528901472025471,0.7726024890190337
1757,0.006528901472025471,0.7726939970717424
1758,0.006533939204642774,0.7726939970717424
1759,0.006533939204642774,0.772785505124451
1760,0.006549052402494685,0.772785505124451
1761,0.006549052402494685,0.7728770131771596
1762,0.006564165600346596,0.7728770131771596
1763,0.006564165600346596,0.7729685212298683
1764,0.0065692033329638995,0.7729685212298683
1765,0.0065692033329638995,0.7730600292825769
1766,0.006574241065581203,0.7730600292825769
1767,0.006574241065581203,0.7731515373352855
1768,0.006589354263433114,0.7731515373352855
1769,0.006589354263433114,0.7732430453879942
1770,0.006609505193902328,0.7732430453879942
1771,0.006609505193902328,0.7733345534407028
1772,0.006634693856988847,0.7733345534407028
1773,0.006634693856988847,0.7734260614934114
1774,0.006649807054840758,0.7734260614934114
1775,0.006649807054840758,0.77351756954612
1776,0.006654844787458061,0.77351756954612
1777,0.006654844787458061,0.7736090775988287
1778,0.006664920252692668,0.7736090775988287
1779,0.006664920252692668,0.773792093704246
1780,0.006674995717927275,0.773792093704246
1781,0.006674995717927275,0.7738836017569546
1782,0.006680033450544579,0.7738836017569546
1783,0.006680033450544579,0.7739751098096632
1784,0.006685071183161882,0.7739751098096632
1785,0.006685071183161882,0.7740666178623719
1786,0.006690108915779186,0.7740666178623719
1787,0.006690108915779186,0.7741581259150805
1788,0.00669514664839649,0.7741581259150805
1789,0.00669514664839649,0.7742496339677891
1790,0.006700184381013793,0.7742496339677891
1791,0.006700184381013793,0.7744326500732065
1792,0.006705222113631097,0.7744326500732065
1793,0.006705222113631097,0.7745241581259151
1794,0.006715297578865704,0.7745241581259151
1795,0.006715297578865704,0.7746156661786238
1796,0.006720335311483008,0.7746156661786238
1797,0.006720335311483008,0.774798682284041
1798,0.006730410776717615,0.774798682284041
1799,0.006730410776717615,0.7749816983894583
1800,0.006735448509334919,0.7749816983894583
1801,0.006735448509334919,0.7754392386530015
1802,0.006745523974569526,0.7754392386530015
1803,0.006745523974569526,0.7756222547584187
1804,0.0067505617071868295,0.7756222547584187
1805,0.0067505617071868295,0.7758967789165446
1806,0.006755599439804133,0.7758967789165446
1807,0.006755599439804133,0.7759882869692533
1808,0.006760637172421436,0.7759882869692533
1809,0.006760637172421436,0.7763543191800878
1810,0.006785825835507954,0.7763543191800878
1811,0.006785825835507954,0.7764458272327965
1812,0.006805976765977169,0.7764458272327965
1813,0.006805976765977169,0.7767203513909224
1814,0.006811014498594473,0.7767203513909224
1815,0.006811014498594473,0.7769948755490483
1816,0.00682108996382908,0.7769948755490483
1817,0.00682108996382908,0.777086383601757
1818,0.0068362031616809905,0.777086383601757
1819,0.0068362031616809905,0.7771778916544656
1820,0.0068412408942982944,0.7771778916544656
1821,0.0068412408942982944,0.7772693997071742
1822,0.0068462786269155975,0.7772693997071742
1823,0.0068462786269155975,0.7774524158125915
1824,0.006851316359532901,0.7774524158125915
1825,0.006851316359532901,0.7775439238653001
1826,0.006866429557384812,0.7775439238653001
1827,0.006866429557384812,0.7776354319180088
1828,0.006886580487854027,0.7776354319180088
1829,0.006886580487854027,0.777818448023426
1830,0.006896655953088634,0.777818448023426
1831,0.006896655953088634,0.7780014641288433
1832,0.006911769150940545,0.7780014641288433
1833,0.006911769150940545,0.7781844802342606
1834,0.006941995546644366,0.7781844802342606
1835,0.006941995546644366,0.7784590043923866
1836,0.006952071011878973,0.7784590043923866
1837,0.006952071011878973,0.7787335285505125
1838,0.006967184209730884,0.7787335285505125
1839,0.006967184209730884,0.7793740849194729
1840,0.006977259674965492,0.7793740849194729
1841,0.006977259674965492,0.7794655929721815
1842,0.007032674733755831,0.7794655929721815
1843,0.007032674733755831,0.7796486090775988
1844,0.007037712466373135,0.7796486090775988
1845,0.007037712466373135,0.7800146412884333
1846,0.007057863396842349,0.7800146412884333
1847,0.007057863396842349,0.7801976573938506
1848,0.007062901129459653,0.7801976573938506
1849,0.007062901129459653,0.780380673499268
1850,0.007078014327311564,0.780380673499268
1851,0.007078014327311564,0.7806551976573939
1852,0.007083052059928867,0.7806551976573939
1853,0.007083052059928867,0.7807467057101025
1854,0.0071032029903980816,0.7807467057101025
1855,0.0071032029903980816,0.781112737920937
1856,0.007123353920867296,0.781112737920937
1857,0.007123353920867296,0.7812042459736457
1858,0.007128391653484599,0.7812042459736457
1859,0.007128391653484599,0.7812957540263543
1860,0.007148542583953814,0.7812957540263543
1861,0.007148542583953814,0.781387262079063
1862,0.007158618049188421,0.781387262079063
1863,0.007158618049188421,0.7817532942898975
1864,0.007173731247040332,0.7817532942898975
1865,0.007173731247040332,0.7819363103953147
1866,0.00718380671227494,0.7819363103953147
1867,0.00718380671227494,0.782119326500732
1868,0.007188844444892243,0.782119326500732
1869,0.007188844444892243,0.7822108345534406
1870,0.0071938821775095465,0.7822108345534406
1871,0.0071938821775095465,0.782393850658858
1872,0.0072039576427441535,0.782393850658858
1873,0.0072039576427441535,0.7824853587115667
1874,0.007208995375361457,0.7824853587115667
1875,0.007208995375361457,0.7825768667642753
1876,0.007219070840596064,0.7825768667642753
1877,0.007219070840596064,0.7826683748169839
1878,0.00725433496891719,0.7826683748169839
1879,0.00725433496891719,0.7827598828696926
1880,0.007259372701534494,0.7827598828696926
1881,0.007259372701534494,0.7829428989751098
1882,0.007274485899386405,0.7829428989751098
1883,0.007274485899386405,0.7831259150805271
1884,0.0072845613646210115,0.7831259150805271
1885,0.0072845613646210115,0.783400439238653
1886,0.007299674562472922,0.783400439238653
1887,0.007299674562472922,0.7834919472913616
1888,0.007314787760324833,0.7834919472913616
1889,0.007314787760324833,0.7835834553440703
1890,0.007329900958176744,0.7835834553440703
1891,0.007329900958176744,0.7836749633967789
1892,0.007334938690794047,0.7836749633967789
1893,0.007334938690794047,0.7838579795021962
1894,0.007345014156028655,0.7838579795021962
1895,0.007345014156028655,0.7839494875549048
1896,0.007370202819115173,0.7839494875549048
1897,0.007370202819115173,0.7841325036603221
1898,0.0073802782843497795,0.7841325036603221
1899,0.0073802782843497795,0.7842240117130308
1900,0.007385316016967083,0.7842240117130308
1901,0.007385316016967083,0.7844070278184481
1902,0.007405466947436298,0.7844070278184481
1903,0.007405466947436298,0.784681551976574
1904,0.007410504680053601,0.784681551976574
1905,0.007410504680053601,0.7848645680819912
1906,0.007420580145288209,0.7848645680819912
1907,0.007420580145288209,0.7850475841874085
1908,0.007455844273609334,0.7850475841874085
1909,0.007455844273609334,0.7853221083455344
1910,0.007475995204078548,0.7853221083455344
1911,0.007475995204078548,0.7857796486090776
1912,0.007501183867165066,0.7857796486090776
1913,0.007501183867165066,0.7858711566617862
1914,0.00750622159978237,0.7858711566617862
1915,0.00750622159978237,0.7860541727672035
1916,0.007511259332399674,0.7860541727672035
1917,0.007511259332399674,0.7862371888726208
1918,0.007516297065016977,0.7862371888726208
1919,0.007516297065016977,0.7863286969253295
1920,0.007531410262868888,0.7863286969253295
1921,0.007531410262868888,0.7864202049780381
1922,0.007536447995486192,0.7864202049780381
1923,0.007536447995486192,0.7865117130307467
1924,0.007546523460720799,0.7865117130307467
1925,0.007546523460720799,0.7866032210834554
1926,0.0075515611933381025,0.7866032210834554
1927,0.0075515611933381025,0.7867862371888726
1928,0.007556598925955406,0.7867862371888726
1929,0.007556598925955406,0.7868777452415813
1930,0.007566674391190013,0.7868777452415813
1931,0.007566674391190013,0.7870607613469985
1932,0.00763216491521496,0.7870607613469985
1933,0.00763216491521496,0.7871522693997072
1934,0.0076422403804495675,0.7871522693997072
1935,0.0076422403804495675,0.7873352855051244
1936,0.007672466776153389,0.7873352855051244
1937,0.007672466776153389,0.7874267935578331
1938,0.007682542241387996,0.7874267935578331
1939,0.007682542241387996,0.7875183016105417
1940,0.007692617706622603,0.7875183016105417
1941,0.007692617706622603,0.7876098096632503
1942,0.007702693171857211,0.7876098096632503
1943,0.007702693171857211,0.7877928257686676
1944,0.007707730904474514,0.7877928257686676
1945,0.007707730904474514,0.7878843338213762
1946,0.007722844102326425,0.7878843338213762
1947,0.007722844102326425,0.7880673499267935
1948,0.0077329195675610325,0.7880673499267935
1949,0.0077329195675610325,0.7881588579795022
1950,0.0077379573001783355,0.7881588579795022
1951,0.0077379573001783355,0.7882503660322109
1952,0.007742995032795639,0.7882503660322109
1953,0.007742995032795639,0.7883418740849195
1954,0.007753070498030246,0.7883418740849195
1955,0.007753070498030246,0.7884333821376281
1956,0.007783296893734068,0.7884333821376281
1957,0.007783296893734068,0.7885248901903368
1958,0.007788334626351372,0.7885248901903368
1959,0.007788334626351372,0.788707906295754
1960,0.007803447824203283,0.788707906295754
1961,0.007803447824203283,0.7887994143484627
1962,0.007833674219907103,0.7887994143484627
1963,0.007833674219907103,0.7888909224011713
1964,0.007843749685141711,0.7888909224011713
1965,0.007843749685141711,0.7890739385065886
1966,0.007853825150376319,0.7890739385065886
1967,0.007853825150376319,0.7891654465592972
1968,0.007863900615610925,0.7891654465592972
1969,0.007863900615610925,0.7892569546120058
1970,0.007873976080845533,0.7892569546120058
1971,0.007873976080845533,0.7894399707174231
1972,0.007879013813462836,0.7894399707174231
1973,0.007879013813462836,0.7895314787701317
1974,0.00788405154608014,0.7895314787701317
1975,0.00788405154608014,0.7898975109809663
1976,0.007894127011314747,0.7898975109809663
1977,0.007894127011314747,0.7899890190336749
1978,0.007924353407018568,0.7899890190336749
1979,0.007924353407018568,0.7900805270863837
1980,0.007934428872253176,0.7900805270863837
1981,0.007934428872253176,0.7902635431918009
1982,0.007964655267956998,0.7902635431918009
1983,0.007964655267956998,0.7904465592972182
1984,0.007974730733191606,0.7904465592972182
1985,0.007974730733191606,0.7905380673499268
1986,0.00800999486151273,0.7905380673499268
1987,0.00800999486151273,0.7906295754026355
1988,0.008025108059364641,0.7906295754026355
1989,0.008025108059364641,0.7907210834553441
1990,0.008030145791981944,0.7907210834553441
1991,0.008030145791981944,0.79099560761347
1992,0.008035183524599249,0.79099560761347
1993,0.008035183524599249,0.7910871156661786
1994,0.008040221257216552,0.7910871156661786
1995,0.008040221257216552,0.7913616398243045
1996,0.00805029672245116,0.7913616398243045
1997,0.00805029672245116,0.7915446559297218
1998,0.008055334455068463,0.7915446559297218
1999,0.008055334455068463,0.7916361639824304
2000,0.008075485385537677,0.7916361639824304
2001,0.008075485385537677,0.791727672035139
2002,0.008100674048624195,0.791727672035139
2003,0.008100674048624195,0.7918191800878477
2004,0.008105711781241498,0.7918191800878477
2005,0.008105711781241498,0.7921852122986823
2006,0.008125862711710714,0.7921852122986823
2007,0.008125862711710714,0.7923682284040996
2008,0.008130900444328017,0.7923682284040996
2009,0.008130900444328017,0.7924597364568082
2010,0.00813593817694532,0.7924597364568082
2011,0.00813593817694532,0.7926427525622255
2012,0.008146013642179928,0.7926427525622255
2013,0.008146013642179928,0.7927342606149341
2014,0.008151051374797231,0.7927342606149341
2015,0.008151051374797231,0.7928257686676428
2016,0.008161126840031839,0.7928257686676428
2017,0.008161126840031839,0.79300878477306
2018,0.008181277770501053,0.79300878477306
2019,0.008181277770501053,0.7931918008784773
2020,0.008186315503118357,0.7931918008784773
2021,0.008186315503118357,0.7933748169838946
2022,0.008206466433587571,0.7933748169838946
2023,0.008206466433587571,0.7934663250366032
2024,0.008236692829291393,0.7934663250366032
2025,0.008236692829291393,0.7936493411420205
2026,0.008241730561908696,0.7936493411420205
2027,0.008241730561908696,0.7939238653001464
2028,0.008246768294525999,0.7939238653001464
2029,0.008246768294525999,0.7940153733528551
2030,0.00826188149237791,0.7940153733528551
2031,0.00826188149237791,0.7941068814055637
2032,0.008266919224995214,0.7941068814055637
2033,0.008266919224995214,0.7941983894582724
2034,0.008271956957612518,0.7941983894582724
2035,0.008271956957612518,0.794289897510981
2036,0.00830218335331634,0.794289897510981
2037,0.00830218335331634,0.7943814055636896
2038,0.008307221085933642,0.7943814055636896
2039,0.008307221085933642,0.7944729136163983
2040,0.00831729655116825,0.7944729136163983
2041,0.00831729655116825,0.7945644216691069
2042,0.008327372016402858,0.7945644216691069
2043,0.008327372016402858,0.7946559297218155
2044,0.00833240974902016,0.7946559297218155
2045,0.00833240974902016,0.7947474377745242
2046,0.008337447481637464,0.7947474377745242
2047,0.008337447481637464,0.7949304538799414
2048,0.008347522946872072,0.7949304538799414
2049,0.008347522946872072,0.7955710102489019
2050,0.008352560679489375,0.7955710102489019
2051,0.008352560679489375,0.7956625183016105
2052,0.008367673877341286,0.7956625183016105
2053,0.008367673877341286,0.7958455344070278
2054,0.00837271160995859,0.7958455344070278
2055,0.00837271160995859,0.7959370424597365
2056,0.008387824807810501,0.7959370424597365
2057,0.008387824807810501,0.7960285505124451
2058,0.008407975738279715,0.7960285505124451
2059,0.008407975738279715,0.7962115666178624
2060,0.008418051203514323,0.7962115666178624
2061,0.008418051203514323,0.796303074670571
2062,0.008438202133983537,0.796303074670571
2063,0.008438202133983537,0.7963945827232797
2064,0.008453315331835447,0.7963945827232797
2065,0.008453315331835447,0.7964860907759883
2066,0.008488579460156572,0.7964860907759883
2067,0.008488579460156572,0.7970351390922401
2068,0.008493617192773877,0.7970351390922401
2069,0.008493617192773877,0.7971266471449487
2070,0.008503692658008483,0.7971266471449487
2071,0.008503692658008483,0.7972181551976574
2072,0.008508730390625788,0.7972181551976574
2073,0.008508730390625788,0.797309663250366
2074,0.00851376812324309,0.797309663250366
2075,0.00851376812324309,0.7975841874084919
2076,0.008523843588477699,0.7975841874084919
2077,0.008523843588477699,0.7977672035139092
2078,0.008533919053712305,0.7977672035139092
2079,0.008533919053712305,0.7978587115666179
2080,0.008549032251564215,0.7978587115666179
2081,0.008549032251564215,0.7979502196193266
2082,0.008559107716798823,0.7979502196193266
2083,0.008559107716798823,0.7980417276720352
2084,0.008569183182033431,0.7980417276720352
2085,0.008569183182033431,0.7981332357247438
2086,0.008604447310354556,0.7981332357247438
2087,0.008604447310354556,0.7982247437774525
2088,0.00863971143867568,0.7982247437774525
2089,0.00863971143867568,0.7983162518301611
2090,0.008644749171292985,0.7983162518301611
2091,0.008644749171292985,0.798590775988287
2092,0.008669937834379502,0.798590775988287
2093,0.008669937834379502,0.7988653001464129
2094,0.008674975566996807,0.7988653001464129
2095,0.008674975566996807,0.7991398243045388
2096,0.008705201962700629,0.7991398243045388
2097,0.008705201962700629,0.799322840409956
2098,0.008725352893169842,0.799322840409956
2099,0.008725352893169842,0.7994143484626647
2100,0.008740466091021753,0.7994143484626647
2101,0.008740466091021753,0.799597364568082
2102,0.008745503823639056,0.799597364568082
2103,0.008745503823639056,0.7997803806734992
2104,0.008750541556256361,0.7997803806734992
2105,0.008750541556256361,0.799871888726208
2106,0.008775730219342878,0.799871888726208
2107,0.008775730219342878,0.7999633967789166
2108,0.008780767951960181,0.7999633967789166
2109,0.008780767951960181,0.8001464128843339
2110,0.008785805684577486,0.8001464128843339
2111,0.008785805684577486,0.8002379209370425
2112,0.008795881149812092,0.8002379209370425
2113,0.008795881149812092,0.8004209370424598
2114,0.008800918882429397,0.8004209370424598
2115,0.008800918882429397,0.8005124450951684
2116,0.008816032080281307,0.8005124450951684
2117,0.008816032080281307,0.800603953147877
2118,0.008841220743367824,0.800603953147877
2119,0.008841220743367824,0.8006954612005857
2120,0.00886137167383704,0.8006954612005857
2121,0.00886137167383704,0.8007869692532943
2122,0.008881522604306254,0.8007869692532943
2123,0.008881522604306254,0.8013360175695461
2124,0.008906711267392772,0.8013360175695461
2125,0.008906711267392772,0.801610541727672
2126,0.008936937663096594,0.801610541727672
2127,0.008936937663096594,0.8017020497803806
2128,0.0089470131283312,0.8017020497803806
2129,0.0089470131283312,0.8017935578330894
2130,0.008957088593565808,0.8017935578330894
2131,0.008957088593565808,0.801885065885798
2132,0.008967164058800416,0.801885065885798
2133,0.008967164058800416,0.8021595900439239
2134,0.008982277256652326,0.8021595900439239
2135,0.008982277256652326,0.8022510980966325
2136,0.008992352721886933,0.8022510980966325
2137,0.008992352721886933,0.8023426061493412
2138,0.00900242818712154,0.8023426061493412
2139,0.00900242818712154,0.8024341142020498
2140,0.009022579117590754,0.8024341142020498
2141,0.009022579117590754,0.8026171303074671
2142,0.009027616850208059,0.8026171303074671
2143,0.009027616850208059,0.8028001464128843
2144,0.009032654582825362,0.8028001464128843
2145,0.009032654582825362,0.802891654465593
2146,0.009037692315442665,0.802891654465593
2147,0.009037692315442665,0.8030746705710102
2148,0.009077994176381094,0.8030746705710102
2149,0.009077994176381094,0.8032576866764275
2150,0.009123333769936827,0.8032576866764275
2151,0.009123333769936827,0.8035322108345534
2152,0.00912837150255413,0.8035322108345534
2153,0.00912837150255413,0.8037152269399708
2154,0.009133409235171435,0.8037152269399708
2155,0.009133409235171435,0.803898243045388
2156,0.009138446967788738,0.803898243045388
2157,0.009138446967788738,0.8041727672035139
2158,0.009158597898257952,0.8041727672035139
2159,0.009158597898257952,0.8042642752562226
2160,0.00916867336349256,0.8042642752562226
2161,0.00916867336349256,0.8043557833089312
2162,0.00918378656134447,0.8043557833089312
2163,0.00918378656134447,0.8044472913616398
2164,0.009193862026579078,0.8044472913616398
2165,0.009193862026579078,0.8045387994143485
2166,0.009229126154900203,0.8045387994143485
2167,0.009229126154900203,0.8046303074670571
2168,0.009234163887517506,0.8046303074670571
2169,0.009234163887517506,0.8047218155197657
2170,0.009264390283221327,0.8047218155197657
2171,0.009264390283221327,0.804904831625183
2172,0.009274465748455935,0.804904831625183
2173,0.009274465748455935,0.8050878477306003
2174,0.009279503481073238,0.8050878477306003
2175,0.009279503481073238,0.8051793557833089
2176,0.00930972987677706,0.8051793557833089
2177,0.00930972987677706,0.8052708638360175
2178,0.009314767609394363,0.8052708638360175
2179,0.009314767609394363,0.8053623718887262
2180,0.009339956272480882,0.8053623718887262
2181,0.009339956272480882,0.8054538799414348
2182,0.009344994005098185,0.8054538799414348
2183,0.009344994005098185,0.8056368960468521
2184,0.00935003173771549,0.8056368960468521
2185,0.00935003173771549,0.8059114202049781
2186,0.009360107202950095,0.8059114202049781
2187,0.009360107202950095,0.8060029282576867
2188,0.0093651449355674,0.8060029282576867
2189,0.0093651449355674,0.8060944363103953
2190,0.009370182668184703,0.8060944363103953
2191,0.009370182668184703,0.806185944363104
2192,0.009385295866036614,0.806185944363104
2193,0.009385295866036614,0.8062774524158126
2194,0.009425597726975043,0.8062774524158126
2195,0.009425597726975043,0.8063689604685212
2196,0.009465899587913471,0.8063689604685212
2197,0.009465899587913471,0.8066434846266471
2198,0.009481012785765382,0.8066434846266471
2199,0.009481012785765382,0.8067349926793558
2200,0.009496125983617293,0.8067349926793558
2201,0.009496125983617293,0.8068265007320644
2202,0.0095062014488519,0.8068265007320644
2203,0.0095062014488519,0.8070095168374817
2204,0.009521314646703812,0.8070095168374817
2205,0.009521314646703812,0.8071010248901903
2206,0.00953139011193842,0.8071010248901903
2207,0.00953139011193842,0.8073755490483162
2208,0.009591842903346063,0.8073755490483162
2209,0.009591842903346063,0.8074670571010248
2210,0.009596880635963366,0.8074670571010248
2211,0.009596880635963366,0.8076500732064422
2212,0.009606956101197973,0.8076500732064422
2213,0.009606956101197973,0.8077415812591509
2214,0.009611993833815276,0.8077415812591509
2215,0.009611993833815276,0.8078330893118595
2216,0.00963214476428449,0.8078330893118595
2217,0.00963214476428449,0.8081076134699854
2218,0.009647257962136401,0.8081076134699854
2219,0.009647257962136401,0.8082906295754027
2220,0.00967244662522292,0.8082906295754027
2221,0.00967244662522292,0.8085651537335286
2222,0.009692597555692134,0.8085651537335286
2223,0.009692597555692134,0.8086566617862372
2224,0.009697635288309438,0.8086566617862372
2225,0.009697635288309438,0.8087481698389458
2226,0.009722823951395955,0.8087481698389458
2227,0.009722823951395955,0.8089311859443631
2228,0.009737937149247866,0.8089311859443631
2229,0.009737937149247866,0.8090226939970717
2230,0.009742974881865171,0.8090226939970717
2231,0.009742974881865171,0.809205710102489
2232,0.009753050347099777,0.809205710102489
2233,0.009753050347099777,0.8092972181551976
2234,0.009758088079717082,0.8092972181551976
2235,0.009758088079717082,0.8094802342606149
2236,0.009773201277568993,0.8094802342606149
2237,0.009773201277568993,0.8095717423133236
2238,0.009778239010186296,0.8095717423133236
2239,0.009778239010186296,0.8096632503660323
2240,0.009803427673272814,0.8096632503660323
2241,0.009803427673272814,0.8099377745241582
2242,0.009808465405890117,0.8099377745241582
2243,0.009808465405890117,0.8101207906295754
2244,0.00981350313850742,0.8101207906295754
2245,0.00981350313850742,0.8103038067349927
2246,0.009828616336359331,0.8103038067349927
2247,0.009828616336359331,0.8106698389458272
2248,0.009838691801593939,0.8106698389458272
2249,0.009838691801593939,0.8107613469985359
2250,0.009843729534211242,0.8107613469985359
2251,0.009843729534211242,0.8108528550512445
2252,0.009848767266828545,0.8108528550512445
2253,0.009848767266828545,0.8110358711566618
2254,0.00985380499944585,0.8110358711566618
2255,0.00985380499944585,0.8111273792093704
2256,0.00986891819729776,0.8111273792093704
2257,0.00986891819729776,0.811218887262079
2258,0.009899144593001582,0.811218887262079
2259,0.009899144593001582,0.8113103953147877
2260,0.009919295523470796,0.8113103953147877
2261,0.009919295523470796,0.8114019033674963
2262,0.009929370988705404,0.8114019033674963
2263,0.009929370988705404,0.8116764275256223
2264,0.00993944645394001,0.8116764275256223
2265,0.00993944645394001,0.8117679355783309
2266,0.009944484186557315,0.8117679355783309
2267,0.009944484186557315,0.8120424597364568
2268,0.009949521919174618,0.8120424597364568
2269,0.009949521919174618,0.8122254758418741
2270,0.00995455965179192,0.8122254758418741
2271,0.00995455965179192,0.8123169838945827
2272,0.009959597384409226,0.8123169838945827
2273,0.009959597384409226,0.8124084919472914
2274,0.009989823780113047,0.8124084919472914
2275,0.009989823780113047,0.8125915080527086
2276,0.00999486151273035,0.8125915080527086
2277,0.00999486151273035,0.8126830161054173
2278,0.009999899245347653,0.8126830161054173
2279,0.009999899245347653,0.8128660322108345
2280,0.010004936977964958,0.8128660322108345
2281,0.010004936977964958,0.8129575402635432
2282,0.010020050175816869,0.8129575402635432
2283,0.010020050175816869,0.8130490483162518
2284,0.010040201106286083,0.8130490483162518
2285,0.010040201106286083,0.8131405563689604
2286,0.010045238838903386,0.8131405563689604
2287,0.010045238838903386,0.8132320644216691
2288,0.010070427501989904,0.8132320644216691
2289,0.010070427501989904,0.8133235724743777
2290,0.010080502967224512,0.8133235724743777
2291,0.010080502967224512,0.8134150805270863
2292,0.010090578432459118,0.8134150805270863
2293,0.010090578432459118,0.8135980966325037
2294,0.010100653897693726,0.8135980966325037
2295,0.010100653897693726,0.8136896046852123
2296,0.010130880293397548,0.8136896046852123
2297,0.010130880293397548,0.813781112737921
2298,0.010151031223866762,0.813781112737921
2299,0.010151031223866762,0.8138726207906296
2300,0.01016110668910137,0.8138726207906296
2301,0.01016110668910137,0.8139641288433382
2302,0.010171182154335977,0.8139641288433382
2303,0.010171182154335977,0.8141471449487555
2304,0.010196370817422494,0.8141471449487555
2305,0.010196370817422494,0.8142386530014641
2306,0.010211484015274405,0.8142386530014641
2307,0.010211484015274405,0.8143301610541728
2308,0.010221559480509013,0.8143301610541728
2309,0.010221559480509013,0.81451317715959
2310,0.01023163494574362,0.81451317715959
2311,0.01023163494574362,0.8146046852122987
2312,0.010236672678360923,0.8146046852122987
2313,0.010236672678360923,0.8147877013177159
2314,0.010241710410978227,0.8147877013177159
2315,0.010241710410978227,0.8149707174231332
2316,0.01030216320238587,0.8149707174231332
2317,0.01030216320238587,0.8150622254758418
2318,0.010352540528558907,0.8150622254758418
2319,0.010352540528558907,0.8152452415812591
2320,0.010372691459028121,0.8152452415812591
2321,0.010372691459028121,0.8154282576866764
2322,0.010387804656880032,0.8154282576866764
2323,0.010387804656880032,0.8155197657393851
2324,0.010392842389497335,0.8155197657393851
2325,0.010392842389497335,0.8157027818448024
2326,0.010397880122114638,0.8157027818448024
2327,0.010397880122114638,0.815794289897511
2328,0.010407955587349246,0.815794289897511
2329,0.010407955587349246,0.8160688140556369
2330,0.010418031052583853,0.8160688140556369
2331,0.010418031052583853,0.8161603221083455
2332,0.010423068785201156,0.8161603221083455
2333,0.010423068785201156,0.8162518301610542
2334,0.01042810651781846,0.8162518301610542
2335,0.01042810651781846,0.8164348462664714
2336,0.010433144250435764,0.8164348462664714
2337,0.010433144250435764,0.8165263543191801
2338,0.010453295180904978,0.8165263543191801
2339,0.010453295180904978,0.8167093704245973
2340,0.010468408378756889,0.8167093704245973
2341,0.010468408378756889,0.8168923865300146
2342,0.010473446111374192,0.8168923865300146
2343,0.010473446111374192,0.8169838945827232
2344,0.010478483843991497,0.8169838945827232
2345,0.010478483843991497,0.8174414348462665
2346,0.010508710239695318,0.8174414348462665
2347,0.010508710239695318,0.8175329428989752
2348,0.010569163031102962,0.8175329428989752
2349,0.010569163031102962,0.8177159590043924
2350,0.010574200763720265,0.8177159590043924
2351,0.010574200763720265,0.8178074670571011
2352,0.010594351694189479,0.8178074670571011
2353,0.010594351694189479,0.8178989751098097
2354,0.010599389426806783,0.8178989751098097
2355,0.010599389426806783,0.8179904831625183
2356,0.010604427159424086,0.8179904831625183
2357,0.010604427159424086,0.8181734992679356
2358,0.010634653555127908,0.8181734992679356
2359,0.010634653555127908,0.8183565153733529
2360,0.010639691287745211,0.8183565153733529
2361,0.010639691287745211,0.8184480234260615
2362,0.010644729020362516,0.8184480234260615
2363,0.010644729020362516,0.8185395314787701
2364,0.010659842218214427,0.8185395314787701
2365,0.010659842218214427,0.8186310395314788
2366,0.010669917683449033,0.8186310395314788
2367,0.010669917683449033,0.8189055636896047
2368,0.010700144079152854,0.8189055636896047
2369,0.010700144079152854,0.8189970717423133
2370,0.010715257277004765,0.8189970717423133
2371,0.010715257277004765,0.8190885797950219
2372,0.01072029500962207,0.8190885797950219
2373,0.01072029500962207,0.8191800878477306
2374,0.010750521405325892,0.8191800878477306
2375,0.010750521405325892,0.8192715959004392
2376,0.010780747801029713,0.8192715959004392
2377,0.010780747801029713,0.8195461200585652
2378,0.01079082326626432,0.8195461200585652
2379,0.01079082326626432,0.8197291361639825
2380,0.01080593646411623,0.8197291361639825
2381,0.01080593646411623,0.820095168374817
2382,0.010810974196733535,0.820095168374817
2383,0.010810974196733535,0.8201866764275256
2384,0.010826087394585446,0.8201866764275256
2385,0.010826087394585446,0.8203696925329429
2386,0.010836162859820052,0.8203696925329429
2387,0.010836162859820052,0.8205527086383602
2388,0.01084623832505466,0.8205527086383602
2389,0.01084623832505466,0.8207357247437774
2390,0.010881502453375784,0.8207357247437774
2391,0.010881502453375784,0.8209187408491947
2392,0.010886540185993089,0.8209187408491947
2393,0.010886540185993089,0.8210102489019033
2394,0.010891577918610392,0.8210102489019033
2395,0.010891577918610392,0.8211932650073206
2396,0.010916766581696909,0.8211932650073206
2397,0.010916766581696909,0.8212847730600292
2398,0.010952030710018035,0.8212847730600292
2399,0.010952030710018035,0.8215592972181552
2400,0.010957068442635338,0.8215592972181552
2401,0.010957068442635338,0.8217423133235725
2402,0.010962106175252641,0.8217423133235725
2403,0.010962106175252641,0.8219253294289898
2404,0.010967143907869946,0.8219253294289898
2405,0.010967143907869946,0.8220168374816984
2406,0.01097218164048725,0.8220168374816984
2407,0.01097218164048725,0.8221998535871157
2408,0.010992332570956463,0.8221998535871157
2409,0.010992332570956463,0.8222913616398243
2410,0.011007445768808374,0.8222913616398243
2411,0.011007445768808374,0.8223828696925329
2412,0.011012483501425679,0.8223828696925329
2413,0.011012483501425679,0.8224743777452416
2414,0.01102759669927759,0.8224743777452416
2415,0.01102759669927759,0.8225658857979502
2416,0.011032634431894893,0.8225658857979502
2417,0.011032634431894893,0.8226573938506588
2418,0.011037672164512196,0.8226573938506588
2419,0.011037672164512196,0.8227489019033675
2420,0.0110427098971295,0.8227489019033675
2421,0.0110427098971295,0.8229319180087847
2422,0.011062860827598714,0.8229319180087847
2423,0.011062860827598714,0.8230234260614934
2424,0.011083011758067928,0.8230234260614934
2425,0.011083011758067928,0.8232064421669106
2426,0.011093087223302536,0.8232064421669106
2427,0.011093087223302536,0.8232979502196194
2428,0.011098124955919839,0.8232979502196194
2429,0.011098124955919839,0.823389458272328
2430,0.011123313619006358,0.823389458272328
2431,0.011123313619006358,0.8235724743777453
2432,0.011133389084240965,0.8235724743777453
2433,0.011133389084240965,0.8237554904831625
2434,0.011143464549475571,0.8237554904831625
2435,0.011143464549475571,0.8238469985358712
2436,0.011148502282092876,0.8238469985358712
2437,0.011148502282092876,0.8239385065885798
2438,0.01116865321256209,0.8239385065885798
2439,0.01116865321256209,0.8240300146412884
2440,0.011173690945179393,0.8240300146412884
2441,0.011173690945179393,0.8241215226939971
2442,0.01120895507350052,0.8241215226939971
2443,0.01120895507350052,0.8242130307467057
2444,0.011219030538735126,0.8242130307467057
2445,0.011219030538735126,0.8244875549048316
2446,0.011244219201821644,0.8244875549048316
2447,0.011244219201821644,0.8245790629575402
2448,0.011279483330142769,0.8245790629575402
2449,0.011279483330142769,0.8246705710102489
2450,0.011304671993229288,0.8246705710102489
2451,0.011304671993229288,0.8247620790629575
2452,0.01130970972584659,0.8247620790629575
2453,0.01130970972584659,0.8248535871156661
2454,0.011314747458463895,0.8248535871156661
2455,0.011314747458463895,0.8250366032210834
2456,0.011324822923698501,0.8250366032210834
2457,0.011324822923698501,0.825128111273792
2458,0.011355049319402323,0.825128111273792
2459,0.011355049319402323,0.8254941434846267
2460,0.011370162517254234,0.8254941434846267
2461,0.011370162517254234,0.8255856515373353
2462,0.011385275715106145,0.8255856515373353
2463,0.011385275715106145,0.825677159590044
2464,0.01139031344772345,0.825677159590044
2465,0.01139031344772345,0.8257686676427526
2466,0.01143565304127918,0.8257686676427526
2467,0.01143565304127918,0.8258601756954612
2468,0.011480992634834913,0.8258601756954612
2469,0.011480992634834913,0.8259516837481699
2470,0.011506181297921431,0.8259516837481699
2471,0.011506181297921431,0.8262262079062958
2472,0.011516256763156039,0.8262262079062958
2473,0.011516256763156039,0.8263177159590044
2474,0.01154648315885986,0.8263177159590044
2475,0.01154648315885986,0.8265922401171303
2476,0.011556558624094467,0.8265922401171303
2477,0.011556558624094467,0.8266837481698389
2478,0.011561596356711772,0.8266837481698389
2479,0.011561596356711772,0.8267752562225475
2480,0.011571671821946378,0.8267752562225475
2481,0.011571671821946378,0.8268667642752562
2482,0.011591822752415593,0.8268667642752562
2483,0.011591822752415593,0.8269582723279648
2484,0.01161701141550211,0.8269582723279648
2485,0.01161701141550211,0.8270497803806734
2486,0.01167242647429245,0.8270497803806734
2487,0.01167242647429245,0.8273243045387995
2488,0.011677464206909753,0.8273243045387995
2489,0.011677464206909753,0.8274158125915081
2490,0.011732879265700094,0.8274158125915081
2491,0.011732879265700094,0.8275073206442167
2492,0.011773181126638523,0.8275073206442167
2493,0.011773181126638523,0.8275988286969254
2494,0.011803407522342345,0.8275988286969254
2495,0.011803407522342345,0.827690336749634
2496,0.011828596185428862,0.827690336749634
2497,0.011828596185428862,0.8277818448023426
2498,0.01183867165066347,0.8277818448023426
2499,0.01183867165066347,0.8278733528550513
2500,0.011843709383280773,0.8278733528550513
2501,0.011843709383280773,0.8280563689604685
2502,0.011848747115898077,0.8280563689604685
2503,0.011848747115898077,0.8281478770131772
2504,0.01185378484851538,0.8281478770131772
2505,0.01185378484851538,0.8283308931185944
2506,0.011858822581132683,0.8283308931185944
2507,0.011858822581132683,0.8285139092240117
2508,0.011863860313749988,0.8285139092240117
2509,0.011863860313749988,0.8286054172767203
2510,0.011873935778984594,0.8286054172767203
2511,0.011873935778984594,0.828696925329429
2512,0.011884011244219202,0.828696925329429
2513,0.011884011244219202,0.8287884333821376
2514,0.01189408670945381,0.8287884333821376
2515,0.01189408670945381,0.8288799414348462
2516,0.01190919990730572,0.8288799414348462
2517,0.01190919990730572,0.8289714494875549
2518,0.011919275372540327,0.8289714494875549
2519,0.011919275372540327,0.8290629575402635
2520,0.011944464035626845,0.8290629575402635
2521,0.011944464035626845,0.8291544655929722
2522,0.01196461496609606,0.8291544655929722
2523,0.01196461496609606,0.8292459736456809
2524,0.011999879094417184,0.8292459736456809
2525,0.011999879094417184,0.8294289897510981
2526,0.012025067757503703,0.8294289897510981
2527,0.012025067757503703,0.8295204978038068
2528,0.012065369618442132,0.8295204978038068
2529,0.012065369618442132,0.8296120058565154
2530,0.012100633746763257,0.8296120058565154
2531,0.012100633746763257,0.829703513909224
2532,0.012110709211997864,0.829703513909224
2533,0.012110709211997864,0.8297950219619327
2534,0.01212078467723247,0.8297950219619327
2535,0.01212078467723247,0.8298865300146413
2536,0.012135897875084381,0.8298865300146413
2537,0.012135897875084381,0.8299780380673499
2538,0.012140935607701686,0.8299780380673499
2539,0.012140935607701686,0.8300695461200586
2540,0.012156048805553597,0.8300695461200586
2541,0.012156048805553597,0.8301610541727672
2542,0.01221650159696124,0.8301610541727672
2543,0.01221650159696124,0.8302525622254758
2544,0.012241690260047757,0.8302525622254758
2545,0.012241690260047757,0.830710102489019
2546,0.012256803457899668,0.830710102489019
2547,0.012256803457899668,0.8308016105417276
2548,0.012261841190516973,0.8308016105417276
2549,0.012261841190516973,0.8308931185944363
2550,0.012266878923134276,0.8308931185944363
2551,0.012266878923134276,0.8309846266471449
2552,0.012271916655751579,0.8309846266471449
2553,0.012271916655751579,0.8311676427525623
2554,0.012297105318838097,0.8311676427525623
2555,0.012297105318838097,0.8312591508052709
2556,0.0123021430514554,0.8312591508052709
2557,0.0123021430514554,0.8313506588579795
2558,0.012312218516690008,0.8313506588579795
2559,0.012312218516690008,0.8314421669106882
2560,0.012317256249307311,0.8314421669106882
2561,0.012317256249307311,0.8315336749633968
2562,0.012327331714541919,0.8315336749633968
2563,0.012327331714541919,0.8316251830161054
2564,0.012367633575480349,0.8316251830161054
2565,0.012367633575480349,0.8318081991215227
2566,0.012387784505949562,0.8318081991215227
2567,0.012387784505949562,0.8318997071742313
2568,0.01239785997118417,0.8318997071742313
2569,0.01239785997118417,0.83199121522694
2570,0.012418010901653384,0.83199121522694
2571,0.012418010901653384,0.8320827232796486
2572,0.012423048634270687,0.8320827232796486
2573,0.012423048634270687,0.8321742313323572
2574,0.012433124099505295,0.8321742313323572
2575,0.012433124099505295,0.8322657393850659
2576,0.012443199564739903,0.8322657393850659
2577,0.012443199564739903,0.8324487554904831
2578,0.012463350495209117,0.8324487554904831
2579,0.012463350495209117,0.8325402635431918
2580,0.012478463693061027,0.8325402635431918
2581,0.012478463693061027,0.832723279648609
2582,0.012498614623530241,0.832723279648609
2583,0.012498614623530241,0.8328147877013177
2584,0.01252380328661676,0.8328147877013177
2585,0.01252380328661676,0.8329978038067349
2586,0.012564105147555188,0.8329978038067349
2587,0.012564105147555188,0.8331808199121523
2588,0.012574180612789795,0.8331808199121523
2589,0.012574180612789795,0.833272327964861
2590,0.012604407008493617,0.833272327964861
2591,0.012604407008493617,0.8333638360175696
2592,0.012654784334666653,0.8333638360175696
2593,0.012654784334666653,0.8334553440702782
2594,0.012669897532518563,0.8334553440702782
2595,0.012669897532518563,0.8336383601756955
2596,0.012674935265135868,0.8336383601756955
2597,0.012674935265135868,0.8337298682284041
2598,0.012700123928222385,0.8337298682284041
2599,0.012700123928222385,0.8342789165446559
2600,0.012715237126074296,0.8342789165446559
2601,0.012715237126074296,0.8344619326500732
2602,0.012735388056543511,0.8344619326500732
2603,0.012735388056543511,0.8345534407027818
2604,0.012765614452247333,0.8345534407027818
2605,0.012765614452247333,0.8347364568081991
2606,0.012770652184864636,0.8347364568081991
2607,0.012770652184864636,0.8348279648609077
2608,0.01280591631318576,0.8348279648609077
2609,0.01280591631318576,0.8350109809663251
2610,0.012810954045803066,0.8350109809663251
2611,0.012810954045803066,0.8351024890190337
2612,0.012821029511037672,0.8351024890190337
2613,0.012821029511037672,0.8351939970717424
2614,0.01283110497627228,0.8351939970717424
2615,0.01283110497627228,0.8353770131771596
2616,0.012871406837210709,0.8353770131771596
2617,0.012871406837210709,0.8354685212298683
2618,0.012891557767679923,0.8354685212298683
2619,0.012891557767679923,0.8355600292825769
2620,0.01290163323291453,0.8355600292825769
2621,0.01290163323291453,0.8356515373352855
2622,0.012926821896001047,0.8356515373352855
2623,0.012926821896001047,0.8357430453879942
2624,0.012931859628618352,0.8357430453879942
2625,0.012931859628618352,0.8358345534407028
2626,0.012936897361235655,0.8358345534407028
2627,0.012936897361235655,0.83601756954612
2628,0.012946972826470263,0.83601756954612
2629,0.012946972826470263,0.8361090775988287
2630,0.012957048291704869,0.8361090775988287
2631,0.012957048291704869,0.836292093704246
2632,0.012962086024322174,0.836292093704246
2633,0.012962086024322174,0.8363836017569546
2634,0.01301246335049521,0.8363836017569546
2635,0.01301246335049521,0.8364751098096632
2636,0.013037652013581726,0.8364751098096632
2637,0.013037652013581726,0.8365666178623719
2638,0.013072916141902853,0.8365666178623719
2639,0.013072916141902853,0.8366581259150805
2640,0.013088029339754764,0.8366581259150805
2641,0.013088029339754764,0.8367496339677891
2642,0.013103142537606674,0.8367496339677891
2643,0.013103142537606674,0.8368411420204978
2644,0.013108180270223977,0.8368411420204978
2645,0.013108180270223977,0.8369326500732065
2646,0.013118255735458585,0.8369326500732065
2647,0.013118255735458585,0.8370241581259151
2648,0.013128331200693191,0.8370241581259151
2649,0.013128331200693191,0.8371156661786238
2650,0.013203897189952745,0.8371156661786238
2651,0.013203897189952745,0.8372071742313324
2652,0.01320893492257005,0.8372071742313324
2653,0.01320893492257005,0.837298682284041
2654,0.013249236783508478,0.837298682284041
2655,0.013249236783508478,0.8374816983894583
2656,0.013299614109681515,0.8374816983894583
2657,0.013299614109681515,0.8375732064421669
2658,0.013309689574916121,0.8375732064421669
2659,0.013309689574916121,0.8376647144948756
2660,0.013314727307533426,0.8376647144948756
2661,0.013314727307533426,0.8377562225475842
2662,0.013319765040150729,0.8377562225475842
2663,0.013319765040150729,0.8378477306002928
2664,0.013324802772768032,0.8378477306002928
2665,0.013324802772768032,0.8380307467057101
2666,0.013344953703237248,0.8380307467057101
2667,0.013344953703237248,0.8381222547584187
2668,0.013370142366323765,0.8381222547584187
2669,0.013370142366323765,0.8383967789165446
2670,0.013380217831558372,0.8383967789165446
2671,0.013380217831558372,0.8385797950219619
2672,0.013440670622966016,0.8385797950219619
2673,0.013440670622966016,0.8386713030746705
2674,0.013455783820817926,0.8386713030746705
2675,0.013455783820817926,0.8387628111273792
2676,0.013491047949139051,0.8387628111273792
