,fpr,tpr
0,0.0,0.0
1,0.0,0.0003403675970047651
2,0.0,0.02859087814840027
3,0.0,0.029271613342409804
4,0.0,0.19503063308373042
5,1.7075919538267136e-05,0.19503063308373042
6,1.7075919538267136e-05,0.2624234172906739
7,3.415183907653427e-05,0.2624234172906739
8,3.415183907653427e-05,0.27978216473791695
9,5.1227758614801405e-05,0.27978216473791695
10,5.1227758614801405e-05,0.30905377808032675
11,6.830367815306854e-05,0.30905377808032675
12,6.830367815306854e-05,0.35194009530292714
13,8.537959769133568e-05,0.35194009530292714
14,8.537959769133568e-05,0.46051735874744726
15,0.00010245551722960281,0.46051735874744726
16,0.00010245551722960281,0.4833219877467665
17,0.00011953143676786995,0.4833219877467665
18,0.00011953143676786995,0.4993192648059905
19,0.00015368327584440423,0.4993192648059905
20,0.00015368327584440423,0.5136147038801906
21,0.00017075919538267137,0.5136147038801906
22,0.00017075919538267137,0.5282505105513955
23,0.00018783511492093848,0.5282505105513955
24,0.00018783511492093848,0.5425459496255957
25,0.00020491103445920562,0.5425459496255957
26,0.00020491103445920562,0.5616065350578625
27,0.00022198695399747276,0.5616065350578625
28,0.00022198695399747276,0.5619469026548672
29,0.0002390628735357399,0.5619469026548672
30,0.0002390628735357399,0.5643294758339006
31,0.000256138793074007,0.5643294758339006
32,0.000256138793074007,0.5707964601769911
33,0.0002732147126122742,0.5707964601769911
34,0.0002732147126122742,0.5721579305650102
35,0.0002902906321505413,0.5721579305650102
36,0.0002902906321505413,0.572498298162015
37,0.00030736655168880846,0.572498298162015
38,0.00030736655168880846,0.5867937372362151
39,0.00032444247122707557,0.5867937372362151
40,0.00032444247122707557,0.5918992511912866
41,0.00035859431030360985,0.5918992511912866
42,0.00035859431030360985,0.5929203539823009
43,0.00037567022984187696,0.5929203539823009
44,0.00037567022984187696,0.5936010891763104
45,0.00039274614938014413,0.5936010891763104
46,0.00039274614938014413,0.5946221919673247
47,0.00040982206891841124,0.5946221919673247
48,0.00040982206891841124,0.6041524846834582
49,0.0004268979884566784,0.6041524846834582
50,0.0004268979884566784,0.6095983662355344
51,0.0004439739079949455,0.6095983662355344
52,0.0004439739079949455,0.6153846153846154
53,0.0004610498275332127,0.6153846153846154
54,0.0004610498275332127,0.6160653505786249
55,0.0004781257470714798,0.6160653505786249
56,0.0004781257470714798,0.6194690265486725
57,0.0004952016666097469,0.6194690265486725
58,0.0004952016666097469,0.6221919673247107
59,0.000512277586148014,0.6221919673247107
60,0.000512277586148014,0.6228727025187202
61,0.0005293535056862812,0.6228727025187202
62,0.0005293535056862812,0.6235534377127298
63,0.0005635053447628155,0.6235534377127298
64,0.0005635053447628155,0.6242341729067393
65,0.0005805812643010826,0.6242341729067393
66,0.0005805812643010826,0.6351259360108917
67,0.0005976571838393497,0.6351259360108917
68,0.0005976571838393497,0.6368277739959156
69,0.0006147331033776169,0.6368277739959156
70,0.0006147331033776169,0.6371681415929203
71,0.000631809022915884,0.6371681415929203
72,0.000631809022915884,0.6398910823689585
73,0.0006488849424541511,0.6398910823689585
74,0.0006488849424541511,0.646358066712049
75,0.0006830367815306855,0.646358066712049
76,0.0006830367815306855,0.6473791695030633
77,0.0007001127010689526,0.6473791695030633
78,0.0007001127010689526,0.6541865214431586
79,0.0007171886206072197,0.6541865214431586
80,0.0007171886206072197,0.6548672566371682
81,0.0007342645401454868,0.6548672566371682
82,0.0007342645401454868,0.6552076242341729
83,0.0007513404596837539,0.6552076242341729
84,0.0007513404596837539,0.6582709326072158
85,0.0007684163792220211,0.6582709326072158
86,0.0007684163792220211,0.6589516678012253
87,0.0007854922987602883,0.6589516678012253
88,0.0007854922987602883,0.6609938733832539
89,0.0008367200573750896,0.6609938733832539
90,0.0008367200573750896,0.6626957113682778
91,0.0008537959769133568,0.6626957113682778
92,0.0008537959769133568,0.6630360789652825
93,0.0008708718964516239,0.6630360789652825
94,0.0008708718964516239,0.6647379169503064
95,0.000887947815989891,0.6647379169503064
96,0.000887947815989891,0.6654186521443158
97,0.0009050237355281582,0.6654186521443158
98,0.0009050237355281582,0.6667801225323349
99,0.0009220996550664254,0.6667801225323349
100,0.0009220996550664254,0.6701837985023825
101,0.0009391755746046925,0.6701837985023825
102,0.0009391755746046925,0.6705241660993874
103,0.0009562514941429596,0.6705241660993874
104,0.0009562514941429596,0.6708645336963921
105,0.0009733274136812267,0.6708645336963921
106,0.0009733274136812267,0.6712049012933968
107,0.0009904033332194938,0.6712049012933968
108,0.0009904033332194938,0.6715452688904017
109,0.001007479252757761,0.6715452688904017
110,0.001007479252757761,0.6732471068754254
111,0.001024555172296028,0.6732471068754254
112,0.001024555172296028,0.6749489448604493
113,0.0010757829309108295,0.6749489448604493
114,0.0010757829309108295,0.6763104152484684
115,0.0011099347699873637,0.6763104152484684
116,0.0011099347699873637,0.6766507828454731
117,0.001127010689525631,0.6766507828454731
118,0.001127010689525631,0.6803948264125256
119,0.0011440866090638982,0.6803948264125256
120,0.0011440866090638982,0.6814159292035398
121,0.0011611625286021652,0.6814159292035398
122,0.0011611625286021652,0.6817562968005446
123,0.0011782384481404324,0.6817562968005446
124,0.0011782384481404324,0.6837985023825732
125,0.0011953143676786994,0.6837985023825732
126,0.0011953143676786994,0.684138869979578
127,0.0012123902872169666,0.684138869979578
128,0.0012123902872169666,0.6851599727705923
129,0.0012294662067552338,0.6851599727705923
130,0.0012294662067552338,0.686861810755616
131,0.0012465421262935008,0.686861810755616
132,0.0012465421262935008,0.6878829135466303
133,0.001263618045831768,0.6878829135466303
134,0.001263618045831768,0.6885636487406399
135,0.0012806939653700353,0.6885636487406399
136,0.0012806939653700353,0.6889040163376446
137,0.0012977698849083023,0.6889040163376446
138,0.0012977698849083023,0.6902654867256637
139,0.0013489976435231037,0.6902654867256637
140,0.0013489976435231037,0.691286589516678
141,0.001366073563061371,0.691286589516678
142,0.001366073563061371,0.6919673247106876
143,0.0014002254021379052,0.6919673247106876
144,0.0014002254021379052,0.6936691626957113
145,0.0014173013216761722,0.6936691626957113
146,0.0014173013216761722,0.6940095302927162
147,0.0014343772412144394,0.6940095302927162
148,0.0014343772412144394,0.6977535738597685
149,0.0015026809193675078,0.6977535738597685
150,0.0015026809193675078,0.6980939414567733
151,0.0015368327584440423,0.6980939414567733
152,0.0015368327584440423,0.6994554118447924
153,0.0015539086779823093,0.6994554118447924
154,0.0015539086779823093,0.7008168822328115
155,0.0015709845975205765,0.7008168822328115
156,0.0015709845975205765,0.7021783526208305
157,0.0016051364365971107,0.7021783526208305
158,0.0016051364365971107,0.7031994554118448
159,0.001639288275673645,0.7031994554118448
160,0.001639288275673645,0.7072838665759019
161,0.0016563641952119122,0.7072838665759019
162,0.0016563641952119122,0.7083049693669162
163,0.0016734401147501792,0.7083049693669162
164,0.0016734401147501792,0.7089857045609258
165,0.0016905160342884464,0.7089857045609258
166,0.0016905160342884464,0.7093260721579305
167,0.0017075919538267136,0.7093260721579305
168,0.0017075919538267136,0.7100068073519401
169,0.0017246678733649806,0.7100068073519401
170,0.0017246678733649806,0.7106875425459497
171,0.0017417437929032479,0.7106875425459497
172,0.0017417437929032479,0.7110279101429544
173,0.001758819712441515,0.7110279101429544
174,0.001758819712441515,0.7113682777399591
175,0.001775895631979782,0.7113682777399591
176,0.001775895631979782,0.7120490129339687
177,0.0018100474710563163,0.7120490129339687
178,0.0018100474710563163,0.7123893805309734
179,0.0018271233905945835,0.7123893805309734
180,0.0018271233905945835,0.7134104833219878
181,0.0018441993101328507,0.7134104833219878
182,0.0018441993101328507,0.7147719537100068
183,0.0018612752296711178,0.7147719537100068
184,0.0018612752296711178,0.7151123213070115
185,0.001878351149209385,0.7151123213070115
186,0.001878351149209385,0.7154526889040164
187,0.001895427068747652,0.7154526889040164
188,0.001895427068747652,0.7157930565010211
189,0.0019125029882859192,0.7157930565010211
190,0.0019125029882859192,0.717494894486045
191,0.0019295789078241864,0.717494894486045
192,0.0019295789078241864,0.720217835262083
193,0.0019637307469007204,0.720217835262083
194,0.0019637307469007204,0.7229407760381211
195,0.0019808066664389876,0.7229407760381211
196,0.0019808066664389876,0.723281143635126
197,0.001997882585977255,0.723281143635126
198,0.001997882585977255,0.7236215112321307
199,0.0020320344250537893,0.7236215112321307
200,0.0020320344250537893,0.7239618788291354
201,0.002049110344592056,0.7239618788291354
202,0.002049110344592056,0.7249829816201497
203,0.0020661862641303233,0.7249829816201497
204,0.0020661862641303233,0.726004084411164
205,0.0020832621836685905,0.726004084411164
206,0.0020832621836685905,0.7263444520081688
207,0.0021003381032068578,0.7263444520081688
208,0.0021003381032068578,0.730428863172226
209,0.002117414022745125,0.730428863172226
210,0.002117414022745125,0.7341729067392784
211,0.002151565861821659,0.7341729067392784
212,0.002151565861821659,0.7358747447243023
213,0.002168641781359926,0.7358747447243023
214,0.002168641781359926,0.7365554799183118
215,0.0021857177008981934,0.7365554799183118
216,0.0021857177008981934,0.7368958475153166
217,0.0022027936204364607,0.7368958475153166
218,0.0022027936204364607,0.7372362151123213
219,0.0022198695399747274,0.7372362151123213
220,0.0022198695399747274,0.7379169503063309
221,0.002254021379051262,0.7379169503063309
222,0.002254021379051262,0.7389380530973452
223,0.0022881732181277963,0.7389380530973452
224,0.0022881732181277963,0.7402995234853642
225,0.002305249137666063,0.7402995234853642
226,0.002305249137666063,0.7409802586793737
227,0.0023223250572043303,0.7409802586793737
228,0.0023223250572043303,0.7413206262763785
229,0.0023394009767425976,0.7413206262763785
230,0.0023394009767425976,0.742001361470388
231,0.0023564768962808648,0.742001361470388
232,0.0023564768962808648,0.7423417290673928
233,0.0024418564939722004,0.7423417290673928
234,0.0024418564939722004,0.7437031994554119
235,0.0024589324135104677,0.7437031994554119
236,0.0024589324135104677,0.7440435670524166
237,0.002476008333048735,0.7440435670524166
238,0.002476008333048735,0.7477876106194691
239,0.002510160172125269,0.7477876106194691
240,0.002510160172125269,0.7481279782164738
241,0.0025443120112018033,0.7481279782164738
242,0.0025443120112018033,0.7484683458134785
243,0.0025613879307400706,0.7484683458134785
244,0.0025613879307400706,0.7491490810074881
245,0.0025784638502783373,0.7491490810074881
246,0.0025784638502783373,0.7515316541865215
247,0.0025955397698166046,0.7515316541865215
248,0.0025955397698166046,0.7518720217835262
249,0.002612615689354872,0.7518720217835262
250,0.002612615689354872,0.7528931245745405
251,0.0026467675284314062,0.7528931245745405
252,0.0026467675284314062,0.7532334921715452
253,0.0026809193675079402,0.7532334921715452
254,0.0026809193675079402,0.7535738597685501
255,0.0026979952870462075,0.7535738597685501
256,0.0026979952870462075,0.7549353301565691
257,0.002732147126122742,0.7549353301565691
258,0.002732147126122742,0.7552756977535738
259,0.002783374884737543,0.7552756977535738
260,0.002783374884737543,0.7559564329475834
261,0.0028175267238140776,0.7559564329475834
262,0.0028175267238140776,0.7566371681415929
263,0.0028516785628906116,0.7566371681415929
264,0.0028516785628906116,0.7569775357385977
265,0.002868754482428879,0.7569775357385977
266,0.002868754482428879,0.7573179033356024
267,0.002885830401967146,0.7573179033356024
268,0.002885830401967146,0.7586793737236215
269,0.0029029063215054132,0.7586793737236215
270,0.0029029063215054132,0.7590197413206263
271,0.00291998224104368,0.7590197413206263
272,0.00291998224104368,0.762423417290674
273,0.0029370581605819472,0.762423417290674
274,0.0029370581605819472,0.7627637848876787
275,0.0029712099996584817,0.7627637848876787
276,0.0029712099996584817,0.763784887678693
277,0.002988285919196749,0.763784887678693
278,0.002988285919196749,0.7644656228727025
279,0.0030053618387350157,0.7644656228727025
280,0.0030053618387350157,0.7654867256637168
281,0.00303951367781155,0.7654867256637168
282,0.00303951367781155,0.7661674608577264
283,0.0030565895973498174,0.7661674608577264
284,0.0030565895973498174,0.7671885636487407
285,0.0030736655168880846,0.7671885636487407
286,0.0030736655168880846,0.7675289312457454
287,0.0031078173559646186,0.7675289312457454
288,0.0031078173559646186,0.7678692988427501
289,0.003124893275502886,0.7678692988427501
290,0.003124893275502886,0.7685500340367597
291,0.003141969195041153,0.7685500340367597
292,0.003141969195041153,0.7692307692307693
293,0.003176121034117687,0.7692307692307693
294,0.003176121034117687,0.7699115044247787
295,0.0031931969536559543,0.7699115044247787
296,0.0031931969536559543,0.7705922396187883
297,0.0032102728731942215,0.7705922396187883
298,0.0032102728731942215,0.7716133424098026
299,0.0032273487927324887,0.7716133424098026
300,0.0032273487927324887,0.7719537100068073
301,0.003244424712270756,0.7719537100068073
302,0.003244424712270756,0.7722940776038121
303,0.0032615006318090227,0.7722940776038121
304,0.0032615006318090227,0.7733151803948264
305,0.00327857655134729,0.7733151803948264
306,0.00327857655134729,0.773995915588836
307,0.003295652470885557,0.773995915588836
308,0.003295652470885557,0.7743362831858407
309,0.0033127283904238244,0.7743362831858407
310,0.0033127283904238244,0.7746766507828454
311,0.003381032068576893,0.7746766507828454
312,0.003381032068576893,0.7756977535738597
313,0.0034493357467299613,0.7756977535738597
314,0.0034493357467299613,0.7760381211708646
315,0.0034664116662682285,0.7760381211708646
316,0.0034664116662682285,0.7770592239618789
317,0.00351763942488303,0.7770592239618789
318,0.00351763942488303,0.7787610619469026
319,0.003534715344421297,0.7787610619469026
320,0.003534715344421297,0.7794417971409122
321,0.003551791263959564,0.7794417971409122
322,0.003551791263959564,0.779782164737917
323,0.0036371708616509,0.779782164737917
324,0.0036371708616509,0.7801225323349217
325,0.0036713227007274343,0.7801225323349217
326,0.0036713227007274343,0.7808032675289313
327,0.0036883986202657015,0.7808032675289313
328,0.0036883986202657015,0.7818243703199456
329,0.00375670229841877,0.7818243703199456
330,0.00375670229841877,0.7821647379169503
331,0.003773778217957037,0.7821647379169503
332,0.003773778217957037,0.782505105513955
333,0.003790854137495304,0.782505105513955
334,0.003790854137495304,0.7831858407079646
335,0.003807930057033571,0.7831858407079646
336,0.003807930057033571,0.7835262083049693
337,0.0038420818961101056,0.7835262083049693
338,0.0038420818961101056,0.7838665759019742
339,0.0038762337351866396,0.7838665759019742
340,0.0038762337351866396,0.7842069434989789
341,0.003893309654724907,0.7842069434989789
342,0.003893309654724907,0.7845473110959836
343,0.003910385574263174,0.7845473110959836
344,0.003910385574263174,0.7852280462899932
345,0.003927461493801441,0.7852280462899932
346,0.003927461493801441,0.7859087814840027
347,0.003961613332877975,0.7859087814840027
348,0.003961613332877975,0.7862491490810075
349,0.004029917011031044,0.7862491490810075
350,0.004029917011031044,0.7876106194690266
351,0.004046992930569311,0.7876106194690266
352,0.004046992930569311,0.7879509870660313
353,0.004081144769645845,0.7879509870660313
354,0.004081144769645845,0.7886317222600409
355,0.004098220689184112,0.7886317222600409
356,0.004098220689184112,0.7893124574540503
357,0.004149448447798914,0.7893124574540503
358,0.004149448447798914,0.7896528250510552
359,0.004166524367337181,0.7896528250510552
360,0.004166524367337181,0.7906739278420695
361,0.0042006762064137155,0.7906739278420695
362,0.0042006762064137155,0.7910142954390742
363,0.004217752125951982,0.7910142954390742
364,0.004217752125951982,0.7913546630360789
365,0.004251903965028517,0.7913546630360789
366,0.004251903965028517,0.7916950306330838
367,0.004286055804105051,0.7916950306330838
368,0.004286055804105051,0.7920353982300885
369,0.004337283562719852,0.7920353982300885
370,0.004337283562719852,0.7923757658270932
371,0.004354359482258119,0.7923757658270932
372,0.004354359482258119,0.7933968686181075
373,0.004388511321334654,0.7933968686181075
374,0.004388511321334654,0.7937372362151123
375,0.004422663160411188,0.7937372362151123
376,0.004422663160411188,0.7944179714091218
377,0.004439739079949455,0.7944179714091218
378,0.004439739079949455,0.7950987066031314
379,0.0044568149994877225,0.7950987066031314
380,0.0044568149994877225,0.7954390742001362
381,0.004473890919025989,0.7954390742001362
382,0.004473890919025989,0.7957794417971409
383,0.004508042758102524,0.7957794417971409
384,0.004508042758102524,0.7968005445881552
385,0.0045251186776407906,0.7968005445881552
386,0.0045251186776407906,0.7971409121851599
387,0.004559270516717325,0.7971409121851599
388,0.004559270516717325,0.7974812797821648
389,0.004576346436255593,0.7974812797821648
390,0.004576346436255593,0.7985023825731791
391,0.004644650114408661,0.7985023825731791
392,0.004644650114408661,0.7988427501701838
393,0.004678801953485195,0.7988427501701838
394,0.004678801953485195,0.7991831177671885
395,0.0047129537925617295,0.7991831177671885
396,0.0047129537925617295,0.7995234853641934
397,0.004730029712099996,0.7995234853641934
398,0.004730029712099996,0.8002042205582028
399,0.0047812574707147976,0.8002042205582028
400,0.0047812574707147976,0.8012253233492171
401,0.004815409309791332,0.8012253233492171
402,0.004815409309791332,0.8015656909462219
403,0.0048324852293296,0.8015656909462219
404,0.0048324852293296,0.8025867937372362
405,0.0048495611488678664,0.8025867937372362
406,0.0048495611488678664,0.802927161334241
407,0.004866637068406134,0.802927161334241
408,0.004866637068406134,0.8039482641252553
409,0.004883712987944401,0.8039482641252553
410,0.004883712987944401,0.8046289993192648
411,0.004900788907482668,0.8046289993192648
412,0.004900788907482668,0.8049693669162695
413,0.004917864827020935,0.8049693669162695
414,0.004917864827020935,0.8053097345132744
415,0.004934940746559202,0.8053097345132744
416,0.004934940746559202,0.8063308373042887
417,0.00495201666609747,0.8063308373042887
418,0.00495201666609747,0.8066712049012934
419,0.005054472183327072,0.8066712049012934
420,0.005054472183327072,0.807351940095303
421,0.005139851781018408,0.807351940095303
422,0.005139851781018408,0.8076923076923077
423,0.005174003620094942,0.8076923076923077
424,0.005174003620094942,0.808713410483322
425,0.005191079539633209,0.808713410483322
426,0.005191079539633209,0.8090537780803267
427,0.005259383217786278,0.8090537780803267
428,0.005259383217786278,0.8097345132743363
429,0.005310610976401079,0.8097345132743363
430,0.005310610976401079,0.810074880871341
431,0.005344762815477614,0.810074880871341
432,0.005344762815477614,0.8107556160653506
433,0.005395990574092415,0.8107556160653506
434,0.005395990574092415,0.8110959836623554
435,0.005413066493630682,0.8110959836623554
436,0.005413066493630682,0.813138189244384
437,0.005430142413168949,0.813138189244384
438,0.005430142413168949,0.8134785568413887
439,0.005447218332707216,0.8134785568413887
440,0.005447218332707216,0.8138189244383934
441,0.005481370171783751,0.8138189244383934
442,0.005481370171783751,0.8141592920353983
443,0.005515522010860285,0.8141592920353983
444,0.005515522010860285,0.8148400272294077
445,0.005532597930398552,0.8148400272294077
446,0.005532597930398552,0.8151803948264126
447,0.005566749769475086,0.8151803948264126
448,0.005566749769475086,0.8155207624234173
449,0.005720433045319491,0.8155207624234173
450,0.005720433045319491,0.8162014976174268
451,0.005737508964857758,0.8162014976174268
452,0.005737508964857758,0.8172226004084411
453,0.005788736723472559,0.8172226004084411
454,0.005788736723472559,0.8175629680054459
455,0.005857040401625628,0.8175629680054459
456,0.005857040401625628,0.8179033356024507
457,0.0058741163211638945,0.8179033356024507
458,0.0058741163211638945,0.8182437031994554
459,0.005908268160240429,0.8182437031994554
460,0.005908268160240429,0.8185840707964602
461,0.00595949591885523,0.8185840707964602
462,0.00595949591885523,0.818924438393465
463,0.005976571838393498,0.818924438393465
464,0.005976571838393498,0.8192648059904697
465,0.006010723677470031,0.8192648059904697
466,0.006010723677470031,0.8206262763784887
467,0.006027799597008299,0.8206262763784887
468,0.006027799597008299,0.8209666439754936
469,0.006096103275161367,0.8209666439754936
470,0.006096103275161367,0.8213070115724983
471,0.006164406953314436,0.8213070115724983
472,0.006164406953314436,0.8219877467665079
473,0.006249786551005772,0.8219877467665079
474,0.006249786551005772,0.8223281143635126
475,0.006283938390082306,0.8223281143635126
476,0.006283938390082306,0.8240299523485364
477,0.0063180902291588405,0.8240299523485364
478,0.0063180902291588405,0.8250510551395507
479,0.00643762166592671,0.8250510551395507
480,0.00643762166592671,0.8257317903335603
481,0.006471773505003244,0.8257317903335603
482,0.006471773505003244,0.826072157930565
483,0.006488849424541512,0.826072157930565
484,0.006488849424541512,0.8270932607215793
485,0.006505925344079779,0.8270932607215793
486,0.006505925344079779,0.8281143635125936
487,0.006540077183156313,0.8281143635125936
488,0.006540077183156313,0.8284547311095983
489,0.006608380861309381,0.8284547311095983
490,0.006608380861309381,0.8287950987066032
491,0.006625456780847649,0.8287950987066032
492,0.006625456780847649,0.8291354663036079
493,0.0066425327003859155,0.8291354663036079
494,0.0066425327003859155,0.8301565690946222
495,0.006659608619924183,0.8301565690946222
496,0.006659608619924183,0.8315180394826412
497,0.006744988217615519,0.8315180394826412
498,0.006744988217615519,0.831858407079646
499,0.006762064137153786,0.831858407079646
500,0.006762064137153786,0.8321987746766508
501,0.0067791400566920524,0.8321987746766508
502,0.0067791400566920524,0.8328795098706603
503,0.006813291895768587,0.8328795098706603
504,0.006813291895768587,0.8332198774676651
505,0.006864519654383389,0.8332198774676651
506,0.006864519654383389,0.8335602450646699
507,0.0068986714934599225,0.8335602450646699
508,0.0068986714934599225,0.8345813478556842
509,0.00691574741299819,0.8345813478556842
510,0.00691574741299819,0.8356024506466985
511,0.006984051091151258,0.8356024506466985
512,0.006984051091151258,0.8362831858407079
513,0.007069430688842594,0.8362831858407079
514,0.007069430688842594,0.8373042886317222
515,0.007103582527919128,0.8373042886317222
516,0.007103582527919128,0.8379850238257318
517,0.007171886206072197,0.8379850238257318
518,0.007171886206072197,0.8386657590197413
519,0.007240189884225265,0.8386657590197413
520,0.007240189884225265,0.8400272294077604
521,0.007308493562378334,0.8400272294077604
522,0.007308493562378334,0.8410483321987747
523,0.007410949079607937,0.8410483321987747
524,0.007410949079607937,0.8417290673927842
525,0.0074792527577610055,0.8417290673927842
526,0.0074792527577610055,0.8420694349897889
527,0.00751340459683754,0.8420694349897889
528,0.00751340459683754,0.8424098025867938
529,0.007530480516375807,0.8424098025867938
530,0.007530480516375807,0.8427501701837985
531,0.007547556435914074,0.8427501701837985
532,0.007547556435914074,0.8430905377808032
533,0.007564632355452341,0.8430905377808032
534,0.007564632355452341,0.8441116405718175
535,0.007581708274990608,0.8441116405718175
536,0.007581708274990608,0.8458134785568414
537,0.007615860114067142,0.8458134785568414
538,0.007615860114067142,0.8461538461538461
539,0.007752467470373279,0.8461538461538461
540,0.007752467470373279,0.8464942137508509
541,0.00787199890714115,0.8464942137508509
542,0.00787199890714115,0.8471749489448605
543,0.007889074826679417,0.8471749489448605
544,0.007889074826679417,0.8475153165418652
545,0.007906150746217684,0.8475153165418652
546,0.007906150746217684,0.84785568413887
547,0.007940302585294217,0.84785568413887
548,0.007940302585294217,0.8481960517358748
549,0.008042758102523822,0.8481960517358748
550,0.008042758102523822,0.8488767869298843
551,0.008076909941600355,0.8488767869298843
552,0.008076909941600355,0.8495575221238938
553,0.008128137700215157,0.8495575221238938
554,0.008128137700215157,0.8498978897208985
555,0.00816228953929169,0.8498978897208985
556,0.00816228953929169,0.8502382573179034
557,0.008196441378368224,0.8502382573179034
558,0.008196441378368224,0.8515997277059224
559,0.008213517297906493,0.8515997277059224
560,0.008213517297906493,0.852280462899932
561,0.008264745056521293,0.852280462899932
562,0.008264745056521293,0.8526208304969367
563,0.008315972815136095,0.8526208304969367
564,0.008315972815136095,0.8529611980939414
565,0.0084696560909805,0.8529611980939414
566,0.0084696560909805,0.8533015656909462
567,0.008503807930057034,0.8533015656909462
568,0.008503807930057034,0.8539823008849557
569,0.0085208838495953,0.8539823008849557
570,0.0085208838495953,0.8543226684819605
571,0.008555035688671836,0.8543226684819605
572,0.008555035688671836,0.85500340367597
573,0.008640415286363171,0.85500340367597
574,0.008640415286363171,0.8563648740639891
575,0.008691643044977972,0.8563648740639891
576,0.008691643044977972,0.8570456092579987
577,0.008725794884054507,0.8570456092579987
578,0.008725794884054507,0.8573859768550034
579,0.00882825040128411,0.8573859768550034
580,0.00882825040128411,0.858066712049013
581,0.008896554079437178,0.858066712049013
582,0.008896554079437178,0.8584070796460177
583,0.008930705918513712,0.8584070796460177
584,0.008930705918513712,0.8587474472430224
585,0.008947781838051979,0.8587474472430224
586,0.008947781838051979,0.8590878148400273
587,0.008964857757590245,0.8590878148400273
588,0.008964857757590245,0.859428182437032
589,0.00899900959666678,0.859428182437032
590,0.00899900959666678,0.8601089176310415
591,0.009050237355281581,0.8601089176310415
592,0.009050237355281581,0.860789652825051
593,0.009084389194358116,0.860789652825051
594,0.009084389194358116,0.8611300204220558
595,0.009238072470202521,0.8611300204220558
596,0.009238072470202521,0.8614703880190606
597,0.009391755746046924,0.8614703880190606
598,0.009391755746046924,0.8618107556160653
599,0.009408831665585192,0.8618107556160653
600,0.009408831665585192,0.8624914908100749
601,0.009425907585123459,0.8624914908100749
602,0.009425907585123459,0.8635125936010892
603,0.009442983504661726,0.8635125936010892
604,0.009442983504661726,0.8641933287950987
605,0.00947713534373826,0.8641933287950987
606,0.00947713534373826,0.8645336963921034
607,0.009494211263276528,0.8645336963921034
608,0.009494211263276528,0.8648740639891083
609,0.009511287182814795,0.8648740639891083
610,0.009511287182814795,0.865214431586113
611,0.009562514941429595,0.865214431586113
612,0.009562514941429595,0.8655547991831177
613,0.009767425975888802,0.8655547991831177
614,0.009767425975888802,0.8658951667801226
615,0.009852805573580137,0.8658951667801226
616,0.009852805573580137,0.8662355343771273
617,0.009921109251733206,0.8662355343771273
618,0.009921109251733206,0.866575901974132
619,0.009972337010348007,0.866575901974132
620,0.009972337010348007,0.8682777399591559
621,0.009989412929886275,0.8682777399591559
622,0.009989412929886275,0.8689584751531654
623,0.010023564768962809,0.8689584751531654
624,0.010023564768962809,0.869639210347175
625,0.010091868447115878,0.869639210347175
626,0.010091868447115878,0.8699795779441797
627,0.01019432396434548,0.8699795779441797
628,0.01019432396434548,0.8703199455411845
629,0.01031385540111335,0.8703199455411845
630,0.01031385540111335,0.8706603131381893
631,0.01048461459649602,0.8706603131381893
632,0.01048461459649602,0.871000680735194
633,0.010518766435572556,0.871000680735194
634,0.010518766435572556,0.8716814159292036
635,0.010587070113725625,0.8716814159292036
636,0.010587070113725625,0.8727025187202179
637,0.010621221952802158,0.8727025187202179
638,0.010621221952802158,0.8733832539142273
639,0.010655373791878692,0.8733832539142273
640,0.010655373791878692,0.8737236215112322
641,0.01067244971141696,0.8737236215112322
642,0.01067244971141696,0.8740639891082369
643,0.010740753389570028,0.8740639891082369
644,0.010740753389570028,0.8744043567052416
645,0.010774905228646563,0.8744043567052416
646,0.010774905228646563,0.8747447243022465
647,0.010877360745876165,0.8747447243022465
648,0.010877360745876165,0.8750850918992512
649,0.010928588504490968,0.8750850918992512
650,0.010928588504490968,0.8754254594962559
651,0.011013968102182303,0.8754254594962559
652,0.011013968102182303,0.8757658270932607
653,0.011048119941258837,0.8757658270932607
654,0.011048119941258837,0.8761061946902655
655,0.011065195860797104,0.8761061946902655
656,0.011065195860797104,0.876786929884275
657,0.011099347699873639,0.876786929884275
658,0.011099347699873639,0.8771272974812798
659,0.011116423619411906,0.8771272974812798
660,0.011116423619411906,0.8774676650782846
661,0.011167651378026706,0.8774676650782846
662,0.011167651378026706,0.8778080326752893
663,0.011235955056179775,0.8778080326752893
664,0.011235955056179775,0.8781484002722941
665,0.011338410573409377,0.8781484002722941
666,0.011338410573409377,0.8784887678692989
667,0.011423790171100713,0.8784887678692989
668,0.011423790171100713,0.8788291354663036
669,0.011457942010177248,0.8788291354663036
670,0.011457942010177248,0.8791695030633083
671,0.011594549366483384,0.8791695030633083
672,0.011594549366483384,0.8795098706603132
673,0.011782384481404324,0.8795098706603132
674,0.011782384481404324,0.8798502382573179
675,0.011799460400942591,0.8798502382573179
676,0.011799460400942591,0.8801906058543226
677,0.011833612240019125,0.8801906058543226
678,0.011833612240019125,0.8808713410483322
679,0.011850688159557391,0.8808713410483322
680,0.011850688159557391,0.8818924438393465
681,0.01191899183771046,0.8818924438393465
682,0.01191899183771046,0.8822328114363512
683,0.011953143676786996,0.8822328114363512
684,0.011953143676786996,0.882573179033356
685,0.01198729551586353,0.882573179033356
686,0.01198729551586353,0.8835942818243703
687,0.012089751033093132,0.8835942818243703
688,0.012089751033093132,0.8839346494213751
689,0.012243434308937536,0.8839346494213751
690,0.012243434308937536,0.8842750170183798
691,0.012311737987090605,0.8842750170183798
692,0.012311737987090605,0.8849557522123894
693,0.012328813906628872,0.8849557522123894
694,0.012328813906628872,0.8852961198093942
695,0.012448345343396741,0.8852961198093942
696,0.012448345343396741,0.8856364874063989
697,0.012533724941088077,0.8856364874063989
698,0.012533724941088077,0.8859768550034037
699,0.012550800860626345,0.8859768550034037
700,0.012550800860626345,0.8866575901974132
701,0.012567876780164612,0.8866575901974132
702,0.012567876780164612,0.8880190605854322
703,0.012584952699702879,0.8880190605854322
704,0.012584952699702879,0.8890401633764465
705,0.012789863734162084,0.8890401633764465
706,0.012789863734162084,0.8893805309734514
707,0.012806939653700352,0.8893805309734514
708,0.012806939653700352,0.8907420013614704
709,0.01304600252723609,0.8907420013614704
710,0.01304600252723609,0.8914227365554799
711,0.013080154366312626,0.8914227365554799
712,0.013080154366312626,0.8917631041524847
713,0.013131382124927427,0.8917631041524847
714,0.013131382124927427,0.8921034717494895
715,0.013267989481233564,0.8921034717494895
716,0.013267989481233564,0.8924438393464942
717,0.013302141320310098,0.8924438393464942
718,0.013302141320310098,0.892784206943499
719,0.0133533690789249,0.892784206943499
720,0.0133533690789249,0.8931245745405038
721,0.013387520918001434,0.8931245745405038
722,0.013387520918001434,0.8938053097345132
723,0.013455824596154502,0.8938053097345132
724,0.013455824596154502,0.8941456773315181
725,0.013507052354769305,0.8941456773315181
726,0.013507052354769305,0.8944860449285228
727,0.013575356032922373,0.8944860449285228
728,0.013575356032922373,0.8948264125255275
729,0.013609507871998907,0.8948264125255275
730,0.013609507871998907,0.8955071477195371
731,0.013626583791537174,0.8955071477195371
732,0.013626583791537174,0.8958475153165418
733,0.013780267067381578,0.8958475153165418
734,0.013780267067381578,0.8965282505105514
735,0.01389979850414945,0.8965282505105514
736,0.01389979850414945,0.8968686181075561
737,0.014053481779993852,0.8968686181075561
738,0.014053481779993852,0.897208985704561
739,0.014155937297223456,0.897208985704561
740,0.014155937297223456,0.8975493533015657
741,0.014173013216761723,0.8975493533015657
742,0.014173013216761723,0.8978897208985704
743,0.01419008913629999,0.8978897208985704
744,0.01419008913629999,0.8982300884955752
745,0.014326696492606128,0.8982300884955752
746,0.014326696492606128,0.8989108236895847
747,0.014446227929373997,0.8989108236895847
748,0.014446227929373997,0.8992511912865895
749,0.014514531607527066,0.8992511912865895
750,0.014514531607527066,0.8995915588835943
751,0.014531607527065333,0.8995915588835943
752,0.014531607527065333,0.899931926480599
753,0.014599911205218401,0.899931926480599
754,0.014599911205218401,0.9002722940776038
755,0.014616987124756668,0.9002722940776038
756,0.014616987124756668,0.9006126616746086
757,0.014770670400601073,0.9006126616746086
758,0.014770670400601073,0.9009530292716134
759,0.014804822239677606,0.9009530292716134
760,0.014804822239677606,0.9012933968686181
761,0.015095112871828149,0.9012933968686181
762,0.015095112871828149,0.9016337644656228
763,0.015163416549981216,0.9016337644656228
764,0.015163416549981216,0.9026548672566371
765,0.015214644308596018,0.9026548672566371
766,0.015214644308596018,0.902995234853642
767,0.015231720228134285,0.902995234853642
768,0.015231720228134285,0.9036759700476514
769,0.01526587206721082,0.9036759700476514
770,0.01526587206721082,0.9040163376446563
771,0.015282947986749087,0.9040163376446563
772,0.015282947986749087,0.904356705241661
773,0.01531709982582562,0.904356705241661
774,0.01531709982582562,0.9050374404356705
775,0.015368327584440422,0.9050374404356705
776,0.015368327584440422,0.9053778080326753
777,0.015453707182131758,0.9053778080326753
778,0.015453707182131758,0.90571817562968
779,0.015539086779823094,0.90571817562968
780,0.015573238618899627,0.90571817562968
781,0.015590314538437894,0.90571817562968
782,0.015590314538437894,0.9060585432266848
783,0.01562446637751443,0.9060585432266848
784,0.01562446637751443,0.9063989108236896
785,0.015658618216590963,0.9063989108236896
786,0.015658618216590963,0.9070796460176991
787,0.015761073733820567,0.9070796460176991
788,0.015761073733820567,0.9074200136147039
789,0.015914757009664972,0.9074200136147039
790,0.015914757009664972,0.9077603812117087
791,0.016051364365971106,0.9077603812117087
792,0.016051364365971106,0.9084411164057182
793,0.01615381988320071,0.9084411164057182
794,0.01615381988320071,0.908781484002723
795,0.016187971722277244,0.908781484002723
796,0.016187971722277244,0.9091218515997277
797,0.016256275400430314,0.9091218515997277
798,0.016256275400430314,0.9094622191967324
799,0.016307503159045115,0.9094622191967324
800,0.016307503159045115,0.9098025867937373
801,0.016358730917659915,0.9098025867937373
802,0.016358730917659915,0.910142954390742
803,0.01656364195211912,0.910142954390742
804,0.01656364195211912,0.9104833219877467
805,0.016649021549810458,0.9104833219877467
806,0.016649021549810458,0.9108236895847516
807,0.01676855298657833,0.9108236895847516
808,0.01676855298657833,0.9111640571817563
809,0.017024691779652334,0.9111640571817563
810,0.017024691779652334,0.911504424778761
811,0.017058843618728867,0.911504424778761
812,0.017058843618728867,0.9121851599727706
813,0.01716129913595847,0.9121851599727706
814,0.01716129913595847,0.9125255275697753
815,0.017246678733649805,0.9125255275697753
816,0.017246678733649805,0.9128658951667801
817,0.017366210170417676,0.9128658951667801
818,0.017366210170417676,0.9132062627637849
819,0.017451589768109014,0.9132062627637849
820,0.017451589768109014,0.9138869979577944
821,0.017536969365800348,0.9138869979577944
822,0.017536969365800348,0.9142273655547992
823,0.01757112120487688,0.9142273655547992
824,0.01757112120487688,0.914567733151804
825,0.017673576722106486,0.914567733151804
826,0.017673576722106486,0.9149081007488087
827,0.01775895631979782,0.9149081007488087
828,0.01775895631979782,0.9152484683458135
829,0.01792971551518049,0.9152484683458135
830,0.01792971551518049,0.9155888359428183
831,0.01806632287148663,0.9155888359428183
832,0.01806632287148663,0.915929203539823
833,0.018117550630101432,0.915929203539823
834,0.018117550630101432,0.9162695711368277
835,0.018271233905945834,0.9162695711368277
836,0.018271233905945834,0.9166099387338326
837,0.018424917181790238,0.9166099387338326
838,0.018424917181790238,0.9169503063308373
839,0.018561524538096376,0.9169503063308373
840,0.018561524538096376,0.917290673927842
841,0.01883473925070865,0.917290673927842
842,0.01883473925070865,0.9179714091218516
843,0.018885967009323452,0.9179714091218516
844,0.018885967009323452,0.9183117767188563
845,0.01897134660701479,0.9183117767188563
846,0.01897134660701479,0.9186521443158612
847,0.01914210580239746,0.9186521443158612
848,0.01914210580239746,0.9189925119128659
849,0.019227485400088794,0.9189925119128659
850,0.019227485400088794,0.9193328795098706
851,0.019347016836856665,0.9193328795098706
852,0.019347016836856665,0.9200136147038802
853,0.019364092756394932,0.9200136147038802
854,0.019364092756394932,0.9206943498978897
855,0.019466548273624536,0.9206943498978897
856,0.019466548273624536,0.9210347174948945
857,0.019756838905775075,0.9210347174948945
858,0.019756838905775075,0.9213750850918992
859,0.019825142583928146,0.9213750850918992
860,0.019825142583928146,0.921715452688904
861,0.019842218503466413,0.921715452688904
862,0.019842218503466413,0.9220558202859088
863,0.01997882585977255,0.9220558202859088
864,0.01997882585977255,0.9223961878829136
865,0.020149585055155222,0.9223961878829136
866,0.020149585055155222,0.9227365554799183
867,0.02021788873330829,0.9227365554799183
868,0.02021788873330829,0.9230769230769231
869,0.02033742017007616,0.9230769230769231
870,0.02033742017007616,0.9234172906739279
871,0.020354496089614427,0.9234172906739279
872,0.020354496089614427,0.9237576582709326
873,0.020883849595300708,0.9237576582709326
874,0.020883849595300708,0.9240980258679373
875,0.02091800143437724,0.9240980258679373
876,0.02091800143437724,0.9244383934649422
877,0.020986305112530308,0.9244383934649422
878,0.020986305112530308,0.9247787610619469
879,0.02115706430791298,0.9247787610619469
880,0.02115706430791298,0.9251191286589516
881,0.021259519825142584,0.9251191286589516
882,0.021259519825142584,0.9254594962559565
883,0.02127659574468085,0.9254594962559565
884,0.02127659574468085,0.9257998638529612
885,0.021310747583757384,0.9257998638529612
886,0.021310747583757384,0.9261402314499659
887,0.021686417813599264,0.9261402314499659
888,0.021686417813599264,0.9264805990469708
889,0.021720569652675797,0.9264805990469708
890,0.021720569652675797,0.9268209666439755
891,0.021737645572214064,0.9268209666439755
892,0.021737645572214064,0.9271613342409802
893,0.022010860284826336,0.9271613342409802
894,0.022010860284826336,0.927501701837985
895,0.022130391721594207,0.927501701837985
896,0.022130391721594207,0.9278420694349898
897,0.022147467641132474,0.9278420694349898
898,0.022147467641132474,0.9281824370319945
899,0.02223284723882381,0.9281824370319945
900,0.02223284723882381,0.9285228046289993
901,0.022284074997438612,0.9285228046289993
902,0.022284074997438612,0.9288631722260041
903,0.022608517468665688,0.9288631722260041
904,0.022608517468665688,0.9292035398230089
905,0.022625593388203954,0.9292035398230089
906,0.022625593388203954,0.9295439074200136
907,0.02269389706635702,0.9295439074200136
908,0.02269389706635702,0.9298842750170184
909,0.022813428503124893,0.9298842750170184
910,0.022813428503124893,0.9302246426140232
911,0.02283050442266316,0.9302246426140232
912,0.02283050442266316,0.9305650102110279
913,0.0230695672961989,0.9305650102110279
914,0.0230695672961989,0.9315861130020422
915,0.023650148560499983,0.9315861130020422
916,0.023650148560499983,0.9322668481960518
917,0.023684300399576516,0.9322668481960518
918,0.023684300399576516,0.9326072157930565
919,0.02383798367542092,0.9326072157930565
920,0.02383798367542092,0.9339686861810755
921,0.02390628735357399,0.9339686861810755
922,0.02390628735357399,0.9343090537780804
923,0.023940439192650525,0.9343090537780804
924,0.023940439192650525,0.9349897889720898
925,0.023991666951265325,0.9349897889720898
926,0.023991666951265325,0.9353301565690946
927,0.024162426146647997,0.9353301565690946
928,0.024162426146647997,0.9356705241660994
929,0.024281957583415868,0.9356705241660994
930,0.024281957583415868,0.9360108917631041
931,0.02445271677879854,0.9360108917631041
932,0.02445271677879854,0.9363512593601089
933,0.024486868617875072,0.9363512593601089
934,0.024486868617875072,0.9366916269571137
935,0.024521020456951606,0.9366916269571137
936,0.024521020456951606,0.9370319945541185
937,0.02455517229602814,0.9370319945541185
938,0.02455517229602814,0.9373723621511232
939,0.02472593149141081,0.9373723621511232
940,0.02472593149141081,0.937712729748128
941,0.024777159250025615,0.937712729748128
942,0.024777159250025615,0.9380530973451328
943,0.025050373962637887,0.9380530973451328
944,0.025050373962637887,0.9383934649421375
945,0.025067449882176154,0.9383934649421375
946,0.025067449882176154,0.9387338325391422
947,0.025426044192479767,0.9387338325391422
948,0.025426044192479767,0.9390742001361471
949,0.025579727468324168,0.9390742001361471
950,0.025579727468324168,0.9394145677331518
951,0.025596803387862438,0.9394145677331518
952,0.025596803387862438,0.9397549353301565
953,0.025784638502783376,0.9397549353301565
954,0.025784638502783376,0.9400953029271614
955,0.02592124585908951,0.9400953029271614
956,0.02592124585908951,0.9404356705241661
957,0.026057853215395648,0.9404356705241661
958,0.026057853215395648,0.9407760381211708
959,0.026245688330316586,0.9407760381211708
960,0.026245688330316586,0.9411164057181757
961,0.026262764249854853,0.9411164057181757
962,0.026262764249854853,0.9417971409121851
963,0.026331067928007924,0.9417971409121851
964,0.026331067928007924,0.9424778761061947
965,0.026365219767084457,0.9424778761061947
966,0.026365219767084457,0.9428182437031994
967,0.02646767528431406,0.9428182437031994
968,0.02646767528431406,0.9431586113002042
969,0.026655510399235,0.9431586113002042
970,0.026655510399235,0.943498978897209
971,0.02692872511184727,0.943498978897209
972,0.02692872511184727,0.9438393464942137
973,0.027082408387691676,0.9438393464942137
974,0.027082408387691676,0.9445200816882233
975,0.02730439534168915,0.9445200816882233
976,0.02730439534168915,0.944860449285228
977,0.02759468597383969,0.944860449285228
978,0.02759468597383969,0.9455411844792376
979,0.027628837812916227,0.9455411844792376
980,0.027628837812916227,0.9458815520762424
981,0.027731293330145828,0.9458815520762424
982,0.027731293330145828,0.9462219196732471
983,0.028055735801372904,0.9462219196732471
984,0.028055735801372904,0.9465622872702518
985,0.02807281172091117,0.9465622872702518
986,0.02807281172091117,0.9469026548672567
987,0.028089887640449437,0.9469026548672567
988,0.028089887640449437,0.9472430224642614
989,0.028533861548444384,0.9472430224642614
990,0.028533861548444384,0.9475833900612661
991,0.02879000034151839,0.9475833900612661
992,0.02879000034151839,0.947923757658271
993,0.028807076261056656,0.947923757658271
994,0.028807076261056656,0.9482641252552757
995,0.028892455858747994,0.9482641252552757
996,0.028892455858747994,0.9486044928522804
997,0.02890953177828626,0.9486044928522804
998,0.02890953177828626,0.9489448604492853
999,0.029848707352890955,0.9489448604492853
1000,0.029848707352890955,0.94928522804629
1001,0.03010484614596496,0.94928522804629
1002,0.03010484614596496,0.9496255956432947
1003,0.030207301663194564,0.9496255956432947
1004,0.030207301663194564,0.9499659632402995
1005,0.030309757180424165,0.9499659632402995
1006,0.030309757180424165,0.9503063308373043
1007,0.030480516375806836,0.9503063308373043
1008,0.030480516375806836,0.950646698434309
1009,0.030617123732112974,0.950646698434309
1010,0.030617123732112974,0.9509870660313138
1011,0.030839110686110446,0.9509870660313138
1012,0.030839110686110446,0.9513274336283186
1013,0.03119770499641406,0.9513274336283186
1014,0.03119770499641406,0.9516678012253234
1015,0.03179536218025341,0.9516678012253234
1016,0.03179536218025341,0.9520081688223281
1017,0.03194904545609781,0.9520081688223281
1018,0.03194904545609781,0.9523485364193329
1019,0.032358867525016224,0.9523485364193329
1020,0.032358867525016224,0.9526889040163377
1021,0.032461323042245825,0.9526889040163377
1022,0.032461323042245825,0.9530292716133424
1023,0.032563778559475426,0.9530292716133424
1024,0.032563778559475426,0.9533696392103471
1025,0.03363956149038626,0.9533696392103471
1026,0.03363956149038626,0.953710006807352
1027,0.034442129708684814,0.953710006807352
1028,0.034442129708684814,0.9540503744043567
1029,0.03492025545575629,0.9540503744043567
1030,0.03492025545575629,0.9543907420013614
1031,0.03500563505344763,0.9543907420013614
1032,0.03500563505344763,0.9547311095983663
1033,0.03558621631774871,0.9547311095983663
1034,0.03558621631774871,0.955071477195371
1035,0.03596188654759059,0.955071477195371
1036,0.03596188654759059,0.9554118447923757
1037,0.036115569823434994,0.9554118447923757
1038,0.036115569823434994,0.9557522123893806
1039,0.03614972166251153,0.9557522123893806
1040,0.03614972166251153,0.9560925799863853
1041,0.03645708821420034,0.9560925799863853
1042,0.03645708821420034,0.95643294758339
1043,0.036508315972815134,0.95643294758339
1044,0.036508315972815134,0.9567733151803949
1045,0.03753287114511116,0.9567733151803949
1046,0.03753287114511116,0.9571136827773996
1047,0.03763532666234077,0.9571136827773996
1048,0.03763532666234077,0.9574540503744043
1049,0.037874389535876504,0.9574540503744043
1050,0.037874389535876504,0.9577944179714091
1051,0.03795976913356784,0.9577944179714091
1052,0.03795976913356784,0.9581347855684139
1053,0.038113452409412246,0.9581347855684139
1054,0.038113452409412246,0.9584751531654186
1055,0.0387623373518664,0.9584751531654186
1056,0.0387623373518664,0.9588155207624234
1057,0.03918923534032308,0.9588155207624234
1058,0.03918923534032308,0.9591558883594282
1059,0.039684437006932825,0.9591558883594282
1060,0.039684437006932825,0.959496255956433
1061,0.04014548683446604,0.959496255956433
1062,0.04014548683446604,0.9598366235534377
1063,0.04017963867354257,0.9598366235534377
1064,0.04017963867354257,0.9601769911504425
1065,0.04096513097230286,0.9601769911504425
1066,0.04096513097230286,0.9605173587474473
1067,0.04221167309859636,0.9605173587474473
1068,0.04221167309859636,0.960857726344452
1069,0.04335575970766026,0.960857726344452
1070,0.04335575970766026,0.9611980939414567
1071,0.043646050339810796,0.9611980939414567
1072,0.04366312625934907,0.9615384615384616
1073,0.043953416891499605,0.9615384615384616
1074,0.043953416891499605,0.9618788291354663
1075,0.04419247976503535,0.9618788291354663
1076,0.04419247976503535,0.962219196732471
1077,0.04420955568457362,0.962219196732471
1078,0.04420955568457362,0.9625595643294759
1079,0.04444861855810935,0.9625595643294759
1080,0.04444861855810935,0.9628999319264806
1081,0.046053754994706465,0.9628999319264806
1082,0.046053754994706465,0.9632402995234853
1083,0.0461391345923978,0.9632402995234853
1084,0.0461391345923978,0.9635806671204902
1085,0.047624739592227044,0.9635806671204902
1086,0.047624739592227044,0.9639210347174949
1087,0.048427307810525594,0.9639210347174949
1088,0.048427307810525594,0.9642614023144996
1089,0.04929817970697722,0.9642614023144996
1090,0.04929817970697722,0.9646017699115044
1091,0.05008367200573751,0.9646017699115044
1092,0.05008367200573751,0.9649421375085092
1093,0.05069840510911513,0.9649421375085092
1094,0.05069840510911513,0.9652825051055139
1095,0.050749632867729925,0.9652825051055139
1096,0.050749632867729925,0.9656228727025187
1097,0.051176530856186606,0.9656228727025187
1098,0.051176530856186606,0.9659632402995235
1099,0.05121068269526314,0.9659632402995235
1100,0.05121068269526314,0.9663036078965282
1101,0.05129606229295448,0.9663036078965282
1102,0.05129606229295448,0.966643975493533
1103,0.05165465660325808,0.966643975493533
1104,0.05165465660325808,0.9669843430905378
1105,0.052423072982480105,0.9669843430905378
1106,0.052423072982480105,0.9673247106875426
1107,0.052627984016939314,0.9673247106875426
1108,0.052627984016939314,0.9676650782845473
1109,0.052849970970936785,0.9676650782845473
1110,0.052849970970936785,0.9680054458815521
1111,0.05291827464908985,0.9680054458815521
1112,0.05291827464908985,0.9683458134785569
1113,0.05344762815477613,0.9683458134785569
1114,0.05344762815477613,0.9686861810755616
1115,0.053550083672005734,0.9686861810755616
1116,0.053550083672005734,0.9690265486725663
1117,0.05365253918923534,0.9690265486725663
1118,0.05365253918923534,0.9693669162695712
1119,0.054113589016768555,0.9693669162695712
1120,0.054113589016768555,0.9700476514635806
1121,0.05501861275229671,0.9700476514635806
1122,0.05501861275229671,0.9703880190605855
1123,0.05529182746490899,0.9703880190605855
1124,0.05529182746490899,0.9707283866575902
1125,0.05682866022335303,0.9707283866575902
1126,0.05682866022335303,0.9710687542545949
1127,0.0581435060277996,0.9710687542545949
1128,0.0581435060277996,0.9714091218515998
1129,0.0584508725794884,0.9714091218515998
1130,0.0584508725794884,0.9717494894486045
1131,0.05860455585533281,0.9717494894486045
1132,0.05860455585533281,0.9720898570456092
1133,0.05863870769440934,0.9720898570456092
1134,0.05863870769440934,0.9727705922396188
1135,0.05875823913117721,0.9727705922396188
1136,0.05875823913117721,0.9731109598366235
1137,0.059526655510399235,0.9731109598366235
1138,0.059526655510399235,0.9734513274336283
1139,0.059543731429937505,0.9734513274336283
1140,0.059543731429937505,0.9741320626276379
1141,0.05966326286670537,0.9741320626276379
1142,0.05966326286670537,0.9744724302246426
1143,0.059936477579317644,0.9744724302246426
1144,0.059936477579317644,0.9748127978216474
1145,0.06097810867115194,0.9748127978216474
1146,0.06097810867115194,0.9751531654186522
1147,0.062275878556060246,0.9751531654186522
1148,0.062275878556060246,0.9754935330156569
1149,0.06265154878590212,0.9754935330156569
1150,0.06265154878590212,0.9758339006126616
1151,0.06268570062497865,0.9758339006126616
1152,0.06268570062497865,0.9761742682096665
1153,0.0644274444178819,0.9761742682096665
1154,0.0644274444178819,0.9765146358066712
1155,0.06606673269355555,0.9765146358066712
1156,0.06606673269355555,0.9768550034036759
1157,0.06616918821078516,0.9768550034036759
1158,0.06616918821078516,0.9771953710006808
1159,0.06623749188893822,0.9771953710006808
1160,0.06623749188893822,0.9775357385976855
1161,0.06630579556709129,0.9775357385976855
1162,0.06630579556709129,0.9778761061946902
1163,0.06639117516478263,0.9778761061946902
1164,0.06639117516478263,0.9782164737916951
1165,0.06678392131416276,0.9782164737916951
1166,0.06678392131416276,0.9785568413886998
1167,0.06690345275093064,0.9785568413886998
1168,0.06690345275093064,0.9788972089857045
1169,0.0681670707967624,0.9788972089857045
1170,0.0681670707967624,0.9792375765827094
1171,0.06855981694614255,0.9792375765827094
1172,0.06855981694614255,0.9795779441797141
1173,0.06914039821044363,0.9795779441797141
1174,0.06914039821044363,0.9799183117767188
1175,0.0694648406816707,0.9799183117767188
1176,0.0694648406816707,0.9805990469707284
1177,0.07113828079642089,0.9805990469707284
1178,0.07113828079642089,0.9809394145677331
1179,0.07499743861206926,0.9809394145677331
1180,0.07499743861206926,0.9812797821647379
1181,0.07778081349680681,0.9812797821647379
1182,0.07778081349680681,0.9816201497617427
1183,0.0778320412554216,0.9816201497617427
1184,0.0778320412554216,0.9819605173587475
1185,0.08010313855401113,0.9819605173587475
1186,0.08010313855401113,0.9823008849557522
1187,0.0801202144735494,0.9823008849557522
1188,0.0801202144735494,0.982641252552757
1189,0.0803763532666234,0.982641252552757
1190,0.0803763532666234,0.9829816201497618
1191,0.0813155288412281,0.9829816201497618
1192,0.0813155288412281,0.9833219877467665
1193,0.08367200573750896,0.9833219877467665
1194,0.08367200573750896,0.9836623553437712
1195,0.0837061575765855,0.9836623553437712
1196,0.0837061575765855,0.9840027229407761
1197,0.08683105085208838,0.9840027229407761
1198,0.08683105085208838,0.9843430905377808
1199,0.08857279464499163,0.9843430905377808
1200,0.08857279464499163,0.9846834581347855
1201,0.09104880297804037,0.9846834581347855
1202,0.0910829548171169,0.9846834581347855
1203,0.09395170929954579,0.9846834581347855
1204,0.09395170929954579,0.9850238257317904
1205,0.09434445544892592,0.9850238257317904
1206,0.09434445544892592,0.9853641933287951
1207,0.09588128820736996,0.9853641933287951
1208,0.09588128820736996,0.9857045609257998
1209,0.09603497148321437,0.9857045609257998
1210,0.09603497148321437,0.9863852961198094
1211,0.09723028585089306,0.9863852961198094
1212,0.09723028585089306,0.9867256637168141
1213,0.09822068918411256,0.9867256637168141
1214,0.09822068918411256,0.9870660313138189
1215,0.09982582562070967,0.9870660313138189
1216,0.09982582562070967,0.9874063989108237
1217,0.10011611625286021,0.9874063989108237
1218,0.10011611625286021,0.9877467665078284
1219,0.1009016085516205,0.9877467665078284
1220,0.1009016085516205,0.9880871341048332
1221,0.10091868447115877,0.9880871341048332
1222,0.10091868447115877,0.988427501701838
1223,0.10216522659745227,0.988427501701838
1224,0.10216522659745227,0.9887678692988427
1225,0.10520474027526382,0.9887678692988427
1226,0.10520474027526382,0.9891082368958475
1227,0.10546087906833783,0.9891082368958475
1228,0.10546087906833783,0.9894486044928523
1229,0.10571701786141184,0.9894486044928523
1230,0.10571701786141184,0.989788972089857
1231,0.10624637136709812,0.989788972089857
1232,0.10624637136709812,0.9901293396868618
1233,0.10641713056248078,0.9901293396868618
1234,0.10641713056248078,0.9904697072838666
1235,0.10662204159694,0.9904697072838666
1236,0.10662204159694,0.9908100748808714
1237,0.10711724326354974,0.9908100748808714
1238,0.10711724326354974,0.9911504424778761
1239,0.10800519107953964,0.9911504424778761
1240,0.10800519107953964,0.9914908100748808
1241,0.10902974625183566,0.9914908100748808
1242,0.10902974625183566,0.9918311776718857
1243,0.11024213653905263,0.9918311776718857
1244,0.11024213653905263,0.9921715452688904
1245,0.11042997165397357,0.9921715452688904
1246,0.11042997165397357,0.9925119128658951
1247,0.11136914722857826,0.9925119128658951
1248,0.11136914722857826,0.9928522804629
1249,0.11599672142344865,0.9928522804629
1250,0.11599672142344865,0.9931926480599047
1251,0.12038523274478331,0.9931926480599047
1252,0.12038523274478331,0.9935330156569094
1253,0.13481438475461904,0.9935330156569094
1254,0.13481438475461904,0.9938733832539143
1255,0.1401420716505584,0.9938733832539143
1256,0.1401420716505584,0.994213750850919
1257,0.14053481779993854,0.994213750850919
1258,0.14053481779993854,0.9945541184479237
1259,0.1467846043509443,0.9945541184479237
1260,0.1467846043509443,0.9948944860449285
1261,0.1523342782008811,0.9948944860449285
1262,0.1523342782008811,0.9952348536419333
1263,0.1523513541204194,0.9952348536419333
1264,0.1523513541204194,0.995575221238938
1265,0.15701308015436632,0.995575221238938
1266,0.15701308015436632,0.9959155888359428
1267,0.161913869061849,0.9959155888359428
1268,0.161913869061849,0.9962559564329476
1269,0.16628530446364537,0.9962559564329476
1270,0.16628530446364537,0.9965963240299524
1271,0.16770260578532153,0.9965963240299524
1272,0.16770260578532153,0.9969366916269571
1273,0.1726033946928042,0.9969366916269571
1274,0.1726033946928042,0.9972770592239619
1275,0.17345719066971757,0.9972770592239619
1276,0.17345719066971757,0.9976174268209667
1277,0.1743622144052457,0.9976174268209667
1278,0.1743622144052457,0.9979577944179714
1279,0.1751989344626208,0.9979577944179714
1280,0.17523308630169734,0.9979577944179714
1281,0.17559168061200095,0.9979577944179714
1282,0.1756258324510775,0.9979577944179714
1283,0.17924592739319012,0.9979577944179714
1284,0.17924592739319012,0.9982981620149761
1285,0.19522898808100816,0.9982981620149761
1286,0.19522898808100816,0.998638529611981
1287,0.19949796796557495,0.998638529611981
1288,0.1995321198046515,0.998638529611981
1289,0.20132509135616952,0.998638529611981
1290,0.20135924319524606,0.998638529611981
1291,0.2095556845736143,0.998638529611981
1292,0.20958983641269083,0.998638529611981
1293,0.2128854888835764,0.998638529611981
1294,0.2129196407226529,0.998638529611981
1295,0.2161469895153854,0.998638529611981
1296,0.21618114135446193,0.998638529611981
1297,0.2163519005498446,0.998638529611981
1298,0.21638605238892114,0.998638529611981
1299,0.2293466753184659,0.998638529611981
1300,0.2293466753184659,0.9989788972089857
1301,0.23948977152419657,0.9989788972089857
1302,0.2395239233632731,0.9989788972089857
1303,0.26271302209623987,0.9989788972089857
1304,0.26274717393531644,0.9989788972089857
1305,0.26829684778525326,0.9989788972089857
1306,0.26833099962432977,0.9989788972089857
1307,0.2819917352549435,0.9989788972089857
1308,0.2819917352549435,0.9993192648059904
1309,0.2884635087599467,0.9993192648059904
1310,0.28849766059902326,0.9993192648059904
1311,0.3007752467470373,0.9993192648059904
1312,0.3008093985861139,0.9993192648059904
1313,0.30282435709162936,0.9993192648059904
1314,0.30282435709162936,0.9996596324029953
1315,0.3180731532393019,0.9996596324029953
1316,0.3181073050783785,0.9996596324029953
1317,0.3279088828933438,0.9996596324029953
1318,0.3279430347324203,0.9996596324029953
1319,0.3356442744441788,0.9996596324029953
1320,0.33567842628325534,0.9996596324029953
1321,0.34488234691438135,0.9996596324029953
1322,0.34491649875345787,0.9996596324029953
1323,0.3463679519142106,0.9996596324029953
1324,0.3464021037532871,0.9996596324029953
1325,0.3582527919128445,0.9996596324029953
1326,0.35828694375192105,0.9996596324029953
1327,0.3763361907038694,0.9996596324029953
1328,0.37637034254294593,0.9996596324029953
1329,0.37741197363478024,0.9996596324029953
1330,0.37744612547385675,0.9996596324029953
1331,0.3841911136914723,0.9996596324029953
1332,0.3842252655305488,0.9996596324029953
1333,0.4041016358730918,0.9996596324029953
1334,0.4041357877121683,0.9996596324029953
1335,0.4227997677674943,0.9996596324029953
1336,0.4228339196065708,0.9996596324029953
1337,0.4260271165602268,0.9996596324029953
1338,0.4260612683993033,0.9996596324029953
1339,0.42872511184727297,0.9996596324029953
1340,0.42875926368634953,0.9996596324029953
1341,0.43147433489293396,0.9996596324029953
1342,0.43150848673201053,0.9996596324029953
1343,0.44127591270789934,0.9996596324029953
1344,0.44131006454697586,0.9996596324029953
1345,0.44151497558143504,0.9996596324029953
1346,0.4415491274205116,0.9996596324029953
1347,0.44624500529353506,0.9996596324029953
1348,0.44624500529353506,1.0
1349,0.44848195075304803,1.0
1350,0.4485161025921246,1.0
1351,0.4515556162699361,1.0
1352,0.4515897681090127,1.0
1353,0.46526757965916465,1.0
1354,0.46530173149824117,1.0
1355,0.465865236843004,1.0
1356,0.46589938868208053,1.0
1357,0.4663262866705372,1.0
1358,0.46636043850961373,1.0
1359,0.47909907448516104,1.0
1360,0.47913322632423755,1.0
1361,0.4986339264369386,1.0
1362,0.49866807827601517,1.0
1363,0.5095454390218913,1.0
1364,0.5095795908609678,1.0
1365,0.5107919811481848,1.0
1366,0.5108261329872613,1.0
1367,0.513165533964004,1.0
1368,0.5131996858030805,1.0
1369,0.5314709197090264,1.0
1370,0.5315050715481029,1.0
1371,0.5352276220074451,1.0
1372,0.5352617738465216,1.0
1373,0.5387623373518664,1.0
1374,0.5387964891909429,1.0
1375,0.5482907004542195,1.0
1376,0.548324852293296,1.0
1377,0.552542604419248,1.0
1378,0.5525767562583245,1.0
1379,0.5560260920050545,1.0
1380,0.556060243844131,1.0
1381,0.556572521430279,1.0
1382,0.556640825108432,1.0
1383,0.5672961989003108,1.0
1384,0.5673303507393873,1.0
1385,0.5679792356818415,1.0
1386,0.568013387520918,1.0
1387,0.5760732215429801,1.0
1388,0.5761073733820566,1.0
1389,0.5781906355657253,1.0
1390,0.5782247874048018,1.0
1391,0.5810764659676924,1.0
1392,0.5811106178067689,1.0
1393,0.5825791468870599,1.0
1394,0.5826132987261364,1.0
1395,0.5847477886684198,1.0
1396,0.5847819405074963,1.0
1397,0.5882654280933028,1.0
1398,0.5882995799323794,1.0
1399,0.5915781564837267,1.0
1400,0.5916123083228032,1.0
1401,0.6160991769406783,1.0
1402,0.6161333287797548,1.0
1403,0.6197534237218674,1.0
1404,0.619787575560944,1.0
1405,0.6205730678597042,1.0
1406,0.6206072196987807,1.0
1407,0.6255080086062634,1.0
1408,0.62554216044534,1.0
1409,0.6301355828011338,1.0
1410,0.6301697346402104,1.0
1411,0.6337727536627847,1.0
1412,0.6338069055018613,1.0
1413,0.6358560158464533,1.0
1414,0.6358901676855299,1.0
1415,0.6484921963047711,1.0
1416,0.6485263481438476,1.0
1417,0.6539735664765548,1.0
1418,0.6540077183156313,1.0
1419,0.6602404289470988,1.0
1420,0.6602745807861753,1.0
1421,0.6659437860728801,1.0
1422,0.6659779379119566,1.0
1423,0.6730815204398757,1.0
1424,0.6731156722789522,1.0
1425,0.678272599979509,1.0
1426,0.6783067518185855,1.0
1427,0.6808852156688637,1.0
1428,0.6809193675079404,1.0
1429,0.6843687032546703,1.0
1430,0.6844028550937468,1.0
1431,0.6896280864724565,1.0
1432,0.6896622383115331,1.0
1433,0.6907721730815204,1.0
1434,0.690806324920597,1.0
1435,0.6958095693453092,1.0
1436,0.6958437211843858,1.0
1437,0.6981831221611283,1.0
1438,0.698217274000205,1.0
1439,0.6991222977357331,1.0
1440,0.6991564495748096,1.0
1441,0.7069430688842594,1.0
1442,0.7069772207233359,1.0
1443,0.7203305898022608,1.0
1444,0.7203647416413373,1.0
1445,0.7327618592261194,1.0
1446,0.7327960110651959,1.0
1447,0.7405655544551074,1.0
1448,0.7405997062941839,1.0
1449,0.7533895700283461,1.0
1450,0.7534237218674226,1.0
1451,0.7547044158327926,1.0
1452,0.7547385676718691,1.0
1453,0.7587514087633619,1.0
1454,0.7587855606024384,1.0
1455,0.7593319900276629,1.0
1456,0.7593661418667396,1.0
1457,0.7664697243946587,1.0
1458,0.7665038762337352,1.0
1459,0.7672381407738806,1.0
1460,0.7672722926129573,1.0
1461,0.7743587992213381,1.0
1462,0.7743929510604146,1.0
1463,0.77601516341655,1.0
1464,0.7760493152556265,1.0
1465,0.779976776749428,1.0
1466,0.7800109285885045,1.0
1467,0.7855776783579795,1.0
1468,0.7856118301970562,1.0
1469,0.7942522454834193,1.0
1470,0.7942863973224958,1.0
1471,0.7955500153683276,1.0
1472,0.7955841672074041,1.0
1473,0.8034903179536218,1.0
1474,0.8035244697926983,1.0
1475,0.8103206857689287,1.0
1476,0.8103548376080052,1.0
1477,0.8131382124927428,1.0
1478,0.8131723643318193,1.0
1479,0.8177145589289984,1.0
1480,0.8177487107680749,1.0
1481,0.8288651343874868,1.0
1482,0.8288992862265633,1.0
1483,0.8356784262832554,1.0
1484,0.8357125781223319,1.0
1485,0.8475974181209658,1.0
1486,0.8476315699600423,1.0
1487,0.8576551347290051,1.0
1488,0.8576892865680817,1.0
1489,0.8606092688091254,1.0
1490,0.8606434206482019,1.0
1491,0.864485502544312,1.0
1492,0.8645196543833885,1.0
1493,0.8752433318534203,1.0
1494,0.8752774836924968,1.0
1495,0.8780950104163109,1.0
1496,0.8781291622553875,1.0
1497,0.8873501588060517,1.0
1498,0.8873843106451282,1.0
1499,0.8898773948977152,1.0
1500,0.8899115467367917,1.0
1501,0.8911068611044705,1.0
1502,0.891141012943547,1.0
1503,0.9109832314470134,1.0
1504,0.9110173832860899,1.0
1505,0.9244390560431679,1.0
1506,0.9244732078822444,1.0
1507,0.9388169802943889,1.0
1508,0.9388511321334654,1.0
1509,0.961135207130904,1.0
1510,0.9611693589699806,1.0
1511,1.0,1.0
