,fpr,tpr
0,0.0,0.0
1,0.0,0.0002745241581259151
2,0.0,0.0006405563689604685
3,0.0,0.0009150805270863836
4,0.0,0.0010980966325036604
5,0.0,0.00448389458272328
6,5.037732617303604e-06,0.00448389458272328
7,5.037732617303604e-06,0.008601756954612006
8,5.037732617303604e-06,0.008784773060029283
9,5.037732617303604e-06,0.010980966325036604
10,1.0075465234607208e-05,0.010980966325036604
11,1.0075465234607208e-05,0.0145497803806735
12,1.5113197851910811e-05,0.0145497803806735
13,1.5113197851910811e-05,0.020406295754026353
14,1.5113197851910811e-05,0.02058931185944363
15,1.5113197851910811e-05,0.027543923865300145
16,2.0150930469214415e-05,0.027543923865300145
17,2.0150930469214415e-05,0.032027818448023423
18,2.518866308651802e-05,0.032027818448023423
19,2.518866308651802e-05,0.03513909224011713
20,3.0226395703821623e-05,0.03513909224011713
21,3.0226395703821623e-05,0.048133235724743775
22,3.526412832112523e-05,0.048133235724743775
23,3.526412832112523e-05,0.05838213762811127
24,3.526412832112523e-05,0.05856515373352855
25,3.526412832112523e-05,0.0703696925329429
26,3.526412832112523e-05,0.07055270863836018
27,3.526412832112523e-05,0.08281478770131771
28,3.526412832112523e-05,0.082997803806735
29,3.526412832112523e-05,0.09288067349926793
30,4.030186093842883e-05,0.09288067349926793
31,4.030186093842883e-05,0.11685578330893119
32,4.533959355573244e-05,0.11685578330893119
33,4.533959355573244e-05,0.12069912152269399
34,5.037732617303604e-05,0.12069912152269399
35,5.037732617303604e-05,0.12838579795021962
36,5.037732617303604e-05,0.1285688140556369
37,5.037732617303604e-05,0.14101390922401172
38,5.5415058790339646e-05,0.14101390922401172
39,5.5415058790339646e-05,0.1431185944363104
40,5.5415058790339646e-05,0.14330161054172766
41,5.5415058790339646e-05,0.1529099560761347
42,6.0452791407643246e-05,0.1529099560761347
43,6.0452791407643246e-05,0.16114568081991215
44,6.0452791407643246e-05,0.16132869692532942
45,6.0452791407643246e-05,0.16169472913616398
46,6.549052402494685e-05,0.16169472913616398
47,6.549052402494685e-05,0.19152635431918008
48,6.549052402494685e-05,0.19170937042459738
49,6.549052402494685e-05,0.19234992679355783
50,7.052825664225046e-05,0.19234992679355783
51,7.052825664225046e-05,0.1941800878477306
52,7.556598925955406e-05,0.1941800878477306
53,7.556598925955406e-05,0.1992130307467057
54,8.060372187685766e-05,0.1992130307467057
55,8.060372187685766e-05,0.21376281112737922
56,8.564145449416126e-05,0.21376281112737922
57,8.564145449416126e-05,0.2375549048316252
58,9.067918711146488e-05,0.2375549048316252
59,9.067918711146488e-05,0.24359443631039532
60,9.571691972876848e-05,0.24359443631039532
61,9.571691972876848e-05,0.27251098096632503
62,0.00010075465234607208,0.27251098096632503
63,0.00010075465234607208,0.274798682284041
64,0.00010579238496337569,0.274798682284041
65,0.00010579238496337569,0.276811859443631
66,0.00011083011758067929,0.276811859443631
67,0.00011083011758067929,0.2793740849194729
68,0.00011586785019798289,0.2793740849194729
69,0.00011586785019798289,0.29062957540263545
70,0.00011586785019798289,0.2908125915080527
71,0.00011586785019798289,0.2910871156661786
72,0.00012090558281528649,0.2910871156661786
73,0.00012090558281528649,0.2916361639824305
74,0.0001259433154325901,0.2916361639824305
75,0.0001259433154325901,0.29465592972181553
76,0.0001309810480498937,0.29465592972181553
77,0.0001309810480498937,0.3055453879941435
78,0.00013601878066719732,0.3055453879941435
79,0.00013601878066719732,0.31195095168374815
80,0.00014105651328450092,0.31195095168374815
81,0.00014105651328450092,0.31286603221083453
82,0.00014609424590180452,0.31286603221083453
83,0.00014609424590180452,0.31478770131771594
84,0.00015113197851910812,0.31478770131771594
85,0.00015113197851910812,0.3160688140556369
86,0.00015616971113641172,0.3160688140556369
87,0.00015616971113641172,0.31762445095168373
88,0.00015616971113641172,0.317807467057101
89,0.00015616971113641172,0.32311493411420206
90,0.00016120744375371532,0.32311493411420206
91,0.00016120744375371532,0.3291544655929722
92,0.00016624517637101892,0.3291544655929722
93,0.00016624517637101892,0.3296120058565154
94,0.00017128290898832252,0.3296120058565154
95,0.00017128290898832252,0.34425329428989754
96,0.00017632064160562615,0.34425329428989754
97,0.00017632064160562615,0.3626464128843338
98,0.00018135837422292975,0.3626464128843338
99,0.00018135837422292975,0.37170571010248904
100,0.00018639610684023335,0.37170571010248904
101,0.00018639610684023335,0.375
102,0.00019143383945753695,0.375
103,0.00019143383945753695,0.382595168374817
104,0.00019647157207484055,0.382595168374817
105,0.00019647157207484055,0.3873535871156662
106,0.00020150930469214415,0.3873535871156662
107,0.00020150930469214415,0.38808565153733526
108,0.00020654703730944775,0.38808565153733526
109,0.00020654703730944775,0.3882686676427526
110,0.00021158476992675138,0.3882686676427526
111,0.00021158476992675138,0.39439970717423134
112,0.00021662250254405498,0.39439970717423134
113,0.00021662250254405498,0.3958638360175695
114,0.00022166023516135858,0.3958638360175695
115,0.00022166023516135858,0.39970717423133234
116,0.00022669796777866218,0.39970717423133234
117,0.00022669796777866218,0.4005307467057101
118,0.00023173570039596578,0.4005307467057101
119,0.00023173570039596578,0.404099560761347
120,0.00023677343301326938,0.404099560761347
121,0.00023677343301326938,0.40995607613469986
122,0.00024181116563057298,0.40995607613469986
123,0.00024181116563057298,0.4100475841874085
124,0.0002468488982478766,0.4100475841874085
125,0.0002468488982478766,0.41178623718887264
126,0.0002518866308651802,0.41178623718887264
127,0.0002518866308651802,0.417002196193265
128,0.0002569243634824838,0.417002196193265
129,0.0002569243634824838,0.4179172767203514
130,0.0002619620960997874,0.4179172767203514
131,0.0002619620960997874,0.41837481698389456
132,0.000266999828717091,0.41837481698389456
133,0.000266999828717091,0.41974743777452417
134,0.00027203756133439464,0.41974743777452417
135,0.00027203756133439464,0.4248718887262079
136,0.0002770752939516982,0.4248718887262079
137,0.0002770752939516982,0.42569546120058566
138,0.00028211302656900184,0.42569546120058566
139,0.00028211302656900184,0.4265190336749634
140,0.0002871507591863054,0.4265190336749634
141,0.0002871507591863054,0.42825768667642755
142,0.00029218849180360904,0.42825768667642755
143,0.00029218849180360904,0.4306368960468521
144,0.0002972262244209126,0.4306368960468521
145,0.0002972262244209126,0.4345717423133236
146,0.00030226395703821624,0.4345717423133236
147,0.00030226395703821624,0.4353038067349927
148,0.0003073016896555198,0.4353038067349927
149,0.0003073016896555198,0.43576134699853586
150,0.00031233942227282344,0.43576134699853586
151,0.00031233942227282344,0.4375
152,0.00031737715489012707,0.4375
153,0.00031737715489012707,0.4398792093704246
154,0.00032241488750743065,0.4398792093704246
155,0.00032241488750743065,0.44399707174231334
156,0.00032745262012473427,0.44399707174231334
157,0.00032745262012473427,0.44454612005856514
158,0.00033249035274203785,0.44454612005856514
159,0.00033249035274203785,0.4462847730600293
160,0.0003375280853593415,0.4462847730600293
161,0.0003375280853593415,0.45031112737920936
162,0.00034256581797664505,0.45031112737920936
163,0.00034256581797664505,0.45058565153733526
164,0.0003476035505939487,0.45058565153733526
165,0.0003476035505939487,0.45241581259150804
166,0.0003526412832112523,0.45241581259150804
167,0.0003526412832112523,0.4544289897510981
168,0.0003576790158285559,0.4544289897510981
169,0.0003576790158285559,0.4545204978038067
170,0.0003627167484458595,0.4545204978038067
171,0.0003627167484458595,0.4583638360175695
172,0.0003677544810631631,0.4583638360175695
173,0.0003677544810631631,0.46010248901903367
174,0.0003727922136804667,0.46010248901903367
175,0.0003727922136804667,0.46028550512445093
176,0.0003778299462977703,0.46028550512445093
177,0.0003778299462977703,0.46037701317715957
178,0.0003828676789150739,0.46037701317715957
179,0.0003828676789150739,0.4620241581259151
180,0.00038790541153237753,0.4620241581259151
181,0.00038790541153237753,0.4637628111273792
182,0.0003929431441496811,0.4637628111273792
183,0.0003929431441496811,0.46412884333821375
184,0.00039798087676698473,0.46412884333821375
185,0.00039798087676698473,0.46486090775988287
186,0.0004030186093842883,0.46486090775988287
187,0.0004030186093842883,0.4654099560761347
188,0.00040805634200159193,0.4654099560761347
189,0.00040805634200159193,0.4684297218155198
190,0.0004130940746188955,0.4684297218155198
191,0.0004130940746188955,0.47025988286969256
192,0.00041813180723619913,0.47025988286969256
193,0.00041813180723619913,0.47291361639824303
194,0.00042820727247080634,0.47291361639824303
195,0.00042820727247080634,0.4732796486090776
196,0.00043324500508810996,0.4732796486090776
197,0.00043324500508810996,0.4747437774524158
198,0.00043828273770541354,0.4747437774524158
199,0.00043828273770541354,0.47483528550512444
200,0.00044332047032271716,0.47483528550512444
201,0.00044332047032271716,0.4759333821376281
202,0.00045339593555732436,0.4759333821376281
203,0.00045339593555732436,0.48060029282576866
204,0.00045843366817462794,0.48060029282576866
205,0.00045843366817462794,0.4823389458272328
206,0.00046347140079193157,0.4823389458272328
207,0.00046347140079193157,0.4832540263543192
208,0.0004685091334092352,0.4832540263543192
209,0.0004685091334092352,0.4835285505124451
210,0.00047354686602653877,0.4835285505124451
211,0.00047354686602653877,0.483803074670571
212,0.0004785845986438424,0.483803074670571
213,0.0004785845986438424,0.4841691068814056
214,0.00048362233126114597,0.4841691068814056
215,0.00048362233126114597,0.48599926793557835
216,0.0004886600638784495,0.48599926793557835
217,0.0004886600638784495,0.48627379209370425
218,0.0004936977964957532,0.48627379209370425
219,0.0004936977964957532,0.4863653001464129
220,0.0004987355291130568,0.4863653001464129
221,0.0004987355291130568,0.4945095168374817
222,0.0005037732617303604,0.4945095168374817
223,0.0005037732617303604,0.49633967789165445
224,0.000508810994347664,0.49633967789165445
225,0.000508810994347664,0.49954245973645683
226,0.0005138487269649676,0.49954245973645683
227,0.0005138487269649676,0.501281112737921
228,0.0005188864595822712,0.501281112737921
229,0.0005188864595822712,0.5037518301610542
230,0.0005239241921995748,0.5037518301610542
231,0.0005239241921995748,0.5047584187408491
232,0.0005289619248168785,0.5047584187408491
233,0.0005289619248168785,0.5053074670571011
234,0.0005390373900514856,0.5053074670571011
235,0.0005390373900514856,0.5073206442166911
236,0.0005440751226687893,0.5073206442166911
237,0.0005440751226687893,0.5100658857979502
238,0.0005491128552860929,0.5100658857979502
239,0.0005491128552860929,0.5102489019033675
240,0.0005541505879033964,0.5102489019033675
241,0.0005541505879033964,0.5103404099560761
242,0.0005591883205207,0.5103404099560761
243,0.0005591883205207,0.510614934114202
244,0.0005642260531380037,0.510614934114202
245,0.0005642260531380037,0.5121705710102489
246,0.0005692637857553073,0.5121705710102489
247,0.0005692637857553073,0.5124450951683748
248,0.0005743015183726108,0.5124450951683748
249,0.0005743015183726108,0.513177159590044
250,0.0005793392509899145,0.513177159590044
251,0.0005793392509899145,0.5168374816983895
252,0.0005843769836072181,0.5168374816983895
253,0.0005843769836072181,0.5180270863836017
254,0.0005894147162245217,0.5180270863836017
255,0.0005894147162245217,0.5196742313323572
256,0.0005944524488418252,0.5196742313323572
257,0.0005944524488418252,0.5197657393850659
258,0.0005994901814591289,0.5197657393850659
259,0.0005994901814591289,0.5236090775988287
260,0.0006045279140764325,0.5236090775988287
261,0.0006045279140764325,0.5241581259150805
262,0.0006095656466937361,0.5241581259150805
263,0.0006095656466937361,0.5267203513909224
264,0.0006146033793110396,0.5267203513909224
265,0.0006146033793110396,0.530106149341142
266,0.0006246788445456469,0.530106149341142
267,0.0006246788445456469,0.5302891654465594
268,0.0006297165771629505,0.5302891654465594
269,0.0006297165771629505,0.5310212298682284
270,0.0006347543097802541,0.5310212298682284
271,0.0006347543097802541,0.5312042459736457
272,0.0006397920423975577,0.5312042459736457
273,0.0006397920423975577,0.5315702781844802
274,0.0006448297750148613,0.5315702781844802
275,0.0006448297750148613,0.532119326500732
276,0.0006498675076321649,0.532119326500732
277,0.0006498675076321649,0.5324853587115667
278,0.0006549052402494685,0.5324853587115667
279,0.0006549052402494685,0.5326683748169839
280,0.0006599429728667721,0.5326683748169839
281,0.0006599429728667721,0.5355966325036603
282,0.0006649807054840757,0.5355966325036603
283,0.0006649807054840757,0.5365117130307467
284,0.000675056170718683,0.5365117130307467
285,0.000675056170718683,0.5379758418740849
286,0.0006800939033359865,0.5379758418740849
287,0.0006800939033359865,0.5380673499267935
288,0.0006851316359532901,0.5380673499267935
289,0.0006851316359532901,0.538707906295754
290,0.0007002448338052009,0.538707906295754
291,0.0007002448338052009,0.5400805270863837
292,0.0007103202990398082,0.5400805270863837
293,0.0007103202990398082,0.5402635431918009
294,0.0007153580316571118,0.5402635431918009
295,0.0007153580316571118,0.5408125915080527
296,0.0007203957642744153,0.5408125915080527
297,0.0007203957642744153,0.5409040995607614
298,0.000725433496891719,0.5409040995607614
299,0.000725433496891719,0.5410871156661786
300,0.0007355089621263262,0.5410871156661786
301,0.0007355089621263262,0.5412701317715959
302,0.0007405466947436298,0.5412701317715959
303,0.0007405466947436298,0.5420021961932651
304,0.0007455844273609334,0.5420021961932651
305,0.0007455844273609334,0.5420937042459737
306,0.000750622159978237,0.5420937042459737
307,0.000750622159978237,0.5431002928257687
308,0.0007556598925955406,0.5431002928257687
309,0.0007556598925955406,0.5431918008784773
310,0.0007657353578301478,0.5431918008784773
311,0.0007657353578301478,0.5435578330893118
312,0.0007808485556820586,0.5435578330893118
313,0.0007808485556820586,0.5437408491947291
314,0.0007909240209166658,0.5437408491947291
315,0.0007909240209166658,0.5455710102489019
316,0.0007959617535339695,0.5455710102489019
317,0.0007959617535339695,0.5464860907759883
318,0.000800999486151273,0.5464860907759883
319,0.000800999486151273,0.548590775988287
320,0.0008060372187685766,0.548590775988287
321,0.0008060372187685766,0.5492313323572474
322,0.0008110749513858803,0.5492313323572474
323,0.0008110749513858803,0.5499633967789166
324,0.0008161126840031839,0.5499633967789166
325,0.0008161126840031839,0.5503294289897511
326,0.0008211504166204874,0.5503294289897511
327,0.0008211504166204874,0.5506954612005857
328,0.000826188149237791,0.5506954612005857
329,0.000826188149237791,0.5508784773060029
330,0.0008312258818550947,0.5508784773060029
331,0.0008312258818550947,0.5511530014641288
332,0.0008362636144723983,0.5511530014641288
333,0.0008362636144723983,0.551610541727672
334,0.0008413013470897018,0.551610541727672
335,0.0008413013470897018,0.5532576866764275
336,0.0008463390797070055,0.5532576866764275
337,0.0008463390797070055,0.5534407027818448
338,0.0008564145449416127,0.5534407027818448
339,0.0008564145449416127,0.5540812591508053
340,0.0008614522775589162,0.5540812591508053
341,0.0008614522775589162,0.5545387994143485
342,0.0008664900101762199,0.5545387994143485
343,0.0008664900101762199,0.5553623718887262
344,0.0008715277427935235,0.5553623718887262
345,0.0008715277427935235,0.5557284040995608
346,0.0008765654754108271,0.5557284040995608
347,0.0008765654754108271,0.556185944363104
348,0.0008866409406454343,0.556185944363104
349,0.0008866409406454343,0.5566434846266471
350,0.0008916786732627379,0.5566434846266471
351,0.0008916786732627379,0.556918008784773
352,0.0009067918711146487,0.556918008784773
353,0.0009067918711146487,0.5571010248901903
354,0.0009219050689665596,0.5571010248901903
355,0.0009219050689665596,0.5571925329428989
356,0.0009269428015838631,0.5571925329428989
357,0.0009269428015838631,0.5573755490483162
358,0.0009319805342011667,0.5573755490483162
359,0.0009319805342011667,0.5584736456808199
360,0.0009370182668184704,0.5584736456808199
361,0.0009370182668184704,0.559205710102489
362,0.000942055999435774,0.559205710102489
363,0.000942055999435774,0.5599377745241582
364,0.0009470937320530775,0.5599377745241582
365,0.0009470937320530775,0.5601207906295754
366,0.0009521314646703811,0.5601207906295754
367,0.0009521314646703811,0.5603038067349927
368,0.0009571691972876848,0.5603038067349927
369,0.0009571691972876848,0.5606698389458272
370,0.0009622069299049884,0.5606698389458272
371,0.0009622069299049884,0.5610358711566618
372,0.0009672446625222919,0.5610358711566618
373,0.0009672446625222919,0.5613103953147877
374,0.0009722823951395956,0.5613103953147877
375,0.0009722823951395956,0.5617679355783309
376,0.000977320127756899,0.5617679355783309
377,0.000977320127756899,0.5618594436310396
378,0.0009823578603742028,0.5618594436310396
379,0.0009823578603742028,0.5625915080527086
380,0.0009873955929915064,0.5625915080527086
381,0.0009873955929915064,0.5627745241581259
382,0.00099243332560881,0.5627745241581259
383,0.00099243332560881,0.5631405563689604
384,0.0009974710582261136,0.5631405563689604
385,0.0009974710582261136,0.5635065885797951
386,0.0010025087908434173,0.5635065885797951
387,0.0010025087908434173,0.5636896046852123
388,0.0010075465234607207,0.5636896046852123
389,0.0010075465234607207,0.5651537335285505
390,0.001017621988695328,0.5651537335285505
391,0.001017621988695328,0.5654282576866764
392,0.0010226597213126316,0.5654282576866764
393,0.0010226597213126316,0.5655197657393851
394,0.0010276974539299352,0.5655197657393851
395,0.0010276974539299352,0.5678989751098097
396,0.0010327351865472387,0.5678989751098097
397,0.0010327351865472387,0.5695461200585652
398,0.0010377729191645424,0.5695461200585652
399,0.0010377729191645424,0.5696376281112738
400,0.001042810651781846,0.5696376281112738
401,0.001042810651781846,0.5701866764275256
402,0.0010478483843991495,0.5701866764275256
403,0.0010478483843991495,0.5705527086383602
404,0.0010528861170164532,0.5705527086383602
405,0.0010528861170164532,0.5715592972181552
406,0.0010629615822510604,0.5715592972181552
407,0.0010629615822510604,0.5717423133235725
408,0.001067999314868364,0.5717423133235725
409,0.001067999314868364,0.5721998535871157
410,0.0010730370474856677,0.5721998535871157
411,0.0010730370474856677,0.5722913616398243
412,0.0010831125127202749,0.5722913616398243
413,0.0010831125127202749,0.5725658857979502
414,0.0010881502453375786,0.5725658857979502
415,0.0010881502453375786,0.573389458272328
416,0.001093187977954882,0.573389458272328
417,0.001093187977954882,0.574396046852123
418,0.0010982257105721857,0.574396046852123
419,0.0010982257105721857,0.5744875549048316
420,0.0011032634431894892,0.5744875549048316
421,0.0011032634431894892,0.5749450951683748
422,0.0011083011758067929,0.5749450951683748
423,0.0011083011758067929,0.5761346998535871
424,0.0011133389084240965,0.5761346998535871
425,0.0011133389084240965,0.576409224011713
426,0.0011183766410414,0.576409224011713
427,0.0011183766410414,0.5767752562225475
428,0.0011284521062760074,0.5767752562225475
429,0.0011284521062760074,0.5770497803806734
430,0.0011334898388933108,0.5770497803806734
431,0.0011334898388933108,0.5775988286969254
432,0.0011385275715106145,0.5775988286969254
433,0.0011385275715106145,0.5783308931185944
434,0.0011435653041279182,0.5783308931185944
435,0.0011435653041279182,0.5789714494875549
436,0.0011536407693625253,0.5789714494875549
437,0.0011536407693625253,0.5797950219619327
438,0.0011637162345971325,0.5797950219619327
439,0.0011637162345971325,0.5802525622254758
440,0.0011687539672144362,0.5802525622254758
441,0.0011687539672144362,0.5808016105417276
442,0.0011737916998317396,0.5808016105417276
443,0.0011737916998317396,0.5809846266471449
444,0.0011788294324490433,0.5809846266471449
445,0.0011788294324490433,0.5822657393850659
446,0.0011889048976836505,0.5822657393850659
447,0.0011889048976836505,0.5833638360175696
448,0.0012040180955355613,0.5833638360175696
449,0.0012040180955355613,0.5840959004392386
450,0.001209055828152865,0.5840959004392386
451,0.001209055828152865,0.5841874084919473
452,0.0012140935607701687,0.5841874084919473
453,0.0012140935607701687,0.5843704245973645
454,0.0012241690260047758,0.5843704245973645
455,0.0012241690260047758,0.5844619326500732
456,0.0012292067586220793,0.5844619326500732
457,0.0012292067586220793,0.5851024890190337
458,0.001234244491239383,0.5851024890190337
459,0.001234244491239383,0.585285505124451
460,0.0012392822238566866,0.585285505124451
461,0.0012392822238566866,0.5858345534407028
462,0.0012493576890912938,0.5858345534407028
463,0.0012493576890912938,0.5869326500732065
464,0.0012644708869432046,0.5869326500732065
465,0.0012644708869432046,0.5870241581259151
466,0.0012695086195605083,0.5870241581259151
467,0.0012695086195605083,0.5884882869692533
468,0.0012745463521778118,0.5884882869692533
469,0.0012745463521778118,0.5886713030746705
470,0.0012795840847951154,0.5886713030746705
471,0.0012795840847951154,0.5888543191800878
472,0.0012846218174124191,0.5888543191800878
473,0.0012846218174124191,0.5893118594436311
474,0.0012896595500297226,0.5893118594436311
475,0.0012896595500297226,0.5894948755490483
476,0.0012946972826470263,0.5894948755490483
477,0.0012946972826470263,0.5899524158125915
478,0.0012997350152643297,0.5899524158125915
479,0.0012997350152643297,0.590318448023426
480,0.0013047727478816334,0.590318448023426
481,0.0013047727478816334,0.5908674963396779
482,0.0013148482131162406,0.5908674963396779
483,0.0013148482131162406,0.5912335285505125
484,0.0013198859457335442,0.5912335285505125
485,0.0013198859457335442,0.5916910688140556
486,0.0013299614109681514,0.5916910688140556
487,0.0013299614109681514,0.5917825768667643
488,0.001334999143585455,0.5917825768667643
489,0.001334999143585455,0.5929721815519766
490,0.0013400368762027587,0.5929721815519766
491,0.0013400368762027587,0.5941617862371888
492,0.0013450746088200622,0.5941617862371888
493,0.0013450746088200622,0.5943448023426061
494,0.001350112341437366,0.5943448023426061
495,0.001350112341437366,0.5945278184480234
496,0.0013551500740546696,0.5945278184480234
497,0.0013551500740546696,0.5949853587115667
498,0.001360187806671973,0.5949853587115667
499,0.001360187806671973,0.5950768667642753
500,0.0013652255392892767,0.5950768667642753
501,0.0013652255392892767,0.5953513909224012
502,0.0013702632719065802,0.5953513909224012
503,0.0013702632719065802,0.595900439238653
504,0.0013753010045238839,0.595900439238653
505,0.0013753010045238839,0.5965409956076134
506,0.0013803387371411876,0.5965409956076134
507,0.0013803387371411876,0.5966325036603221
508,0.001385376469758491,0.5966325036603221
509,0.001385376469758491,0.5967240117130308
510,0.0013904142023757947,0.5967240117130308
511,0.0013904142023757947,0.5975475841874085
512,0.0013954519349930984,0.5975475841874085
513,0.0013954519349930984,0.5977306002928258
514,0.0014004896676104018,0.5977306002928258
515,0.0014004896676104018,0.5980051244509517
516,0.0014055274002277055,0.5980051244509517
517,0.0014055274002277055,0.5985541727672035
518,0.0014105651328450092,0.5985541727672035
519,0.0014105651328450092,0.5986456808199122
520,0.0014156028654623127,0.5986456808199122
521,0.0014156028654623127,0.5987371888726208
522,0.0014307160633142235,0.5987371888726208
523,0.0014307160633142235,0.5995607613469985
524,0.0014357537959315272,0.5995607613469985
525,0.0014357537959315272,0.5999267935578331
526,0.0014407915285488306,0.5999267935578331
527,0.0014407915285488306,0.6009333821376281
528,0.0014458292611661343,0.6009333821376281
529,0.0014458292611661343,0.6012994143484627
530,0.001450866993783438,0.6012994143484627
531,0.001450866993783438,0.6013909224011713
532,0.0014559047264007415,0.6013909224011713
533,0.0014559047264007415,0.6015739385065886
534,0.0014609424590180452,0.6015739385065886
535,0.0014609424590180452,0.6017569546120058
536,0.0014659801916353488,0.6017569546120058
537,0.0014659801916353488,0.602214494875549
538,0.0014710179242526523,0.602214494875549
539,0.0014710179242526523,0.6023975109809663
540,0.001476055656869956,0.6023975109809663
541,0.001476055656869956,0.6052342606149341
542,0.0014810933894872597,0.6052342606149341
543,0.0014810933894872597,0.6054172767203514
544,0.0014861311221045631,0.6054172767203514
545,0.0014861311221045631,0.6057833089311859
546,0.0014911688547218668,0.6057833089311859
547,0.0014911688547218668,0.6066983894582724
548,0.0014962065873391703,0.6066983894582724
549,0.0014962065873391703,0.6069729136163983
550,0.0015062820525737776,0.6069729136163983
551,0.0015062820525737776,0.6072474377745242
552,0.001511319785191081,0.6072474377745242
553,0.001511319785191081,0.6075219619326501
554,0.0015163575178083848,0.6075219619326501
555,0.0015163575178083848,0.6078879941434846
556,0.0015213952504256885,0.6078879941434846
557,0.0015213952504256885,0.6084370424597365
558,0.001526432983042992,0.6084370424597365
559,0.001526432983042992,0.6093521229868228
560,0.0015314707156602956,0.6093521229868228
561,0.0015314707156602956,0.6099926793557833
562,0.0015365084482775993,0.6099926793557833
563,0.0015365084482775993,0.6104502196193266
564,0.0015415461808949028,0.6104502196193266
565,0.0015415461808949028,0.6117313323572474
566,0.0015465839135122064,0.6117313323572474
567,0.0015465839135122064,0.612097364568082
568,0.0015516216461295101,0.612097364568082
569,0.0015516216461295101,0.612371888726208
570,0.0015616971113641173,0.612371888726208
571,0.0015616971113641173,0.6126464128843339
572,0.0015717725765987244,0.6126464128843339
573,0.0015717725765987244,0.6128294289897511
574,0.001576810309216028,0.6128294289897511
575,0.001576810309216028,0.6132869692532943
576,0.0015868857744506353,0.6132869692532943
577,0.0015868857744506353,0.6133784773060029
578,0.001591923507067939,0.6133784773060029
579,0.001591923507067939,0.6137445095168375
580,0.0015969612396852424,0.6137445095168375
581,0.0015969612396852424,0.6142020497803806
582,0.001601998972302546,0.6142020497803806
583,0.001601998972302546,0.6142935578330894
584,0.0016070367049198498,0.6142935578330894
585,0.0016070367049198498,0.6144765739385066
586,0.0016120744375371532,0.6144765739385066
587,0.0016120744375371532,0.6146595900439239
588,0.001617112170154457,0.6146595900439239
589,0.001617112170154457,0.6147510980966325
590,0.0016221499027717606,0.6147510980966325
591,0.0016221499027717606,0.615391654465593
592,0.001627187635389064,0.615391654465593
593,0.001627187635389064,0.6156661786237189
594,0.0016322253680063677,0.6156661786237189
595,0.0016322253680063677,0.616398243045388
596,0.0016372631006236712,0.616398243045388
597,0.0016372631006236712,0.6165812591508053
598,0.0016423008332409749,0.6165812591508053
599,0.0016423008332409749,0.6167642752562226
600,0.0016473385658582786,0.6167642752562226
601,0.0016473385658582786,0.6168557833089312
602,0.001652376298475582,0.6168557833089312
603,0.001652376298475582,0.6170387994143485
604,0.0016574140310928857,0.6170387994143485
605,0.0016574140310928857,0.6171303074670571
606,0.0016624517637101894,0.6171303074670571
607,0.0016624517637101894,0.6174963396778916
608,0.0016674894963274929,0.6174963396778916
609,0.0016674894963274929,0.6182284040995608
610,0.0016725272289447965,0.6182284040995608
611,0.0016725272289447965,0.6195095168374817
612,0.0016775649615621002,0.6195095168374817
613,0.0016775649615621002,0.6198755490483162
614,0.0016826026941794037,0.6198755490483162
615,0.0016826026941794037,0.6204245973645681
616,0.0016876404267967074,0.6204245973645681
617,0.0016876404267967074,0.6206076134699854
618,0.001692678159414011,0.6206076134699854
619,0.001692678159414011,0.6208821376281113
620,0.0016977158920313145,0.6208821376281113
621,0.0016977158920313145,0.6209736456808199
622,0.0017077913572659217,0.6209736456808199
623,0.0017077913572659217,0.6215226939970717
624,0.001717866822500529,0.6215226939970717
625,0.001717866822500529,0.6217972181551976
626,0.0017229045551178325,0.6217972181551976
627,0.0017229045551178325,0.6219802342606149
628,0.0017279422877351362,0.6219802342606149
629,0.0017279422877351362,0.6225292825768668
630,0.0017329800203524399,0.6225292825768668
631,0.0017329800203524399,0.6228038067349927
632,0.0017380177529697433,0.6228038067349927
633,0.0017380177529697433,0.6230783308931186
634,0.001743055485587047,0.6230783308931186
635,0.001743055485587047,0.6234443631039531
636,0.0017480932182043507,0.6234443631039531
637,0.0017480932182043507,0.6235358711566618
638,0.0017531309508216541,0.6235358711566618
639,0.0017531309508216541,0.6238103953147877
640,0.0017581686834389578,0.6238103953147877
641,0.0017581686834389578,0.6244509516837482
642,0.0017632064160562613,0.6244509516837482
643,0.0017632064160562613,0.6248169838945827
644,0.001768244148673565,0.6248169838945827
645,0.001768244148673565,0.6250915080527086
646,0.0017783196139081721,0.6250915080527086
647,0.0017783196139081721,0.6255490483162518
648,0.0017833573465254758,0.6255490483162518
649,0.0017833573465254758,0.6257320644216691
650,0.0017984705443773866,0.6257320644216691
651,0.0017984705443773866,0.6260065885797951
652,0.0018035082769946903,0.6260065885797951
653,0.0018035082769946903,0.6271046852122987
654,0.0018085460096119938,0.6271046852122987
655,0.0018085460096119938,0.6275622254758418
656,0.0018135837422292975,0.6275622254758418
657,0.0018135837422292975,0.6282027818448024
658,0.0018286969400812083,0.6282027818448024
659,0.0018286969400812083,0.6285688140556369
660,0.0018387724053158154,0.6285688140556369
661,0.0018387724053158154,0.6286603221083455
662,0.0018438101379331191,0.6286603221083455
663,0.0018438101379331191,0.6290263543191801
664,0.0018488478705504226,0.6290263543191801
665,0.0018488478705504226,0.6291178623718887
666,0.0018538856031677263,0.6291178623718887
667,0.0018538856031677263,0.6302159590043924
668,0.00185892333578503,0.6302159590043924
669,0.00185892333578503,0.6303074670571011
670,0.0018639610684023334,0.6303074670571011
671,0.0018639610684023334,0.6320461200585652
672,0.001868998801019637,0.6320461200585652
673,0.001868998801019637,0.6323206442166911
674,0.0018790742662542442,0.6323206442166911
675,0.0018790742662542442,0.6325036603221084
676,0.001884111998871548,0.6325036603221084
677,0.001884111998871548,0.6326866764275256
678,0.0018891497314888516,0.6326866764275256
679,0.0018891497314888516,0.6328696925329429
680,0.0019042629293407622,0.6328696925329429
681,0.0019042629293407622,0.633876281112738
682,0.001909300661958066,0.633876281112738
683,0.001909300661958066,0.6340592972181552
684,0.0019143383945753696,0.6340592972181552
685,0.0019143383945753696,0.6354319180087847
686,0.001919376127192673,0.6354319180087847
687,0.001919376127192673,0.6355234260614934
688,0.0019244138598099767,0.6355234260614934
689,0.0019244138598099767,0.6359809663250366
690,0.0019445647902791912,0.6359809663250366
691,0.0019445647902791912,0.6361639824304539
692,0.0019496025228964947,0.6361639824304539
693,0.0019496025228964947,0.6362554904831625
694,0.001954640255513798,0.6362554904831625
695,0.001954640255513798,0.6363469985358712
696,0.001959677988131102,0.6363469985358712
697,0.001959677988131102,0.6365300146412884
698,0.001969753453365709,0.6365300146412884
699,0.001969753453365709,0.6371705710102489
700,0.001974791185983013,0.6371705710102489
701,0.001974791185983013,0.6375366032210834
702,0.0019798289186003164,0.6375366032210834
703,0.0019798289186003164,0.637628111273792
704,0.0019899043838349237,0.637628111273792
705,0.0019899043838349237,0.6390922401171303
706,0.001994942116452227,0.6390922401171303
707,0.001994942116452227,0.6396412884333821
708,0.0019999798490695306,0.6396412884333821
709,0.0019999798490695306,0.6399158125915081
710,0.0020050175816868345,0.6399158125915081
711,0.0020050175816868345,0.6400988286969254
712,0.002010055314304138,0.6400988286969254
713,0.002010055314304138,0.6414714494875549
714,0.0020150930469214415,0.6414714494875549
715,0.0020150930469214415,0.6415629575402635
716,0.0020201307795387454,0.6415629575402635
717,0.0020201307795387454,0.6417459736456809
718,0.002025168512156049,0.6417459736456809
719,0.002025168512156049,0.6427525622254758
720,0.0020302062447733523,0.6427525622254758
721,0.0020302062447733523,0.6431185944363104
722,0.0020402817100079597,0.6431185944363104
723,0.0020402817100079597,0.6434846266471449
724,0.002045319442625263,0.6434846266471449
725,0.002045319442625263,0.6438506588579795
726,0.002050357175242567,0.6438506588579795
727,0.002050357175242567,0.64449121522694
728,0.0020553949078598705,0.64449121522694
729,0.0020553949078598705,0.6446742313323572
730,0.002060432640477174,0.6446742313323572
731,0.002060432640477174,0.6447657393850659
732,0.002075545838329085,0.6447657393850659
733,0.002075545838329085,0.6449487554904831
734,0.0020906590361809956,0.6449487554904831
735,0.0020906590361809956,0.6453147877013177
736,0.002100734501415603,0.6453147877013177
737,0.002100734501415603,0.6459553440702782
738,0.0021057722340329064,0.6459553440702782
739,0.0021057722340329064,0.6464128843338214
740,0.00211080996665021,0.6464128843338214
741,0.00211080996665021,0.6468704245973645
742,0.002115847699267514,0.6468704245973645
743,0.002115847699267514,0.6469619326500732
744,0.0021208854318848173,0.6469619326500732
745,0.0021208854318848173,0.6473279648609077
746,0.0021259231645021207,0.6473279648609077
747,0.0021259231645021207,0.6474194729136163
748,0.0021309608971194246,0.6474194729136163
749,0.0021309608971194246,0.6481515373352855
750,0.002135998629736728,0.6481515373352855
751,0.002135998629736728,0.6486090775988287
752,0.0021410363623540316,0.6486090775988287
753,0.0021410363623540316,0.648792093704246
754,0.002151111827588639,0.648792093704246
755,0.002151111827588639,0.6488836017569546
756,0.0021561495602059424,0.6488836017569546
757,0.0021561495602059424,0.6490666178623719
758,0.0021611872928232463,0.6490666178623719
759,0.0021611872928232463,0.6495241581259151
760,0.0021662250254405498,0.6495241581259151
761,0.0021662250254405498,0.6496156661786238
762,0.002176300490675157,0.6496156661786238
763,0.002176300490675157,0.6497071742313324
764,0.002191413688527068,0.6497071742313324
765,0.002191413688527068,0.6501647144948756
766,0.0021964514211443714,0.6501647144948756
767,0.0021964514211443714,0.6504392386530015
768,0.002201489153761675,0.6504392386530015
769,0.002201489153761675,0.6506222547584187
770,0.0022065268863789783,0.6506222547584187
771,0.0022065268863789783,0.6517203513909224
772,0.0022115646189962822,0.6517203513909224
773,0.0022115646189962822,0.6523609077598829
774,0.002221640084230889,0.6523609077598829
775,0.002221640084230889,0.6525439238653001
776,0.002226677816848193,0.6525439238653001
777,0.002226677816848193,0.6526354319180088
778,0.0022317155494654965,0.6526354319180088
779,0.0022317155494654965,0.652818448023426
780,0.0022367532820828,0.652818448023426
781,0.0022367532820828,0.6532759882869692
782,0.002241791014700104,0.6532759882869692
783,0.002241791014700104,0.6536420204978038
784,0.0022468287473174074,0.6536420204978038
785,0.0022468287473174074,0.654099560761347
786,0.002251866479934711,0.654099560761347
787,0.002251866479934711,0.6541910688140556
788,0.0022569042125520147,0.6541910688140556
789,0.0022569042125520147,0.6543740849194729
790,0.002277055143021229,0.6543740849194729
791,0.002277055143021229,0.6558382137628112
792,0.0022871306082558364,0.6558382137628112
793,0.0022871306082558364,0.6562042459736457
794,0.00229216834087314,0.6562042459736457
795,0.00229216834087314,0.6566617862371888
796,0.0022972060734904433,0.6566617862371888
797,0.0022972060734904433,0.6572108345534406
798,0.0023022438061077472,0.6572108345534406
799,0.0023022438061077472,0.6573023426061494
800,0.002327432469194265,0.6573023426061494
801,0.002327432469194265,0.6574853587115667
802,0.0023324702018115684,0.6574853587115667
803,0.0023324702018115684,0.6577598828696926
804,0.0023475833996634793,0.6577598828696926
805,0.0023475833996634793,0.6578513909224012
806,0.0023576588648980866,0.6578513909224012
807,0.0023576588648980866,0.6580344070278185
808,0.002367734330132694,0.6580344070278185
809,0.002367734330132694,0.6582174231332357
810,0.0023727720627499975,0.6582174231332357
811,0.0023727720627499975,0.658400439238653
812,0.002377809795367301,0.658400439238653
813,0.002377809795367301,0.6585834553440703
814,0.002382847527984605,0.6585834553440703
815,0.002382847527984605,0.6591325036603221
816,0.0023878852606019083,0.6591325036603221
817,0.0023878852606019083,0.6593155197657394
818,0.0023929229932192118,0.6593155197657394
819,0.0023929229932192118,0.6594985358711567
820,0.0024130739236884265,0.6594985358711567
821,0.0024130739236884265,0.6595900439238653
822,0.0024281871215403373,0.6595900439238653
823,0.0024281871215403373,0.659681551976574
824,0.002443300319392248,0.659681551976574
825,0.002443300319392248,0.6598645680819912
826,0.0024483380520095516,0.6598645680819912
827,0.0024483380520095516,0.6609626647144948
828,0.002453375784626855,0.6609626647144948
829,0.002453375784626855,0.6616032210834554
830,0.0024584135172441585,0.6616032210834554
831,0.0024584135172441585,0.661694729136164
832,0.0024634512498614624,0.661694729136164
833,0.0024634512498614624,0.6618777452415813
834,0.002468488982478766,0.6618777452415813
835,0.002468488982478766,0.6620607613469985
836,0.0024735267150960694,0.6620607613469985
837,0.0024735267150960694,0.6627928257686676
838,0.0024785644477133733,0.6627928257686676
839,0.0024785644477133733,0.6629758418740849
840,0.0024836021803306767,0.6629758418740849
841,0.0024836021803306767,0.6633418740849195
842,0.00248863991294798,0.6633418740849195
843,0.00248863991294798,0.6635248901903368
844,0.002493677645565284,0.6635248901903368
845,0.002493677645565284,0.6638909224011713
846,0.002503753110799891,0.6638909224011713
847,0.002503753110799891,0.6640739385065886
848,0.002508790843417195,0.6640739385065886
849,0.002508790843417195,0.6641654465592972
850,0.0025138285760344984,0.6641654465592972
851,0.0025138285760344984,0.6646229868228404
852,0.002518866308651802,0.6646229868228404
853,0.002518866308651802,0.6652635431918009
854,0.002528941773886409,0.6652635431918009
855,0.002528941773886409,0.6655380673499268
856,0.0025339795065037127,0.6655380673499268
857,0.0025339795065037127,0.6657210834553441
858,0.0025390172391210166,0.6657210834553441
859,0.0025390172391210166,0.6659040995607614
860,0.00254405497173832,0.6659040995607614
861,0.00254405497173832,0.66599560761347
862,0.0025490927043556235,0.66599560761347
863,0.0025490927043556235,0.6661786237188873
864,0.0025541304369729274,0.6661786237188873
865,0.0025541304369729274,0.6662701317715959
866,0.002559168169590231,0.6662701317715959
867,0.002559168169590231,0.667276720351391
868,0.0025642059022075343,0.667276720351391
869,0.0025642059022075343,0.6673682284040996
870,0.0025692436348248382,0.6673682284040996
871,0.0025692436348248382,0.6678257686676428
872,0.0025742813674421417,0.6678257686676428
873,0.0025742813674421417,0.6679172767203514
874,0.002579319100059445,0.6679172767203514
875,0.002579319100059445,0.6681002928257687
876,0.002584356832676749,0.6681002928257687
877,0.002584356832676749,0.6681918008784773
878,0.0025893945652940525,0.6681918008784773
879,0.0025893945652940525,0.6682833089311859
880,0.0025994700305286595,0.6682833089311859
881,0.0025994700305286595,0.6685578330893118
882,0.0026045077631459634,0.6685578330893118
883,0.0026045077631459634,0.6690153733528551
884,0.002609545495763267,0.6690153733528551
885,0.002609545495763267,0.6691068814055637
886,0.0026145832283805703,0.6691068814055637
887,0.0026145832283805703,0.6693814055636896
888,0.0026246586936151776,0.6693814055636896
889,0.0026246586936151776,0.6694729136163983
890,0.002644809624084392,0.6694729136163983
891,0.002644809624084392,0.6697474377745242
892,0.0026649605545536067,0.6697474377745242
893,0.0026649605545536067,0.6699304538799414
894,0.00266999828717091,0.6699304538799414
895,0.00266999828717091,0.6703879941434846
896,0.0026800737524055175,0.6703879941434846
897,0.0026800737524055175,0.6706625183016105
898,0.002685111485022821,0.6706625183016105
899,0.002685111485022821,0.6710285505124451
900,0.0026901492176401244,0.6710285505124451
901,0.0026901492176401244,0.6713945827232797
902,0.0026951869502574283,0.6713945827232797
903,0.0026951869502574283,0.6716691068814056
904,0.0027052624154920353,0.6716691068814056
905,0.0027052624154920353,0.6720351390922401
906,0.0027153378807266426,0.6720351390922401
907,0.0027153378807266426,0.6721266471449487
908,0.002720375613343946,0.6721266471449487
909,0.002720375613343946,0.6727672035139092
910,0.0027304510785785534,0.6727672035139092
911,0.0027304510785785534,0.6736822840409956
912,0.002735488811195857,0.6736822840409956
913,0.002735488811195857,0.6738653001464129
914,0.0027405265438131604,0.6738653001464129
915,0.0027405265438131604,0.6739568081991215
916,0.002755639741665071,0.6739568081991215
917,0.002755639741665071,0.6740483162518301
918,0.0027657152068996786,0.6740483162518301
919,0.0027657152068996786,0.6745058565153733
920,0.002770752939516982,0.6745058565153733
921,0.002770752939516982,0.6746888726207906
922,0.002775790672134286,0.6746888726207906
923,0.002775790672134286,0.674871888726208
924,0.0027808284047515894,0.674871888726208
925,0.0027808284047515894,0.6749633967789166
926,0.0027959416026035002,0.6749633967789166
927,0.0027959416026035002,0.6755124450951684
928,0.0028009793352208037,0.6755124450951684
929,0.0028009793352208037,0.675603953147877
930,0.0028060170678381076,0.675603953147877
931,0.0028060170678381076,0.6759699853587116
932,0.0028211302656900184,0.6759699853587116
933,0.0028211302656900184,0.6760614934114202
934,0.002826167998307322,0.6760614934114202
935,0.002826167998307322,0.6762445095168375
936,0.0028312057309246253,0.6762445095168375
937,0.0028312057309246253,0.6763360175695461
938,0.0028362434635419292,0.6763360175695461
939,0.0028362434635419292,0.6767935578330894
940,0.002846318928776536,0.6767935578330894
941,0.002846318928776536,0.676885065885798
942,0.0028715075918630544,0.676885065885798
943,0.0028715075918630544,0.6769765739385066
944,0.0028815830570976613,0.6769765739385066
945,0.0028815830570976613,0.6775256222547584
946,0.0028916585223322687,0.6775256222547584
947,0.0028916585223322687,0.6776171303074671
948,0.002896696254949572,0.6776171303074671
949,0.002896696254949572,0.6784407027818448
950,0.002901733987566876,0.6784407027818448
951,0.002901733987566876,0.6789897510980967
952,0.0029067717201841795,0.6789897510980967
953,0.0029067717201841795,0.6792642752562226
954,0.0029218849180360903,0.6792642752562226
955,0.0029218849180360903,0.6794472913616398
956,0.0029269226506533938,0.6794472913616398
957,0.0029269226506533938,0.6795387994143485
958,0.0029319603832706977,0.6795387994143485
959,0.0029319603832706977,0.679904831625183
960,0.002936998115888001,0.679904831625183
961,0.002936998115888001,0.6800878477306003
962,0.0029420358485053046,0.6800878477306003
963,0.0029420358485053046,0.6803623718887262
964,0.002952111313739912,0.6803623718887262
965,0.002952111313739912,0.6804538799414348
966,0.0029571490463572154,0.6804538799414348
967,0.0029571490463572154,0.6805453879941434
968,0.0029823377094437336,0.6805453879941434
969,0.0029823377094437336,0.6807284040995608
970,0.0029974509072956445,0.6807284040995608
971,0.0029974509072956445,0.6809114202049781
972,0.003002488639912948,0.6809114202049781
973,0.003002488639912948,0.6810944363103953
974,0.0030075263725302514,0.6810944363103953
975,0.0030075263725302514,0.6812774524158126
976,0.0030125641051475553,0.6812774524158126
977,0.0030125641051475553,0.681918008784773
978,0.0030176018377648588,0.681918008784773
979,0.0030176018377648588,0.6821010248901903
980,0.003027677302999466,0.6821010248901903
981,0.003027677302999466,0.6826500732064422
982,0.0030327150356167696,0.6826500732064422
983,0.0030327150356167696,0.6827415812591509
984,0.003052865966085984,0.6827415812591509
985,0.003052865966085984,0.6829245973645681
986,0.0030579036987032878,0.6829245973645681
987,0.0030579036987032878,0.6830161054172768
988,0.0030629414313205912,0.6830161054172768
989,0.0030629414313205912,0.683199121522694
990,0.0030730168965551986,0.683199121522694
991,0.0030730168965551986,0.6835651537335286
992,0.0030881300944071094,0.6835651537335286
993,0.0030881300944071094,0.6836566617862372
994,0.003093167827024413,0.6836566617862372
995,0.003093167827024413,0.6839311859443631
996,0.0030982055596417164,0.6839311859443631
997,0.0030982055596417164,0.684205710102489
998,0.0031032432922590203,0.684205710102489
999,0.0031032432922590203,0.6842972181551976
1000,0.0031082810248763237,0.6842972181551976
1001,0.0031082810248763237,0.6848462664714495
1002,0.003113318757493627,0.6848462664714495
1003,0.003113318757493627,0.6853953147877013
1004,0.0031334696879628415,0.6853953147877013
1005,0.0031334696879628415,0.6856698389458272
1006,0.003153620618432056,0.6856698389458272
1007,0.003153620618432056,0.6861273792093704
1008,0.003163696083666663,0.6861273792093704
1009,0.003163696083666663,0.6863103953147877
1010,0.003178809281518574,0.6863103953147877
1011,0.003178809281518574,0.6865849194729137
1012,0.003193922479370485,0.6865849194729137
1013,0.003193922479370485,0.6869509516837482
1014,0.0031989602119877887,0.6869509516837482
1015,0.0031989602119877887,0.6875
1016,0.003203997944605092,0.6875
1017,0.003203997944605092,0.6875915080527086
1018,0.0032090356772223956,0.6875915080527086
1019,0.0032090356772223956,0.6876830161054173
1020,0.0032140734098396995,0.6876830161054173
1021,0.0032140734098396995,0.6877745241581259
1022,0.0032392620729262173,0.6877745241581259
1023,0.0032392620729262173,0.6881405563689604
1024,0.003244299805543521,0.6881405563689604
1025,0.003244299805543521,0.6883235724743777
1026,0.0032493375381608246,0.6883235724743777
1027,0.0032493375381608246,0.6884150805270863
1028,0.0032594130033954316,0.6884150805270863
1029,0.0032594130033954316,0.6885980966325037
1030,0.003269488468630039,0.6885980966325037
1031,0.003269488468630039,0.6889641288433382
1032,0.0032745262012473424,0.6889641288433382
1033,0.0032745262012473424,0.6890556368960469
1034,0.0032795639338646463,0.6890556368960469
1035,0.0032795639338646463,0.6891471449487555
1036,0.0032846016664819498,0.6891471449487555
1037,0.0032846016664819498,0.6893301610541728
1038,0.0032896393990992532,0.6893301610541728
1039,0.0032896393990992532,0.68951317715959
1040,0.003294677131716557,0.68951317715959
1041,0.003294677131716557,0.6898792093704246
1042,0.003309790329568468,0.6898792093704246
1043,0.003309790329568468,0.6899707174231332
1044,0.003319865794803075,0.6899707174231332
1045,0.003319865794803075,0.6901537335285505
1046,0.0033299412600376822,0.6901537335285505
1047,0.0033299412600376822,0.6906112737920937
1048,0.0033349789926549857,0.6906112737920937
1049,0.0033349789926549857,0.6909773060029283
1050,0.003345054457889593,0.6909773060029283
1051,0.003345054457889593,0.6911603221083455
1052,0.0033551299231242004,0.6911603221083455
1053,0.0033551299231242004,0.6912518301610542
1054,0.003360167655741504,0.6912518301610542
1055,0.003360167655741504,0.6916178623718887
1056,0.0033652053883588074,0.6916178623718887
1057,0.0033652053883588074,0.6917093704245973
1058,0.0033702431209761113,0.6917093704245973
1059,0.0033702431209761113,0.691800878477306
1060,0.003380318586210718,0.691800878477306
1061,0.003380318586210718,0.6918923865300146
1062,0.003385356318828022,0.6918923865300146
1063,0.003385356318828022,0.6921669106881405
1064,0.003395431784062629,0.6921669106881405
1065,0.003395431784062629,0.6926244509516838
1066,0.0034206204471491472,0.6926244509516838
1067,0.0034206204471491472,0.6927159590043924
1068,0.003430695912383754,0.6927159590043924
1069,0.003430695912383754,0.6928989751098097
1070,0.003435733645001058,0.6928989751098097
1071,0.003435733645001058,0.6935395314787701
1072,0.0034407713776183615,0.6935395314787701
1073,0.0034407713776183615,0.6936310395314788
1074,0.003445809110235665,0.6936310395314788
1075,0.003445809110235665,0.6939970717423133
1076,0.003450846842852969,0.6939970717423133
1077,0.003450846842852969,0.6940885797950219
1078,0.0034558845754702723,0.6940885797950219
1079,0.0034558845754702723,0.6941800878477306
1080,0.003460922308087576,0.6941800878477306
1081,0.003460922308087576,0.6945461200585652
1082,0.0034810732385567905,0.6945461200585652
1083,0.0034810732385567905,0.6948206442166911
1084,0.003486110971174094,0.6948206442166911
1085,0.003486110971174094,0.6953696925329429
1086,0.0034911487037913975,0.6953696925329429
1087,0.0034911487037913975,0.6956442166910688
1088,0.003501224169026005,0.6956442166910688
1089,0.003501224169026005,0.6960102489019033
1090,0.003511299634260612,0.6960102489019033
1091,0.003511299634260612,0.696376281112738
1092,0.003521375099495219,0.696376281112738
1093,0.003521375099495219,0.6964677891654466
1094,0.0035264128321125226,0.6964677891654466
1095,0.0035264128321125226,0.6967423133235725
1096,0.0035314505647298265,0.6967423133235725
1097,0.0035314505647298265,0.6968338213762811
1098,0.0035415260299644334,0.6968338213762811
1099,0.0035415260299644334,0.6969253294289898
1100,0.0035465637625817373,0.6969253294289898
1101,0.0035465637625817373,0.6970168374816984
1102,0.0035566392278163442,0.6970168374816984
1103,0.0035566392278163442,0.6971998535871157
1104,0.003561676960433648,0.6971998535871157
1105,0.003561676960433648,0.6972913616398243
1106,0.003571752425668255,0.6972913616398243
1107,0.003571752425668255,0.6974743777452416
1108,0.003576790158285559,0.6974743777452416
1109,0.003576790158285559,0.6978404099560761
1110,0.003586865623520166,0.6978404099560761
1111,0.003586865623520166,0.6979319180087847
1112,0.00359190335613747,0.6979319180087847
1113,0.00359190335613747,0.6982064421669106
1114,0.0035969410887547733,0.6982064421669106
1115,0.0035969410887547733,0.6986639824304539
1116,0.0036019788213720767,0.6986639824304539
1117,0.0036019788213720767,0.6989385065885798
1118,0.0036070165539893806,0.6989385065885798
1119,0.0036070165539893806,0.6991215226939971
1120,0.003612054286606684,0.6991215226939971
1121,0.003612054286606684,0.6992130307467057
1122,0.0036322052170758984,0.6992130307467057
1123,0.0036322052170758984,0.6993045387994143
1124,0.0036422806823105057,0.6993045387994143
1125,0.0036422806823105057,0.6994875549048316
1126,0.003647318414927809,0.6994875549048316
1127,0.003647318414927809,0.6995790629575402
1128,0.003652356147545113,0.6995790629575402
1129,0.003652356147545113,0.6998535871156661
1130,0.0036573938801624166,0.6998535871156661
1131,0.0036573938801624166,0.7000366032210834
1132,0.0036674693453970235,0.7000366032210834
1133,0.0036674693453970235,0.7004941434846267
1134,0.0036725070780143274,0.7004941434846267
1135,0.0036725070780143274,0.7007686676427526
1136,0.003677544810631631,0.7007686676427526
1137,0.003677544810631631,0.7009516837481699
1138,0.0036825825432489343,0.7009516837481699
1139,0.0036825825432489343,0.7011346998535871
1140,0.0036876202758662382,0.7011346998535871
1141,0.0036876202758662382,0.7015007320644217
1142,0.003697695741100845,0.7015007320644217
1143,0.003697695741100845,0.7016837481698389
1144,0.0037077712063354525,0.7016837481698389
1145,0.0037077712063354525,0.7020497803806734
1146,0.003712808938952756,0.7020497803806734
1147,0.003712808938952756,0.7022327964860908
1148,0.00371784667157006,0.7022327964860908
1149,0.00371784667157006,0.7023243045387995
1150,0.003727922136804667,0.7023243045387995
1151,0.003727922136804667,0.7025073206442167
1152,0.0037329598694219707,0.7025073206442167
1153,0.0037329598694219707,0.7025988286969254
1154,0.003737997602039274,0.7025988286969254
1155,0.003737997602039274,0.7027818448023426
1156,0.0037430353346565776,0.7027818448023426
1157,0.0037430353346565776,0.7030563689604685
1158,0.003753110799891185,0.7030563689604685
1159,0.003753110799891185,0.7032393850658858
1160,0.0037631862651257924,0.7032393850658858
1161,0.0037631862651257924,0.7034224011713031
1162,0.0037732617303603993,0.7034224011713031
1163,0.0037732617303603993,0.703696925329429
1164,0.0037833371955950067,0.703696925329429
1165,0.0037833371955950067,0.7038799414348462
1166,0.00378837492821231,0.7038799414348462
1167,0.00378837492821231,0.7039714494875549
1168,0.0037934126608296136,0.7039714494875549
1169,0.0037934126608296136,0.7041544655929722
1170,0.0037984503934469175,0.7041544655929722
1171,0.0037984503934469175,0.7043374816983895
1172,0.0038085258586815244,0.7043374816983895
1173,0.0038085258586815244,0.7045204978038068
1174,0.0038135635912988283,0.7045204978038068
1175,0.0038135635912988283,0.7046120058565154
1176,0.0038236390565334353,0.7046120058565154
1177,0.0038236390565334353,0.704703513909224
1178,0.003828676789150739,0.704703513909224
1179,0.003828676789150739,0.7049780380673499
1180,0.0038337145217680426,0.7049780380673499
1181,0.0038337145217680426,0.7050695461200586
1182,0.00384378998700265,0.7050695461200586
1183,0.00384378998700265,0.7054355783308931
1184,0.0038488277196199534,0.7054355783308931
1185,0.0038488277196199534,0.705710102489019
1186,0.003853865452237257,0.705710102489019
1187,0.003853865452237257,0.7058016105417276
1188,0.003858903184854561,0.7058016105417276
1189,0.003858903184854561,0.7059846266471449
1190,0.0038639409174718643,0.7059846266471449
1191,0.0038639409174718643,0.7060761346998536
1192,0.0038740163827064716,0.7060761346998536
1193,0.0038740163827064716,0.7063506588579795
1194,0.0038840918479410786,0.7063506588579795
1195,0.0038840918479410786,0.7067166910688141
1196,0.003894167313175686,0.7067166910688141
1197,0.003894167313175686,0.7068081991215227
1198,0.0038992050457929894,0.7068081991215227
1199,0.0038992050457929894,0.70699121522694
1200,0.0039042427784102933,0.70699121522694
1201,0.0039042427784102933,0.7070827232796486
1202,0.003909280511027596,0.7070827232796486
1203,0.003909280511027596,0.7072657393850659
1204,0.003919355976262204,0.7072657393850659
1205,0.003919355976262204,0.7073572474377745
1206,0.003929431441496811,0.7073572474377745
1207,0.003929431441496811,0.7074487554904831
1208,0.003934469174114115,0.7074487554904831
1209,0.003934469174114115,0.7075402635431918
1210,0.003949582371966026,0.7075402635431918
1211,0.003949582371966026,0.707723279648609
1212,0.003959657837200633,0.707723279648609
1213,0.003959657837200633,0.7078147877013177
1214,0.003964695569817937,0.7078147877013177
1215,0.003964695569817937,0.7080893118594437
1216,0.0039747710350525435,0.7080893118594437
1217,0.0039747710350525435,0.7081808199121523
1218,0.0039848465002871505,0.7081808199121523
1219,0.0039848465002871505,0.708272327964861
1220,0.003999959698139061,0.708272327964861
1221,0.003999959698139061,0.7084553440702782
1222,0.004015072895990972,0.7084553440702782
1223,0.004015072895990972,0.7085468521229868
1224,0.004020110628608276,0.7085468521229868
1225,0.004020110628608276,0.7090959004392386
1226,0.00402514836122558,0.7090959004392386
1227,0.00402514836122558,0.7094619326500732
1228,0.004040261559077491,0.7094619326500732
1229,0.004040261559077491,0.7098279648609077
1230,0.004055374756929402,0.7098279648609077
1231,0.004055374756929402,0.7100109809663251
1232,0.0040654502221640085,0.7100109809663251
1233,0.0040654502221640085,0.7101024890190337
1234,0.004080563420015919,0.7101024890190337
1235,0.004080563420015919,0.7101939970717424
1236,0.004085601152633223,0.7101939970717424
1237,0.004085601152633223,0.710285505124451
1238,0.004090638885250526,0.710285505124451
1239,0.004090638885250526,0.7105600292825769
1240,0.00409567661786783,0.7105600292825769
1241,0.00409567661786783,0.7106515373352855
1242,0.004105752083102437,0.7106515373352855
1243,0.004105752083102437,0.7107430453879942
1244,0.004115827548337045,0.7107430453879942
1245,0.004115827548337045,0.7108345534407028
1246,0.004120865280954348,0.7108345534407028
1247,0.004120865280954348,0.7109260614934114
1248,0.004125903013571652,0.7109260614934114
1249,0.004125903013571652,0.71101756954612
1250,0.004135978478806259,0.71101756954612
1251,0.004135978478806259,0.711292093704246
1252,0.004141016211423563,0.711292093704246
1253,0.004141016211423563,0.7117496339677891
1254,0.00415109167665817,0.7117496339677891
1255,0.00415109167665817,0.7118411420204978
1256,0.0041611671418927765,0.7118411420204978
1257,0.0041611671418927765,0.7119326500732065
1258,0.004181318072361991,0.7119326500732065
1259,0.004181318072361991,0.7121156661786238
1260,0.004186355804979295,0.7121156661786238
1261,0.004186355804979295,0.7124816983894583
1262,0.004196431270213902,0.7124816983894583
1263,0.004196431270213902,0.7130307467057101
1264,0.004201469002831206,0.7130307467057101
1265,0.004201469002831206,0.7133967789165446
1266,0.004216582200683117,0.7133967789165446
1267,0.004216582200683117,0.7134882869692533
1268,0.00422161993330042,0.7134882869692533
1269,0.00422161993330042,0.7135797950219619
1270,0.004231695398535028,0.7135797950219619
1271,0.004231695398535028,0.7136713030746705
1272,0.004236733131152331,0.7136713030746705
1273,0.004236733131152331,0.7137628111273792
1274,0.0042417708637696346,0.7137628111273792
1275,0.0042417708637696346,0.7138543191800878
1276,0.004256884061621545,0.7138543191800878
1277,0.004256884061621545,0.7143118594436311
1278,0.004261921794238849,0.7143118594436311
1279,0.004261921794238849,0.7144033674963397
1280,0.00427703499209076,0.7144033674963397
1281,0.00427703499209076,0.7147693997071742
1282,0.004282072724708063,0.7147693997071742
1283,0.004282072724708063,0.7151354319180088
1284,0.004287110457325367,0.7151354319180088
1285,0.004287110457325367,0.7152269399707174
1286,0.004292148189942671,0.7152269399707174
1287,0.004292148189942671,0.7154099560761347
1288,0.004302223655177278,0.7154099560761347
1289,0.004302223655177278,0.7156844802342606
1290,0.004307261387794582,0.7156844802342606
1291,0.004307261387794582,0.7158674963396779
1292,0.004312299120411885,0.7158674963396779
1293,0.004312299120411885,0.7163250366032211
1294,0.004327412318263796,0.7163250366032211
1295,0.004327412318263796,0.7165080527086384
1296,0.004337487783498403,0.7165080527086384
1297,0.004337487783498403,0.716599560761347
1298,0.00434756324873301,0.716599560761347
1299,0.00434756324873301,0.7166910688140556
1300,0.004352600981350314,0.7166910688140556
1301,0.004352600981350314,0.7168740849194729
1302,0.004362676446584921,0.7168740849194729
1303,0.004362676446584921,0.7171486090775988
1304,0.004367714179202225,0.7171486090775988
1305,0.004367714179202225,0.717606149341142
1306,0.004372751911819528,0.717606149341142
1307,0.004372751911819528,0.7179721815519766
1308,0.004377789644436832,0.7179721815519766
1309,0.004377789644436832,0.7181551976573939
1310,0.004382827377054136,0.7181551976573939
1311,0.004382827377054136,0.7183382137628112
1312,0.004387865109671439,0.7183382137628112
1313,0.004387865109671439,0.718887262079063
1314,0.004397940574906046,0.718887262079063
1315,0.004397940574906046,0.7189787701317716
1316,0.00440297830752335,0.7189787701317716
1317,0.00440297830752335,0.7192532942898975
1318,0.004408016040140654,0.7192532942898975
1319,0.004408016040140654,0.7194363103953147
1320,0.004413053772757957,0.7194363103953147
1321,0.004413053772757957,0.7198023426061494
1322,0.0044231292379925645,0.7198023426061494
1323,0.0044231292379925645,0.719893850658858
1324,0.0044281669706098675,0.719893850658858
1325,0.0044281669706098675,0.7200768667642753
1326,0.004433204703227171,0.7200768667642753
1327,0.004433204703227171,0.7206259150805271
1328,0.004438242435844475,0.7206259150805271
1329,0.004438242435844475,0.7207174231332357
1330,0.004443280168461778,0.7207174231332357
1331,0.004443280168461778,0.7210834553440703
1332,0.004448317901079082,0.7210834553440703
1333,0.004448317901079082,0.7212664714494875
1334,0.004468468831548297,0.7212664714494875
1335,0.004468468831548297,0.7215409956076134
1336,0.0044735065641656,0.7215409956076134
1337,0.0044735065641656,0.7217240117130308
1338,0.004478544296782904,0.7217240117130308
1339,0.004478544296782904,0.7220900439238653
1340,0.004483582029400208,0.7220900439238653
1341,0.004483582029400208,0.7222730600292826
1342,0.004488619762017511,0.7222730600292826
1343,0.004488619762017511,0.7223645680819912
1344,0.004493657494634815,0.7223645680819912
1345,0.004493657494634815,0.722913616398243
1346,0.004503732959869422,0.722913616398243
1347,0.004503732959869422,0.7230966325036603
1348,0.0045087706924867256,0.7230966325036603
1349,0.0045087706924867256,0.7231881405563689
1350,0.0045188461577213325,0.7231881405563689
1351,0.0045188461577213325,0.7232796486090776
1352,0.004523883890338636,0.7232796486090776
1353,0.004523883890338636,0.7239202049780381
1354,0.00452892162295594,0.7239202049780381
1355,0.00452892162295594,0.7241032210834554
1356,0.004533959355573243,0.7241032210834554
1357,0.004533959355573243,0.7244692532942899
1358,0.004538997088190547,0.7244692532942899
1359,0.004538997088190547,0.7245607613469985
1360,0.004544034820807851,0.7245607613469985
1361,0.004544034820807851,0.7246522693997072
1362,0.004549072553425154,0.7246522693997072
1363,0.004549072553425154,0.7247437774524158
1364,0.004554110286042458,0.7247437774524158
1365,0.004554110286042458,0.7249267935578331
1366,0.004579298949128976,0.7249267935578331
1367,0.004579298949128976,0.725201317715959
1368,0.004589374414363584,0.725201317715959
1369,0.004589374414363584,0.7252928257686676
1370,0.004594412146980887,0.7252928257686676
1371,0.004594412146980887,0.7253843338213762
1372,0.0046044876122154944,0.7253843338213762
1373,0.0046044876122154944,0.7255673499267935
1374,0.004634714007919316,0.7255673499267935
1375,0.004634714007919316,0.7256588579795022
1376,0.00465486493838853,0.7256588579795022
1377,0.00465486493838853,0.7258418740849195
1378,0.004664940403623137,0.7258418740849195
1379,0.004664940403623137,0.7262994143484627
1380,0.004680053601475048,0.7262994143484627
1381,0.004680053601475048,0.7263909224011713
1382,0.004685091334092352,0.7263909224011713
1383,0.004685091334092352,0.7265739385065886
1384,0.0046901290667096555,0.7265739385065886
1385,0.0046901290667096555,0.7267569546120058
1386,0.004720355462413477,0.7267569546120058
1387,0.004720355462413477,0.7271229868228404
1388,0.00472539319503078,0.7271229868228404
1389,0.00472539319503078,0.7273975109809663
1390,0.004730430927648084,0.7273975109809663
1391,0.004730430927648084,0.7282210834553441
1392,0.004740506392882691,0.7282210834553441
1393,0.004740506392882691,0.72849560761347
1394,0.004755619590734602,0.72849560761347
1395,0.004755619590734602,0.7285871156661786
1396,0.004760657323351906,0.7285871156661786
1397,0.004760657323351906,0.7286786237188873
1398,0.004770732788586513,0.7286786237188873
1399,0.004770732788586513,0.7287701317715959
1400,0.0047808082538211205,0.7287701317715959
1401,0.0047808082538211205,0.7289531478770132
1402,0.0047858459864384235,0.7289531478770132
1403,0.0047858459864384235,0.7290446559297218
1404,0.004790883719055727,0.7290446559297218
1405,0.004790883719055727,0.7291361639824304
1406,0.004795921451673031,0.7291361639824304
1407,0.004795921451673031,0.7293191800878477
1408,0.004800959184290334,0.7293191800878477
1409,0.004800959184290334,0.7295021961932651
1410,0.004805996916907638,0.7295021961932651
1411,0.004805996916907638,0.7295937042459737
1412,0.004811034649524942,0.7295937042459737
1413,0.004811034649524942,0.7296852122986823
1414,0.004831185579994156,0.7296852122986823
1415,0.004831185579994156,0.7298682284040996
1416,0.00483622331261146,0.7298682284040996
1417,0.00483622331261146,0.7300512445095169
1418,0.004841261045228764,0.7300512445095169
1419,0.004841261045228764,0.7301427525622255
1420,0.004846298777846067,0.7301427525622255
1421,0.004846298777846067,0.7302342606149341
1422,0.004851336510463371,0.7302342606149341
1423,0.004851336510463371,0.7306918008784773
1424,0.004856374243080675,0.7306918008784773
1425,0.004856374243080675,0.7308748169838946
1426,0.004861411975697978,0.7308748169838946
1427,0.004861411975697978,0.7310578330893118
1428,0.0048664497083152815,0.7310578330893118
1429,0.0048664497083152815,0.7311493411420205
1430,0.0048714874409325854,0.7311493411420205
1431,0.0048714874409325854,0.7313323572474377
1432,0.004886600638784496,0.7313323572474377
1433,0.004886600638784496,0.7316983894582724
1434,0.004891638371401799,0.7316983894582724
1435,0.004891638371401799,0.7318814055636896
1436,0.004896676104019103,0.7318814055636896
1437,0.004896676104019103,0.7320644216691069
1438,0.004901713836636407,0.7320644216691069
1439,0.004901713836636407,0.7327049780380673
1440,0.004921864767105621,0.7327049780380673
1441,0.004921864767105621,0.732796486090776
1442,0.004931940232340228,0.732796486090776
1443,0.004931940232340228,0.7328879941434846
1444,0.004942015697574836,0.7328879941434846
1445,0.004942015697574836,0.7331625183016105
1446,0.004947053430192139,0.7331625183016105
1447,0.004947053430192139,0.7333455344070278
1448,0.0049571288954267465,0.7333455344070278
1449,0.0049571288954267465,0.7336200585651538
1450,0.004972242093278657,0.7336200585651538
1451,0.004972242093278657,0.7337115666178624
1452,0.004982317558513264,0.7337115666178624
1453,0.004982317558513264,0.7338945827232797
1454,0.004992393023747871,0.7338945827232797
1455,0.004992393023747871,0.7339860907759883
1456,0.005002468488982479,0.7339860907759883
1457,0.005002468488982479,0.7341691068814056
1458,0.005007506221599782,0.7341691068814056
1459,0.005007506221599782,0.7342606149341142
1460,0.00501758168683439,0.7342606149341142
1461,0.00501758168683439,0.7350841874084919
1462,0.005027657152068997,0.7350841874084919
1463,0.005027657152068997,0.7352672035139092
1464,0.005032694884686301,0.7352672035139092
1465,0.005032694884686301,0.7353587115666179
1466,0.005037732617303604,0.7353587115666179
1467,0.005037732617303604,0.7357247437774525
1468,0.005042770349920908,0.7357247437774525
1469,0.005042770349920908,0.7363653001464129
1470,0.0050478080825382115,0.7363653001464129
1471,0.0050478080825382115,0.7364568081991215
1472,0.005072996745624729,0.7364568081991215
1473,0.005072996745624729,0.7365483162518301
1474,0.005083072210859336,0.7365483162518301
1475,0.005083072210859336,0.7366398243045388
1476,0.00508810994347664,0.7366398243045388
1477,0.00508810994347664,0.7370058565153733
1478,0.005093147676093944,0.7370058565153733
1479,0.005093147676093944,0.737097364568082
1480,0.005098185408711247,0.737097364568082
1481,0.005098185408711247,0.7372803806734992
1482,0.005123374071797766,0.7372803806734992
1483,0.005123374071797766,0.737371888726208
1484,0.0051334495370323726,0.737371888726208
1485,0.0051334495370323726,0.7374633967789166
1486,0.0051384872696496765,0.7374633967789166
1487,0.0051384872696496765,0.7376464128843339
1488,0.0051435250022669795,0.7376464128843339
1489,0.0051435250022669795,0.738103953147877
1490,0.005148562734884283,0.738103953147877
1491,0.005148562734884283,0.7381954612005857
1492,0.005153600467501587,0.7381954612005857
1493,0.005153600467501587,0.7382869692532943
1494,0.005163675932736194,0.7382869692532943
1495,0.005163675932736194,0.7384699853587116
1496,0.005173751397970801,0.7384699853587116
1497,0.005173751397970801,0.7385614934114202
1498,0.005183826863205408,0.7385614934114202
1499,0.005183826863205408,0.7388360175695461
1500,0.005193902328440016,0.7388360175695461
1501,0.005193902328440016,0.7389275256222547
1502,0.005203977793674623,0.7389275256222547
1503,0.005203977793674623,0.739110541727672
1504,0.005209015526291927,0.739110541727672
1505,0.005209015526291927,0.7392020497803806
1506,0.005219090991526534,0.7392020497803806
1507,0.005219090991526534,0.739385065885798
1508,0.0052291664567611406,0.739385065885798
1509,0.0052291664567611406,0.7400256222547584
1510,0.0052342041893784445,0.7400256222547584
1511,0.0052342041893784445,0.7401171303074671
1512,0.005244279654613051,0.7401171303074671
1513,0.005244279654613051,0.7403001464128843
1514,0.005249317387230355,0.7403001464128843
1515,0.005249317387230355,0.7404831625183016
1516,0.005254355119847659,0.7404831625183016
1517,0.005254355119847659,0.7408491947291361
1518,0.005264430585082266,0.7408491947291361
1519,0.005264430585082266,0.7410322108345534
1520,0.005284581515551481,0.7410322108345534
1521,0.005284581515551481,0.741123718887262
1522,0.0053148079112553025,0.741123718887262
1523,0.0053148079112553025,0.7413067349926794
1524,0.0053198456438726055,0.7413067349926794
1525,0.0053198456438726055,0.741398243045388
1526,0.0053248833764899094,0.741398243045388
1527,0.0053248833764899094,0.7417642752562226
1528,0.00533999657434182,0.7417642752562226
1529,0.00533999657434182,0.7419472913616398
1530,0.005345034306959124,0.7419472913616398
1531,0.005345034306959124,0.7423133235724744
1532,0.005350072039576427,0.7423133235724744
1533,0.005350072039576427,0.742404831625183
1534,0.005355109772193731,0.742404831625183
1535,0.005355109772193731,0.7424963396778916
1536,0.005370222970045642,0.7424963396778916
1537,0.005370222970045642,0.7426793557833089
1538,0.005375260702662946,0.7426793557833089
1539,0.005375260702662946,0.7428623718887262
1540,0.005385336167897553,0.7428623718887262
1541,0.005385336167897553,0.7430453879941434
1542,0.00539541163313216,0.7430453879941434
1543,0.00539541163313216,0.7431368960468521
1544,0.005400449365749464,0.7431368960468521
1545,0.005400449365749464,0.7434114202049781
1546,0.0054054870983667675,0.7434114202049781
1547,0.0054054870983667675,0.7435029282576867
1548,0.005415562563601374,0.7435029282576867
1549,0.005415562563601374,0.7435944363103953
1550,0.005425638028835981,0.7435944363103953
1551,0.005425638028835981,0.7441434846266471
1552,0.005455864424539803,0.7441434846266471
1553,0.005455864424539803,0.7443265007320644
1554,0.005460902157157107,0.7443265007320644
1555,0.005460902157157107,0.744418008784773
1556,0.005476015355009018,0.744418008784773
1557,0.005476015355009018,0.7446010248901903
1558,0.0055012040180955355,0.7446010248901903
1559,0.0055012040180955355,0.7448755490483162
1560,0.005511279483330142,0.7448755490483162
1561,0.005511279483330142,0.7459736456808199
1562,0.005516317215947446,0.7459736456808199
1563,0.005516317215947446,0.7463396778916545
1564,0.00552135494856475,0.7463396778916545
1565,0.00552135494856475,0.7464311859443631
1566,0.005536468146416661,0.7464311859443631
1567,0.005536468146416661,0.7467972181551976
1568,0.005541505879033964,0.7467972181551976
1569,0.005541505879033964,0.7468887262079063
1570,0.005546543611651268,0.7468887262079063
1571,0.005546543611651268,0.7473462664714495
1572,0.005551581344268572,0.7473462664714495
1573,0.005551581344268572,0.7474377745241582
1574,0.005556619076885875,0.7474377745241582
1575,0.005556619076885875,0.7477122986822841
1576,0.005561656809503179,0.7477122986822841
1577,0.005561656809503179,0.7478038067349927
1578,0.005566694542120483,0.7478038067349927
1579,0.005566694542120483,0.7481698389458272
1580,0.00557677000735509,0.7481698389458272
1581,0.00557677000735509,0.7482613469985359
1582,0.0055868454725896965,0.7482613469985359
1583,0.0055868454725896965,0.7485358711566618
1584,0.005596920937824304,0.7485358711566618
1585,0.005596920937824304,0.7486273792093704
1586,0.005601958670441607,0.7486273792093704
1587,0.005601958670441607,0.7488103953147877
1588,0.005662411461849251,0.7488103953147877
1589,0.005662411461849251,0.7491764275256223
1590,0.005667449194466555,0.7491764275256223
1591,0.005667449194466555,0.7495424597364568
1592,0.0056724869270838585,0.7495424597364568
1593,0.0056724869270838585,0.7496339677891655
1594,0.0056775246597011615,0.7496339677891655
1595,0.0056775246597011615,0.7498169838945827
1596,0.005682562392318465,0.7498169838945827
1597,0.005682562392318465,0.7499084919472914
1598,0.00570271332278768,0.7499084919472914
1599,0.00570271332278768,0.7500915080527086
1600,0.005712788788022287,0.7500915080527086
1601,0.005712788788022287,0.7502745241581259
1602,0.005722864253256894,0.7502745241581259
1603,0.005722864253256894,0.7504575402635432
1604,0.005732939718491501,0.7504575402635432
1605,0.005732939718491501,0.7505490483162518
1606,0.005737977451108805,0.7505490483162518
1607,0.005737977451108805,0.7506405563689604
1608,0.005748052916343412,0.7506405563689604
1609,0.005748052916343412,0.7510065885797951
1610,0.0057682038468126265,0.7510065885797951
1611,0.0057682038468126265,0.7510980966325037
1612,0.00577324157942993,0.7510980966325037
1613,0.00577324157942993,0.751281112737921
1614,0.005778279312047233,0.751281112737921
1615,0.005778279312047233,0.7513726207906296
1616,0.005788354777281841,0.7513726207906296
1617,0.005788354777281841,0.7515556368960469
1618,0.005803467975133752,0.7515556368960469
1619,0.005803467975133752,0.7517386530014641
1620,0.005813543440368359,0.7517386530014641
1621,0.005813543440368359,0.7518301610541728
1622,0.00582865663822027,0.7518301610541728
1623,0.00582865663822027,0.75201317715959
1624,0.005843769836072181,0.75201317715959
1625,0.005843769836072181,0.7521046852122987
1626,0.0058588830339240915,0.7521046852122987
1627,0.0058588830339240915,0.7521961932650073
1628,0.005873996231776002,0.7521961932650073
1629,0.005873996231776002,0.7522877013177159
1630,0.005879033964393306,0.7522877013177159
1631,0.005879033964393306,0.7523792093704246
1632,0.005884071697010609,0.7523792093704246
1633,0.005884071697010609,0.7524707174231332
1634,0.005914298092714431,0.7524707174231332
1635,0.005914298092714431,0.7526537335285505
1636,0.005919335825331735,0.7526537335285505
1637,0.005919335825331735,0.7528367496339677
1638,0.005924373557949039,0.7528367496339677
1639,0.005924373557949039,0.7530197657393851
1640,0.005929411290566342,0.7530197657393851
1641,0.005929411290566342,0.7532027818448024
1642,0.005934449023183646,0.7532027818448024
1643,0.005934449023183646,0.753294289897511
1644,0.0059394867558009495,0.753294289897511
1645,0.0059394867558009495,0.7534773060029283
1646,0.0059445244884182525,0.7534773060029283
1647,0.0059445244884182525,0.7536603221083455
1648,0.005949562221035556,0.7536603221083455
1649,0.005949562221035556,0.7537518301610542
1650,0.005959637686270163,0.7537518301610542
1651,0.005959637686270163,0.7539348462664714
1652,0.005964675418887467,0.7539348462664714
1653,0.005964675418887467,0.7543923865300146
1654,0.005979788616739378,0.7543923865300146
1655,0.005979788616739378,0.7545754026354319
1656,0.005984826349356681,0.7545754026354319
1657,0.005984826349356681,0.7547584187408491
1658,0.005989864081973985,0.7547584187408491
1659,0.005989864081973985,0.7548499267935578
1660,0.0060100150124432,0.7548499267935578
1661,0.0060100150124432,0.7549414348462665
1662,0.006020090477677807,0.7549414348462665
1663,0.006020090477677807,0.7551244509516838
1664,0.006030165942912414,0.7551244509516838
1665,0.006030165942912414,0.7553074670571011
1666,0.0060352036755297175,0.7553074670571011
1667,0.0060352036755297175,0.7553989751098097
1668,0.006040241408147021,0.7553989751098097
1669,0.006040241408147021,0.7554904831625183
1670,0.006055354605998932,0.7554904831625183
1671,0.006055354605998932,0.7557650073206442
1672,0.006060392338616235,0.7557650073206442
1673,0.006060392338616235,0.7560395314787701
1674,0.006070467803850843,0.7560395314787701
1675,0.006070467803850843,0.756314055636896
1676,0.006085581001702754,0.756314055636896
1677,0.006085581001702754,0.7566800878477306
1678,0.006095656466937361,0.7566800878477306
1679,0.006095656466937361,0.7568631039531479
1680,0.006100694199554665,0.7568631039531479
1681,0.006100694199554665,0.7570461200585652
1682,0.006105731932171968,0.7570461200585652
1683,0.006105731932171968,0.7571376281112738
1684,0.006120845130023879,0.7571376281112738
1685,0.006120845130023879,0.7572291361639825
1686,0.006130920595258486,0.7572291361639825
1687,0.006130920595258486,0.7574121522693997
1688,0.006140996060493093,0.7574121522693997
1689,0.006140996060493093,0.7575036603221084
1690,0.006166184723579611,0.7575036603221084
1691,0.006166184723579611,0.757595168374817
1692,0.006186335654048826,0.757595168374817
1693,0.006186335654048826,0.7576866764275256
1694,0.006196411119283433,0.7576866764275256
1695,0.006196411119283433,0.7577781844802343
1696,0.0062165620497526474,0.7577781844802343
1697,0.0062165620497526474,0.7579612005856515
1698,0.006221599782369951,0.7579612005856515
1699,0.006221599782369951,0.7581442166910688
1700,0.006246788445456469,0.7581442166910688
1701,0.006246788445456469,0.7584187408491947
1702,0.006251826178073772,0.7584187408491947
1703,0.006251826178073772,0.7587847730600292
1704,0.00626190164330838,0.7587847730600292
1705,0.00626190164330838,0.758876281112738
1706,0.006266939375925683,0.758876281112738
1707,0.006266939375925683,0.7589677891654466
1708,0.006271977108542987,0.7589677891654466
1709,0.006271977108542987,0.7593338213762811
1710,0.006287090306394898,0.7593338213762811
1711,0.006287090306394898,0.7594253294289898
1712,0.006292128039012202,0.7594253294289898
1713,0.006292128039012202,0.7595168374816984
1714,0.0063022035042468085,0.7595168374816984
1715,0.0063022035042468085,0.7597913616398243
1716,0.006322354434716023,0.7597913616398243
1717,0.006322354434716023,0.7599743777452416
1718,0.00633242989995063,0.7599743777452416
1719,0.00633242989995063,0.7600658857979502
1720,0.006337467632567934,0.7600658857979502
1721,0.006337467632567934,0.7603404099560761
1722,0.006372731760889059,0.7603404099560761
1723,0.006372731760889059,0.7604319180087847
1724,0.00638784495874097,0.7604319180087847
1725,0.00638784495874097,0.7605234260614934
1726,0.006407995889210184,0.7605234260614934
1727,0.006407995889210184,0.760614934114202
1728,0.006413033621827488,0.760614934114202
1729,0.006413033621827488,0.7607064421669106
1730,0.006423109087062095,0.7607064421669106
1731,0.006423109087062095,0.760889458272328
1732,0.006428146819679399,0.760889458272328
1733,0.006428146819679399,0.7611639824304539
1734,0.006433184552296702,0.7611639824304539
1735,0.006433184552296702,0.7614385065885798
1736,0.006438222284914006,0.7614385065885798
1737,0.006438222284914006,0.7616215226939971
1738,0.006458373215383221,0.7616215226939971
1739,0.006458373215383221,0.7619875549048316
1740,0.006463410948000524,0.7619875549048316
1741,0.006463410948000524,0.7620790629575402
1742,0.006468448680617828,0.7620790629575402
1743,0.006468448680617828,0.7621705710102489
1744,0.0064785241458524346,0.7621705710102489
1745,0.0064785241458524346,0.7623535871156661
1746,0.0064835618784697385,0.7623535871156661
1747,0.0064835618784697385,0.7624450951683748
1748,0.006493637343704345,0.7624450951683748
1749,0.006493637343704345,0.7627196193265008
1750,0.006498675076321649,0.7627196193265008
1751,0.006498675076321649,0.7628111273792094
1752,0.006503712808938953,0.7628111273792094
1753,0.006503712808938953,0.7630856515373353
1754,0.006533939204642774,0.7630856515373353
1755,0.006533939204642774,0.7633601756954612
1756,0.006538976937260078,0.7633601756954612
1757,0.006538976937260078,0.7635431918008785
1758,0.006549052402494685,0.7635431918008785
1759,0.006549052402494685,0.7636346998535871
1760,0.006554090135111989,0.7636346998535871
1761,0.006554090135111989,0.7638177159590044
1762,0.006559127867729293,0.7638177159590044
1763,0.006559127867729293,0.763909224011713
1764,0.006564165600346596,0.763909224011713
1765,0.006564165600346596,0.7640007320644217
1766,0.0065692033329638995,0.7640007320644217
1767,0.0065692033329638995,0.7640922401171303
1768,0.006589354263433114,0.7640922401171303
1769,0.006589354263433114,0.7644582723279648
1770,0.006599429728667721,0.7644582723279648
1771,0.006599429728667721,0.7645497803806734
1772,0.006604467461285025,0.7645497803806734
1773,0.006604467461285025,0.7647327964860908
1774,0.006609505193902328,0.7647327964860908
1775,0.006609505193902328,0.765190336749634
1776,0.006619580659136936,0.765190336749634
1777,0.006619580659136936,0.7652818448023426
1778,0.006629656124371543,0.7652818448023426
1779,0.006629656124371543,0.7653733528550513
1780,0.006664920252692668,0.7653733528550513
1781,0.006664920252692668,0.7655563689604685
1782,0.006669957985309971,0.7655563689604685
1783,0.006669957985309971,0.7656478770131772
1784,0.006680033450544579,0.7656478770131772
1785,0.006680033450544579,0.7658308931185944
1786,0.006685071183161882,0.7658308931185944
1787,0.006685071183161882,0.7659224011713031
1788,0.006705222113631097,0.7659224011713031
1789,0.006705222113631097,0.7660139092240117
1790,0.006715297578865704,0.7660139092240117
1791,0.006715297578865704,0.766196925329429
1792,0.006725373044100312,0.766196925329429
1793,0.006725373044100312,0.7662884333821376
1794,0.006730410776717615,0.7662884333821376
1795,0.006730410776717615,0.7663799414348462
1796,0.006735448509334919,0.7663799414348462
1797,0.006735448509334919,0.7665629575402635
1798,0.0067404862419522225,0.7665629575402635
1799,0.0067404862419522225,0.7667459736456809
1800,0.006755599439804133,0.7667459736456809
1801,0.006755599439804133,0.7668374816983895
1802,0.00676567490503874,0.7668374816983895
1803,0.00676567490503874,0.7669289897510981
1804,0.006770712637656044,0.7669289897510981
1805,0.006770712637656044,0.7671120058565154
1806,0.006785825835507954,0.7671120058565154
1807,0.006785825835507954,0.7672950219619327
1808,0.006790863568125258,0.7672950219619327
1809,0.006790863568125258,0.7673865300146413
1810,0.006795901300742562,0.7673865300146413
1811,0.006795901300742562,0.7677525622254758
1812,0.006800939033359865,0.7677525622254758
1813,0.006800939033359865,0.7680270863836017
1814,0.006805976765977169,0.7680270863836017
1815,0.006805976765977169,0.7684846266471449
1816,0.00682108996382908,0.7684846266471449
1817,0.00682108996382908,0.7688506588579795
1818,0.0068412408942982944,0.7688506588579795
1819,0.0068412408942982944,0.7689421669106882
1820,0.006856354092150205,0.7689421669106882
1821,0.006856354092150205,0.7690336749633968
1822,0.006866429557384812,0.7690336749633968
1823,0.006866429557384812,0.7691251830161054
1824,0.006886580487854027,0.7691251830161054
1825,0.006886580487854027,0.7692166910688141
1826,0.00689161822047133,0.7692166910688141
1827,0.00689161822047133,0.7693081991215227
1828,0.006901693685705938,0.7693081991215227
1829,0.006901693685705938,0.7696742313323572
1830,0.006911769150940545,0.7696742313323572
1831,0.006911769150940545,0.7698572474377745
1832,0.006916806883557849,0.7698572474377745
1833,0.006916806883557849,0.7701317715959004
1834,0.006921844616175152,0.7701317715959004
1835,0.006921844616175152,0.770223279648609
1836,0.006941995546644366,0.770223279648609
1837,0.006941995546644366,0.7704978038067349
1838,0.00694703327926167,0.7704978038067349
1839,0.00694703327926167,0.7706808199121523
1840,0.006952071011878973,0.7706808199121523
1841,0.006952071011878973,0.770772327964861
1842,0.006967184209730884,0.770772327964861
1843,0.006967184209730884,0.7708638360175696
1844,0.006982297407582795,0.7708638360175696
1845,0.006982297407582795,0.7709553440702782
1846,0.006992372872817403,0.7709553440702782
1847,0.006992372872817403,0.7715959004392386
1848,0.006997410605434706,0.7715959004392386
1849,0.006997410605434706,0.7716874084919473
1850,0.007012523803286617,0.7716874084919473
1851,0.007012523803286617,0.7719619326500732
1852,0.0070175615359039205,0.7719619326500732
1853,0.0070175615359039205,0.7720534407027818
1854,0.007027637001138527,0.7720534407027818
1855,0.007027637001138527,0.7721449487554904
1856,0.007032674733755831,0.7721449487554904
1857,0.007032674733755831,0.7723279648609077
1858,0.007052825664225045,0.7723279648609077
1859,0.007052825664225045,0.7726939970717424
1860,0.007067938862076956,0.7726939970717424
1861,0.007067938862076956,0.7728770131771596
1862,0.00707297659469426,0.7728770131771596
1863,0.00707297659469426,0.7729685212298683
1864,0.007098165257780778,0.7729685212298683
1865,0.007098165257780778,0.7731515373352855
1866,0.0071032029903980816,0.7731515373352855
1867,0.0071032029903980816,0.77351756954612
1868,0.0071132784556326885,0.77351756954612
1869,0.0071132784556326885,0.7737005856515373
1870,0.007118316188249992,0.7737005856515373
1871,0.007118316188249992,0.7738836017569546
1872,0.007123353920867296,0.7738836017569546
1873,0.007123353920867296,0.7739751098096632
1874,0.007128391653484599,0.7739751098096632
1875,0.007128391653484599,0.7740666178623719
1876,0.00714350485133651,0.7740666178623719
1877,0.00714350485133651,0.7741581259150805
1878,0.007148542583953814,0.7741581259150805
1879,0.007148542583953814,0.7743411420204978
1880,0.007153580316571118,0.7743411420204978
1881,0.007153580316571118,0.7746156661786238
1882,0.007158618049188421,0.7746156661786238
1883,0.007158618049188421,0.7747071742313324
1884,0.007173731247040332,0.7747071742313324
1885,0.007173731247040332,0.774798682284041
1886,0.0071938821775095465,0.774798682284041
1887,0.0071938821775095465,0.7749816983894583
1888,0.00719891991012685,0.7749816983894583
1889,0.00719891991012685,0.7750732064421669
1890,0.007229146305830672,0.7750732064421669
1891,0.007229146305830672,0.7751647144948756
1892,0.007239221771065279,0.7751647144948756
1893,0.007239221771065279,0.7753477306002928
1894,0.007249297236299886,0.7753477306002928
1895,0.007249297236299886,0.7755307467057101
1896,0.007279523632003708,0.7755307467057101
1897,0.007279523632003708,0.7757137628111274
1898,0.0072845613646210115,0.7757137628111274
1899,0.0072845613646210115,0.775805270863836
1900,0.007314787760324833,0.775805270863836
1901,0.007314787760324833,0.7758967789165446
1902,0.007319825492942136,0.7758967789165446
1903,0.007319825492942136,0.7759882869692533
1904,0.007329900958176744,0.7759882869692533
1905,0.007329900958176744,0.7761713030746705
1906,0.007339976423411351,0.7761713030746705
1907,0.007339976423411351,0.7762628111273792
1908,0.007345014156028655,0.7762628111273792
1909,0.007345014156028655,0.7763543191800878
1910,0.007355089621263262,0.7763543191800878
1911,0.007355089621263262,0.7764458272327965
1912,0.007360127353880566,0.7764458272327965
1913,0.007360127353880566,0.7765373352855052
1914,0.007365165086497869,0.7765373352855052
1915,0.007365165086497869,0.7767203513909224
1916,0.007370202819115173,0.7767203513909224
1917,0.007370202819115173,0.7768118594436311
1918,0.0073802782843497795,0.7768118594436311
1919,0.0073802782843497795,0.777086383601757
1920,0.00739539148220169,0.777086383601757
1921,0.00739539148220169,0.7772693997071742
1922,0.007400429214818994,0.7772693997071742
1923,0.007400429214818994,0.7774524158125915
1924,0.007405466947436298,0.7774524158125915
1925,0.007405466947436298,0.7775439238653001
1926,0.007420580145288209,0.7775439238653001
1927,0.007420580145288209,0.7776354319180088
1928,0.007445768808374727,0.7776354319180088
1929,0.007445768808374727,0.7777269399707174
1930,0.0074608820062266375,0.7777269399707174
1931,0.0074608820062266375,0.777818448023426
1932,0.00750622159978237,0.777818448023426
1933,0.00750622159978237,0.7780014641288433
1934,0.007516297065016977,0.7780014641288433
1935,0.007516297065016977,0.7780929721815519
1936,0.007521334797634281,0.7780929721815519
1937,0.007521334797634281,0.7782759882869692
1938,0.007526372530251585,0.7782759882869692
1939,0.007526372530251585,0.7784590043923866
1940,0.007536447995486192,0.7784590043923866
1941,0.007536447995486192,0.7786420204978038
1942,0.007541485728103496,0.7786420204978038
1943,0.007541485728103496,0.7788250366032211
1944,0.007546523460720799,0.7788250366032211
1945,0.007546523460720799,0.7790080527086384
1946,0.0075515611933381025,0.7790080527086384
1947,0.0075515611933381025,0.779099560761347
1948,0.007556598925955406,0.779099560761347
1949,0.007556598925955406,0.7793740849194729
1950,0.007566674391190013,0.7793740849194729
1951,0.007566674391190013,0.7794655929721815
1952,0.007571712123807317,0.7794655929721815
1953,0.007571712123807317,0.7795571010248902
1954,0.00757674985642462,0.7795571010248902
1955,0.00757674985642462,0.7797401171303074
1956,0.007581787589041924,0.7797401171303074
1957,0.007581787589041924,0.7798316251830161
1958,0.00763216491521496,0.7798316251830161
1959,0.00763216491521496,0.7799231332357247
1960,0.007652315845684174,0.7799231332357247
1961,0.007652315845684174,0.7800146412884333
1962,0.007657353578301478,0.7800146412884333
1963,0.007657353578301478,0.7801976573938506
1964,0.007667429043536085,0.7801976573938506
1965,0.007667429043536085,0.7802891654465594
1966,0.007672466776153389,0.7802891654465594
1967,0.007672466776153389,0.780380673499268
1968,0.007677504508770692,0.780380673499268
1969,0.007677504508770692,0.7805636896046853
1970,0.007682542241387996,0.7805636896046853
1971,0.007682542241387996,0.7806551976573939
1972,0.0076875799740053,0.7806551976573939
1973,0.0076875799740053,0.7808382137628112
1974,0.007707730904474514,0.7808382137628112
1975,0.007707730904474514,0.7809297218155198
1976,0.0077329195675610325,0.7809297218155198
1977,0.0077329195675610325,0.7810212298682284
1978,0.007748032765412943,0.7810212298682284
1979,0.007748032765412943,0.781112737920937
1980,0.007768183695882157,0.781112737920937
1981,0.007768183695882157,0.7812042459736457
1982,0.007793372358968676,0.7812042459736457
1983,0.007793372358968676,0.781387262079063
1984,0.007798410091585979,0.781387262079063
1985,0.007798410091585979,0.7816617862371888
1986,0.00781352328943789,0.7816617862371888
1987,0.00781352328943789,0.7817532942898975
1988,0.0078286364872898,0.7817532942898975
1989,0.0078286364872898,0.7819363103953147
1990,0.007833674219907103,0.7819363103953147
1991,0.007833674219907103,0.7820278184480234
1992,0.007838711952524408,0.7820278184480234
1993,0.007838711952524408,0.782119326500732
1994,0.007848787417759014,0.782119326500732
1995,0.007848787417759014,0.7822108345534406
1996,0.007853825150376319,0.7822108345534406
1997,0.007853825150376319,0.782393850658858
1998,0.007858862882993622,0.782393850658858
1999,0.007858862882993622,0.7824853587115667
2000,0.007879013813462836,0.7824853587115667
2001,0.007879013813462836,0.7826683748169839
2002,0.007904202476549355,0.7826683748169839
2003,0.007904202476549355,0.7828513909224012
2004,0.007909240209166658,0.7828513909224012
2005,0.007909240209166658,0.7829428989751098
2006,0.007914277941783962,0.7829428989751098
2007,0.007914277941783962,0.7830344070278185
2008,0.007929391139635873,0.7830344070278185
2009,0.007929391139635873,0.7834919472913616
2010,0.00793946660487048,0.7834919472913616
2011,0.00793946660487048,0.7835834553440703
2012,0.007944504337487784,0.7835834553440703
2013,0.007944504337487784,0.7837664714494875
2014,0.007949542070105087,0.7837664714494875
2015,0.007949542070105087,0.7838579795021962
2016,0.007959617535339695,0.7838579795021962
2017,0.007959617535339695,0.7839494875549048
2018,0.007974730733191606,0.7839494875549048
2019,0.007974730733191606,0.7840409956076134
2020,0.00800999486151273,0.7840409956076134
2021,0.00800999486151273,0.7844070278184481
2022,0.008015032594130033,0.7844070278184481
2023,0.008015032594130033,0.7845900439238653
2024,0.008020070326747338,0.7845900439238653
2025,0.008020070326747338,0.7847730600292826
2026,0.008035183524599249,0.7847730600292826
2027,0.008035183524599249,0.7848645680819912
2028,0.008040221257216552,0.7848645680819912
2029,0.008040221257216552,0.7849560761346999
2030,0.008045258989833855,0.7849560761346999
2031,0.008045258989833855,0.7850475841874085
2032,0.008060372187685766,0.7850475841874085
2033,0.008060372187685766,0.7851390922401171
2034,0.008075485385537677,0.7851390922401171
2035,0.008075485385537677,0.7852306002928258
2036,0.008085560850772285,0.7852306002928258
2037,0.008085560850772285,0.785413616398243
2038,0.008105711781241498,0.785413616398243
2039,0.008105711781241498,0.7855966325036603
2040,0.00813593817694532,0.7855966325036603
2041,0.00813593817694532,0.7858711566617862
2042,0.008140975909562625,0.7858711566617862
2043,0.008140975909562625,0.7859626647144948
2044,0.008161126840031839,0.7859626647144948
2045,0.008161126840031839,0.7861456808199122
2046,0.008171202305266446,0.7861456808199122
2047,0.008171202305266446,0.7863286969253295
2048,0.00817624003788375,0.7863286969253295
2049,0.00817624003788375,0.7864202049780381
2050,0.008216541898822179,0.7864202049780381
2051,0.008216541898822179,0.7865117130307467
2052,0.008221579631439482,0.7865117130307467
2053,0.008221579631439482,0.786694729136164
2054,0.008226617364056785,0.786694729136164
2055,0.008226617364056785,0.7868777452415813
2056,0.008241730561908696,0.7868777452415813
2057,0.008241730561908696,0.7871522693997072
2058,0.008251806027143304,0.7871522693997072
2059,0.008251806027143304,0.7872437774524158
2060,0.008266919224995214,0.7872437774524158
2061,0.008266919224995214,0.7877928257686676
2062,0.008282032422847125,0.7877928257686676
2063,0.008282032422847125,0.7878843338213762
2064,0.008297145620699036,0.7878843338213762
2065,0.008297145620699036,0.7880673499267935
2066,0.008322334283785553,0.7880673499267935
2067,0.008322334283785553,0.7881588579795022
2068,0.008327372016402858,0.7881588579795022
2069,0.008327372016402858,0.7883418740849195
2070,0.00833240974902016,0.7883418740849195
2071,0.00833240974902016,0.7885248901903368
2072,0.008337447481637464,0.7885248901903368
2073,0.008337447481637464,0.7886163982430454
2074,0.008347522946872072,0.7886163982430454
2075,0.008347522946872072,0.788707906295754
2076,0.008352560679489375,0.788707906295754
2077,0.008352560679489375,0.7887994143484627
2078,0.008362636144723982,0.7887994143484627
2079,0.008362636144723982,0.7888909224011713
2080,0.008367673877341286,0.7888909224011713
2081,0.008367673877341286,0.78898243045388
2082,0.00837271160995859,0.78898243045388
2083,0.00837271160995859,0.7892569546120058
2084,0.008387824807810501,0.7892569546120058
2085,0.008387824807810501,0.7893484626647145
2086,0.008397900273045107,0.7893484626647145
2087,0.008397900273045107,0.7894399707174231
2088,0.008402938005662412,0.7894399707174231
2089,0.008402938005662412,0.7895314787701317
2090,0.008418051203514323,0.7895314787701317
2091,0.008418051203514323,0.7898060029282576
2092,0.008428126668748929,0.7898060029282576
2093,0.008428126668748929,0.7901720351390923
2094,0.008448277599218144,0.7901720351390923
2095,0.008448277599218144,0.7903550512445096
2096,0.00845835306445275,0.7903550512445096
2097,0.00845835306445275,0.7904465592972182
2098,0.008468428529687358,0.7904465592972182
2099,0.008468428529687358,0.7905380673499268
2100,0.008493617192773877,0.7905380673499268
2101,0.008493617192773877,0.7906295754026355
2102,0.00849865492539118,0.7906295754026355
2103,0.00849865492539118,0.7907210834553441
2104,0.008503692658008483,0.7907210834553441
2105,0.008503692658008483,0.7908125915080527
2106,0.00851376812324309,0.7908125915080527
2107,0.00851376812324309,0.7909040995607614
2108,0.008523843588477699,0.7909040995607614
2109,0.008523843588477699,0.79099560761347
2110,0.008528881321095002,0.79099560761347
2111,0.008528881321095002,0.7910871156661786
2112,0.00853895678632961,0.7910871156661786
2113,0.00853895678632961,0.7911786237188873
2114,0.008543994518946912,0.7911786237188873
2115,0.008543994518946912,0.7913616398243045
2116,0.008559107716798823,0.7913616398243045
2117,0.008559107716798823,0.7914531478770132
2118,0.008569183182033431,0.7914531478770132
2119,0.008569183182033431,0.7916361639824304
2120,0.008589334112502645,0.7916361639824304
2121,0.008589334112502645,0.7918191800878477
2122,0.008594371845119948,0.7918191800878477
2123,0.008594371845119948,0.7919106881405563
2124,0.008604447310354556,0.7919106881405563
2125,0.008604447310354556,0.7920021961932651
2126,0.008619560508206467,0.7920021961932651
2127,0.008619560508206467,0.7920937042459737
2128,0.008629635973441074,0.7920937042459737
2129,0.008629635973441074,0.7921852122986823
2130,0.00863971143867568,0.7921852122986823
2131,0.00863971143867568,0.792276720351391
2132,0.008644749171292985,0.792276720351391
2133,0.008644749171292985,0.7924597364568082
2134,0.008649786903910288,0.7924597364568082
2135,0.008649786903910288,0.7927342606149341
2136,0.008659862369144896,0.7927342606149341
2137,0.008659862369144896,0.7929172767203514
2138,0.008669937834379502,0.7929172767203514
2139,0.008669937834379502,0.7931918008784773
2140,0.00868001329961411,0.7931918008784773
2141,0.00868001329961411,0.7932833089311859
2142,0.008685051032231413,0.7932833089311859
2143,0.008685051032231413,0.7933748169838946
2144,0.008705201962700629,0.7933748169838946
2145,0.008705201962700629,0.7934663250366032
2146,0.008715277427935235,0.7934663250366032
2147,0.008715277427935235,0.7937408491947291
2148,0.008725352893169842,0.7937408491947291
2149,0.008725352893169842,0.7939238653001464
2150,0.008730390625787145,0.7939238653001464
2151,0.008730390625787145,0.7941068814055637
2152,0.008755579288873664,0.7941068814055637
2153,0.008755579288873664,0.7941983894582724
2154,0.008780767951960181,0.7941983894582724
2155,0.008780767951960181,0.794289897510981
2156,0.0088059566150467,0.794289897510981
2157,0.0088059566150467,0.7943814055636896
2158,0.00882106981289861,0.7943814055636896
2159,0.00882106981289861,0.7944729136163983
2160,0.008826107545515913,0.7944729136163983
2161,0.008826107545515913,0.7946559297218155
2162,0.008836183010750521,0.7946559297218155
2163,0.008836183010750521,0.7947474377745242
2164,0.008841220743367824,0.7947474377745242
2165,0.008841220743367824,0.7948389458272328
2166,0.008856333941219735,0.7948389458272328
2167,0.008856333941219735,0.7949304538799414
2168,0.00886137167383704,0.7949304538799414
2169,0.00886137167383704,0.7950219619326501
2170,0.008881522604306254,0.7950219619326501
2171,0.008881522604306254,0.7951134699853587
2172,0.008886560336923557,0.7951134699853587
2173,0.008886560336923557,0.795296486090776
2174,0.0089470131283312,0.795296486090776
2175,0.008952050860948505,0.7953879941434846
2176,0.008967164058800416,0.7953879941434846
2177,0.008967164058800416,0.7954795021961932
2178,0.008977239524035022,0.7954795021961932
2179,0.008977239524035022,0.7956625183016105
2180,0.00898731498926963,0.7956625183016105
2181,0.00898731498926963,0.7957540263543191
2182,0.008992352721886933,0.7957540263543191
2183,0.008992352721886933,0.7958455344070278
2184,0.008997390454504237,0.7958455344070278
2185,0.008997390454504237,0.7959370424597365
2186,0.00900242818712154,0.7959370424597365
2187,0.00900242818712154,0.7960285505124451
2188,0.009012503652356148,0.7960285505124451
2189,0.009012503652356148,0.7961200585651538
2190,0.009052805513294576,0.7961200585651538
2191,0.009052805513294576,0.7962115666178624
2192,0.00905784324591188,0.7962115666178624
2193,0.00905784324591188,0.796303074670571
2194,0.009072956443763791,0.796303074670571
2195,0.009072956443763791,0.7964860907759883
2196,0.009077994176381094,0.7964860907759883
2197,0.009077994176381094,0.7965775988286969
2198,0.009088069641615702,0.7965775988286969
2199,0.009088069641615702,0.7966691068814056
2200,0.009093107374233005,0.7966691068814056
2201,0.009093107374233005,0.7967606149341142
2202,0.009098145106850308,0.7967606149341142
2203,0.009098145106850308,0.7969436310395315
2204,0.009108220572084916,0.7969436310395315
2205,0.009108220572084916,0.7971266471449487
2206,0.009118296037319524,0.7971266471449487
2207,0.009118296037319524,0.7972181551976574
2208,0.009133409235171435,0.7972181551976574
2209,0.009133409235171435,0.797309663250366
2210,0.009153560165640649,0.797309663250366
2211,0.009153560165640649,0.7974926793557833
2212,0.00916867336349256,0.7974926793557833
2213,0.00916867336349256,0.7977672035139092
2214,0.009193862026579078,0.7977672035139092
2215,0.009193862026579078,0.7979502196193266
2216,0.009203937491813684,0.7979502196193266
2217,0.009203937491813684,0.7982247437774525
2218,0.009234163887517506,0.7982247437774525
2219,0.009234163887517506,0.7986822840409956
2220,0.00923920162013481,0.7986822840409956
2221,0.00923920162013481,0.7987737920937042
2222,0.009249277085369417,0.7987737920937042
2223,0.009249277085369417,0.7990483162518301
2224,0.009254314817986721,0.7990483162518301
2225,0.009254314817986721,0.7994143484626647
2226,0.009299654411542452,0.7994143484626647
2227,0.009299654411542452,0.799597364568082
2228,0.00930972987677706,0.799597364568082
2229,0.00930972987677706,0.7997803806734992
2230,0.009314767609394363,0.7997803806734992
2231,0.009314767609394363,0.8000549048316252
2232,0.009319805342011668,0.8000549048316252
2233,0.009319805342011668,0.8001464128843339
2234,0.009329880807246274,0.8001464128843339
2235,0.009329880807246274,0.8002379209370425
2236,0.009355069470332792,0.8002379209370425
2237,0.009355069470332792,0.8003294289897511
2238,0.009370182668184703,0.8003294289897511
2239,0.009370182668184703,0.8005124450951684
2240,0.009380258133419311,0.8005124450951684
2241,0.009380258133419311,0.8006954612005857
2242,0.009385295866036614,0.8006954612005857
2243,0.009385295866036614,0.8009699853587116
2244,0.009390333598653917,0.8009699853587116
2245,0.009390333598653917,0.8010614934114202
2246,0.009395371331271222,0.8010614934114202
2247,0.009395371331271222,0.8011530014641288
2248,0.009430635459592347,0.8011530014641288
2249,0.009430635459592347,0.8013360175695461
2250,0.00943567319220965,0.8013360175695461
2251,0.00943567319220965,0.8014275256222547
2252,0.009445748657444257,0.8014275256222547
2253,0.009445748657444257,0.8015190336749634
2254,0.009455824122678865,0.8015190336749634
2255,0.009455824122678865,0.801610541727672
2256,0.009470937320530776,0.801610541727672
2257,0.009470937320530776,0.8017935578330894
2258,0.0095062014488519,0.8017935578330894
2259,0.0095062014488519,0.8021595900439239
2260,0.00953139011193842,0.8021595900439239
2261,0.00953139011193842,0.8022510980966325
2262,0.00954650330979033,0.8022510980966325
2263,0.00954650330979033,0.8024341142020498
2264,0.009561616507642241,0.8024341142020498
2265,0.009561616507642241,0.8025256222547584
2266,0.009566654240259544,0.8025256222547584
2267,0.009566654240259544,0.8027086383601757
2268,0.009571691972876847,0.8027086383601757
2269,0.009571691972876847,0.8028001464128843
2270,0.00961703156643258,0.8028001464128843
2271,0.00961703156643258,0.802891654465593
2272,0.009622069299049884,0.802891654465593
2273,0.009622069299049884,0.8030746705710102
2274,0.009637182496901795,0.8030746705710102
2275,0.009637182496901795,0.8031661786237189
2276,0.009642220229519098,0.8031661786237189
2277,0.009642220229519098,0.8032576866764275
2278,0.009647257962136401,0.8032576866764275
2279,0.009647257962136401,0.8035322108345534
2280,0.009667408892605617,0.8035322108345534
2281,0.009667408892605617,0.8037152269399708
2282,0.009682522090457528,0.8037152269399708
2283,0.009682522090457528,0.8038067349926794
2284,0.00968755982307483,0.8038067349926794
2285,0.00968755982307483,0.803898243045388
2286,0.009692597555692134,0.803898243045388
2287,0.009692597555692134,0.8039897510980967
2288,0.00971274848616135,0.8039897510980967
2289,0.00971274848616135,0.8040812591508053
2290,0.00972786168401326,0.8040812591508053
2291,0.00972786168401326,0.8042642752562226
2292,0.009742974881865171,0.8042642752562226
2293,0.009742974881865171,0.8045387994143485
2294,0.009748012614482474,0.8045387994143485
2295,0.009748012614482474,0.8046303074670571
2296,0.009778239010186296,0.8046303074670571
2297,0.009778239010186296,0.8047218155197657
2298,0.009793352208038206,0.8047218155197657
2299,0.009793352208038206,0.8048133235724744
2300,0.00981350313850742,0.8048133235724744
2301,0.00981350313850742,0.804904831625183
2302,0.009828616336359331,0.804904831625183
2303,0.009828616336359331,0.8049963396778916
2304,0.009838691801593939,0.8049963396778916
2305,0.009838691801593939,0.8051793557833089
2306,0.009843729534211242,0.8051793557833089
2307,0.009843729534211242,0.8052708638360175
2308,0.00985380499944585,0.8052708638360175
2309,0.00985380499944585,0.8056368960468521
2310,0.009863880464680456,0.8056368960468521
2311,0.009863880464680456,0.8057284040995608
2312,0.00986891819729776,0.8057284040995608
2313,0.00986891819729776,0.8059114202049781
2314,0.009878993662532367,0.8059114202049781
2315,0.009878993662532367,0.8060029282576867
2316,0.009884031395149671,0.8060029282576867
2317,0.009884031395149671,0.8060944363103953
2318,0.009889069127766974,0.8060944363103953
2319,0.009889069127766974,0.806185944363104
2320,0.009904182325618885,0.806185944363104
2321,0.009904182325618885,0.8063689604685212
2322,0.009909220058236188,0.8063689604685212
2323,0.009909220058236188,0.8066434846266471
2324,0.009914257790853493,0.8066434846266471
2325,0.009914257790853493,0.806918008784773
2326,0.009924333256088099,0.806918008784773
2327,0.009924333256088099,0.8071010248901903
2328,0.009929370988705404,0.8071010248901903
2329,0.009929370988705404,0.8072840409956076
2330,0.009944484186557315,0.8072840409956076
2331,0.009944484186557315,0.8073755490483162
2332,0.00995455965179192,0.8073755490483162
2333,0.00995455965179192,0.8074670571010248
2334,0.009959597384409226,0.8074670571010248
2335,0.009959597384409226,0.8075585651537335
2336,0.009974710582261136,0.8075585651537335
2337,0.009974710582261136,0.8077415812591509
2338,0.00999486151273035,0.8077415812591509
2339,0.00999486151273035,0.8079245973645681
2340,0.010009974710582261,0.8079245973645681
2341,0.010009974710582261,0.8080161054172768
2342,0.010085540699841815,0.8080161054172768
2343,0.010085540699841815,0.8081076134699854
2344,0.010090578432459118,0.8081076134699854
2345,0.010090578432459118,0.8083821376281113
2346,0.010095616165076423,0.8083821376281113
2347,0.010095616165076423,0.8085651537335286
2348,0.010100653897693726,0.8085651537335286
2349,0.010100653897693726,0.8089311859443631
2350,0.01012080482816294,0.8089311859443631
2351,0.01012080482816294,0.8091142020497804
2352,0.01013591802601485,0.8091142020497804
2353,0.01013591802601485,0.8092972181551976
2354,0.010156068956484066,0.8092972181551976
2355,0.010156068956484066,0.8093887262079063
2356,0.01017621988695328,0.8093887262079063
2357,0.01017621988695328,0.8094802342606149
2358,0.010181257619570583,0.8094802342606149
2359,0.010181257619570583,0.8095717423133236
2360,0.010211484015274405,0.8095717423133236
2361,0.010211484015274405,0.8096632503660323
2362,0.01021652174789171,0.8096632503660323
2363,0.01021652174789171,0.8099377745241582
2364,0.010221559480509013,0.8099377745241582
2365,0.010221559480509013,0.8100292825768668
2366,0.010241710410978227,0.8100292825768668
2367,0.010241710410978227,0.8101207906295754
2368,0.010256823608830137,0.8101207906295754
2369,0.010256823608830137,0.8102122986822841
2370,0.010266899074064745,0.8102122986822841
2371,0.010266899074064745,0.8103953147877013
2372,0.010282012271916656,0.8103953147877013
2373,0.010282012271916656,0.8105783308931186
2374,0.010297125469768567,0.8105783308931186
2375,0.010297125469768567,0.8106698389458272
2376,0.01030216320238587,0.8106698389458272
2377,0.01030216320238587,0.8107613469985359
2378,0.010312238667620478,0.8107613469985359
2379,0.010312238667620478,0.8108528550512445
2380,0.010327351865472388,0.8108528550512445
2381,0.010327351865472388,0.8109443631039531
2382,0.010332389598089691,0.8109443631039531
2383,0.010332389598089691,0.8111273792093704
2384,0.010352540528558907,0.8111273792093704
2385,0.010352540528558907,0.8113103953147877
2386,0.01035757826117621,0.8113103953147877
2387,0.01035757826117621,0.8114934114202049
2388,0.010367653726410816,0.8114934114202049
2389,0.010367653726410816,0.8115849194729137
2390,0.010387804656880032,0.8115849194729137
2391,0.010387804656880032,0.8116764275256223
2392,0.010392842389497335,0.8116764275256223
2393,0.010392842389497335,0.8117679355783309
2394,0.010412993319966549,0.8117679355783309
2395,0.010412993319966549,0.8119509516837482
2396,0.010448257448287675,0.8119509516837482
2397,0.010448257448287675,0.8120424597364568
2398,0.010463370646139586,0.8120424597364568
2399,0.010463370646139586,0.8121339677891655
2400,0.010478483843991497,0.8121339677891655
2401,0.010478483843991497,0.8122254758418741
2402,0.010508710239695318,0.8122254758418741
2403,0.010508710239695318,0.8123169838945827
2404,0.010518785704929924,0.8123169838945827
2405,0.010518785704929924,0.8124084919472914
2406,0.010528861170164532,0.8124084919472914
2407,0.010528861170164532,0.8125
2408,0.01053893663539914,0.8125
2409,0.01053893663539914,0.8125915080527086
2410,0.010549012100633746,0.8125915080527086
2411,0.010549012100633746,0.8127745241581259
2412,0.010559087565868354,0.8127745241581259
2413,0.010559087565868354,0.8129575402635432
2414,0.010564125298485657,0.8129575402635432
2415,0.010564125298485657,0.8130490483162518
2416,0.010569163031102962,0.8130490483162518
2417,0.010569163031102962,0.8131405563689604
2418,0.010579238496337568,0.8131405563689604
2419,0.010579238496337568,0.8132320644216691
2420,0.010599389426806783,0.8132320644216691
2421,0.010599389426806783,0.8133235724743777
2422,0.01060946489204139,0.8133235724743777
2423,0.01060946489204139,0.8134150805270863
2424,0.010619540357275997,0.8134150805270863
2425,0.010619540357275997,0.8135980966325037
2426,0.010634653555127908,0.8135980966325037
2427,0.010634653555127908,0.8136896046852123
2428,0.010639691287745211,0.8136896046852123
2429,0.010639691287745211,0.813781112737921
2430,0.010649766752979819,0.813781112737921
2431,0.010649766752979819,0.8139641288433382
2432,0.01066487995083173,0.8139641288433382
2433,0.01066487995083173,0.8140556368960469
2434,0.010674955416066337,0.8140556368960469
2435,0.010674955416066337,0.8141471449487555
2436,0.01070518181177016,0.8141471449487555
2437,0.01070518181177016,0.81451317715959
2438,0.010725332742239373,0.81451317715959
2439,0.010725332742239373,0.8146961932650073
2440,0.010730370474856676,0.8146961932650073
2441,0.010730370474856676,0.8147877013177159
2442,0.01073540820747398,0.8147877013177159
2443,0.01073540820747398,0.8150622254758418
2444,0.010745483672708587,0.8150622254758418
2445,0.010745483672708587,0.8151537335285505
2446,0.010755559137943195,0.8151537335285505
2447,0.010755559137943195,0.8152452415812591
2448,0.01079082326626432,0.8152452415812591
2449,0.01079082326626432,0.8153367496339677
2450,0.010800898731498927,0.8153367496339677
2451,0.010800898731498927,0.8155197657393851
2452,0.010816011929350838,0.8155197657393851
2453,0.010816011929350838,0.8156112737920937
2454,0.010836162859820052,0.8156112737920937
2455,0.010836162859820052,0.815794289897511
2456,0.010841200592437357,0.815794289897511
2457,0.010841200592437357,0.8158857979502196
2458,0.01084623832505466,0.8158857979502196
2459,0.01084623832505466,0.8167093704245973
2460,0.010876464720758481,0.8167093704245973
2461,0.010876464720758481,0.816800878477306
2462,0.010891577918610392,0.816800878477306
2463,0.010891577918610392,0.8169838945827232
2464,0.010896615651227695,0.8169838945827232
2465,0.010896615651227695,0.8170754026354319
2466,0.010901653383844998,0.8170754026354319
2467,0.010901653383844998,0.8171669106881405
2468,0.010906691116462303,0.8171669106881405
2469,0.010906691116462303,0.8172584187408491
2470,0.010936917512166125,0.8172584187408491
2471,0.010936917512166125,0.8173499267935578
2472,0.01094699297740073,0.8173499267935578
2473,0.01094699297740073,0.8176244509516838
2474,0.010977219373104552,0.8176244509516838
2475,0.010977219373104552,0.8177159590043924
2476,0.01098729483833916,0.8177159590043924
2477,0.01098729483833916,0.8178074670571011
2478,0.011017521234042982,0.8178074670571011
2479,0.011017521234042982,0.8178989751098097
2480,0.011032634431894893,0.8178989751098097
2481,0.011032634431894893,0.818081991215227
2482,0.0110427098971295,0.818081991215227
2483,0.0110427098971295,0.8181734992679356
2484,0.011047747629746803,0.8181734992679356
2485,0.011047747629746803,0.8183565153733529
2486,0.011057823094981411,0.8183565153733529
2487,0.011057823094981411,0.8184480234260615
2488,0.011062860827598714,0.8184480234260615
2489,0.011062860827598714,0.8187225475841874
2490,0.011067898560216017,0.8187225475841874
2491,0.011067898560216017,0.818814055636896
2492,0.011072936292833322,0.818814055636896
2493,0.011072936292833322,0.8189055636896047
2494,0.011077974025450625,0.8189055636896047
2495,0.011077974025450625,0.8189970717423133
2496,0.011093087223302536,0.8189970717423133
2497,0.011093087223302536,0.8191800878477306
2498,0.011108200421154447,0.8191800878477306
2499,0.011108200421154447,0.8192715959004392
2500,0.01112835135162366,0.8192715959004392
2501,0.01112835135162366,0.8193631039531479
2502,0.011133389084240965,0.8193631039531479
2503,0.011133389084240965,0.8194546120058566
2504,0.011178728677796698,0.8194546120058566
2505,0.011178728677796698,0.8196376281112738
2506,0.01122406827135243,0.8196376281112738
2507,0.01122406827135243,0.8197291361639825
2508,0.011229106003969733,0.8197291361639825
2509,0.011229106003969733,0.8198206442166911
2510,0.011234143736587036,0.8198206442166911
2511,0.011234143736587036,0.8199121522693997
2512,0.011244219201821644,0.8199121522693997
2513,0.011244219201821644,0.8200036603221084
2514,0.011259332399673555,0.8200036603221084
2515,0.011259332399673555,0.820095168374817
2516,0.011269407864908163,0.820095168374817
2517,0.011269407864908163,0.8201866764275256
2518,0.011274445597525466,0.8201866764275256
2519,0.011274445597525466,0.8202781844802343
2520,0.011279483330142769,0.8202781844802343
2521,0.011279483330142769,0.8203696925329429
2522,0.011289558795377377,0.8203696925329429
2523,0.011289558795377377,0.8205527086383602
2524,0.011314747458463895,0.8205527086383602
2525,0.011314747458463895,0.8206442166910688
2526,0.011319785191081198,0.8206442166910688
2527,0.011319785191081198,0.8207357247437774
2528,0.011324822923698501,0.8207357247437774
2529,0.011324822923698501,0.8208272327964861
2530,0.011329860656315806,0.8208272327964861
2531,0.011329860656315806,0.821101756954612
2532,0.01133489838893311,0.821101756954612
2533,0.01133489838893311,0.8211932650073206
2534,0.011344973854167717,0.8211932650073206
2535,0.011344973854167717,0.8212847730600292
2536,0.01135001158678502,0.8212847730600292
2537,0.01135001158678502,0.821376281112738
2538,0.011380237982488842,0.821376281112738
2539,0.011380237982488842,0.8219253294289898
2540,0.01139031344772345,0.8219253294289898
2541,0.01139031344772345,0.8220168374816984
2542,0.011395351180340752,0.8220168374816984
2543,0.011395351180340752,0.822108345534407
2544,0.011415502110809966,0.822108345534407
2545,0.011415502110809966,0.8221998535871157
2546,0.011420539843427271,0.8221998535871157
2547,0.011420539843427271,0.8222913616398243
2548,0.011430615308661877,0.8222913616398243
2549,0.011430615308661877,0.8224743777452416
2550,0.01143565304127918,0.8224743777452416
2551,0.01143565304127918,0.8225658857979502
2552,0.011440690773896485,0.8225658857979502
2553,0.011440690773896485,0.8226573938506588
2554,0.011455803971748396,0.8226573938506588
2555,0.011455803971748396,0.8227489019033675
2556,0.011470917169600307,0.8227489019033675
2557,0.011470917169600307,0.8229319180087847
2558,0.011501143565304128,0.8229319180087847
2559,0.011501143565304128,0.8230234260614934
2560,0.011506181297921431,0.8230234260614934
2561,0.011506181297921431,0.823114934114202
2562,0.011516256763156039,0.823114934114202
2563,0.011516256763156039,0.8232979502196194
2564,0.011521294495773342,0.8232979502196194
2565,0.011521294495773342,0.823389458272328
2566,0.011541445426242556,0.823389458272328
2567,0.011541445426242556,0.8234809663250366
2568,0.01154648315885986,0.8234809663250366
2569,0.01154648315885986,0.8237554904831625
2570,0.011571671821946378,0.8237554904831625
2571,0.011571671821946378,0.8240300146412884
2572,0.011596860485032896,0.8240300146412884
2573,0.011596860485032896,0.8241215226939971
2574,0.0116018982176502,0.8241215226939971
2575,0.0116018982176502,0.8242130307467057
2576,0.01161701141550211,0.8242130307467057
2577,0.01161701141550211,0.824396046852123
2578,0.011637162345971326,0.824396046852123
2579,0.011637162345971326,0.8244875549048316
2580,0.011652275543823237,0.8244875549048316
2581,0.011652275543823237,0.8245790629575402
2582,0.011667388741675147,0.8245790629575402
2583,0.011667388741675147,0.8246705710102489
2584,0.011687539672144361,0.8246705710102489
2585,0.011687539672144361,0.8248535871156661
2586,0.011692577404761664,0.8248535871156661
2587,0.011692577404761664,0.8249450951683748
2588,0.011697615137378969,0.8249450951683748
2589,0.011697615137378969,0.825128111273792
2590,0.011702652869996272,0.825128111273792
2591,0.011702652869996272,0.8252196193265008
2592,0.011717766067848183,0.8252196193265008
2593,0.011717766067848183,0.8253111273792094
2594,0.011747992463552005,0.8253111273792094
2595,0.011747992463552005,0.825402635431918
2596,0.011753030196169308,0.825402635431918
2597,0.011753030196169308,0.8254941434846267
2598,0.011763105661403915,0.8254941434846267
2599,0.011763105661403915,0.825677159590044
2600,0.011773181126638523,0.825677159590044
2601,0.011773181126638523,0.8259516837481699
2602,0.011788294324490434,0.8259516837481699
2603,0.011788294324490434,0.8261346998535871
2604,0.011793332057107737,0.8261346998535871
2605,0.011793332057107737,0.8262262079062958
2606,0.01179836978972504,0.8262262079062958
2607,0.01179836978972504,0.8265007320644217
2608,0.011803407522342345,0.8265007320644217
2609,0.011803407522342345,0.8266837481698389
2610,0.011808445254959648,0.8266837481698389
2611,0.011808445254959648,0.8267752562225475
2612,0.011823558452811559,0.8267752562225475
2613,0.011823558452811559,0.8270497803806734
2614,0.011863860313749988,0.8270497803806734
2615,0.011863860313749988,0.8275073206442167
2616,0.011868898046367291,0.8275073206442167
2617,0.011868898046367291,0.8275988286969254
2618,0.011889048976836505,0.8275988286969254
2619,0.011889048976836505,0.827690336749634
2620,0.01189408670945381,0.827690336749634
2621,0.01189408670945381,0.8277818448023426
2622,0.011899124442071113,0.8277818448023426
2623,0.011899124442071113,0.8279648609077599
2624,0.011929350837774935,0.8279648609077599
2625,0.011929350837774935,0.8281478770131772
2626,0.011939426303009542,0.8281478770131772
2627,0.011939426303009542,0.8282393850658858
2628,0.011949501768244148,0.8282393850658858
2629,0.011949501768244148,0.8283308931185944
2630,0.011954539500861453,0.8283308931185944
2631,0.011954539500861453,0.8285139092240117
2632,0.011959577233478756,0.8285139092240117
2633,0.011959577233478756,0.8286054172767203
2634,0.011984765896565273,0.8286054172767203
2635,0.011984765896565273,0.828696925329429
2636,0.011989803629182578,0.828696925329429
2637,0.011989803629182578,0.8287884333821376
2638,0.012014992292269095,0.8287884333821376
2639,0.012014992292269095,0.8288799414348462
2640,0.0120200300248864,0.8288799414348462
2641,0.0120200300248864,0.8290629575402635
2642,0.012025067757503703,0.8290629575402635
2643,0.012025067757503703,0.8292459736456809
2644,0.012045218687972916,0.8292459736456809
2645,0.012045218687972916,0.8293374816983895
2646,0.012050256420590221,0.8293374816983895
2647,0.012050256420590221,0.829703513909224
2648,0.012075445083676738,0.829703513909224
2649,0.012075445083676738,0.8298865300146413
2650,0.012095596014145954,0.8298865300146413
2651,0.012095596014145954,0.8299780380673499
2652,0.012100633746763257,0.8299780380673499
2653,0.012100633746763257,0.8300695461200586
2654,0.01210567147938056,0.8300695461200586
2655,0.01210567147938056,0.8301610541727672
2656,0.01212078467723247,0.8301610541727672
2657,0.01212078467723247,0.8302525622254758
2658,0.012125822409849775,0.8302525622254758
2659,0.012125822409849775,0.8304355783308931
2660,0.0121610865381709,0.8304355783308931
2661,0.0121610865381709,0.8305270863836017
2662,0.01217619973602281,0.8305270863836017
2663,0.01217619973602281,0.8306185944363104
2664,0.012181237468640114,0.8306185944363104
2665,0.012181237468640114,0.830710102489019
2666,0.012236652527430454,0.830710102489019
2667,0.012236652527430454,0.8308016105417276
2668,0.012246727992665062,0.8308016105417276
2669,0.012246727992665062,0.8309846266471449
2670,0.012266878923134276,0.8309846266471449
2671,0.012266878923134276,0.8310761346998536
2672,0.012271916655751579,0.8310761346998536
2673,0.012271916655751579,0.8311676427525623
2674,0.01228702985360349,0.8311676427525623
2675,0.01228702985360349,0.8312591508052709
2676,0.0123021430514554,0.8312591508052709
2677,0.0123021430514554,0.8313506588579795
2678,0.012312218516690008,0.8313506588579795
2679,0.012312218516690008,0.8317166910688141
