,fpr,tpr
0,0.0,0.0
1,0.0,9.150805270863836e-05
2,0.0,0.01171303074670571
3,0.0,0.011896046852122987
4,0.0,0.06231698389458273
5,5.037732617303604e-06,0.06231698389458273
6,5.037732617303604e-06,0.06378111273792093
7,5.037732617303604e-06,0.06396412884333821
8,5.037732617303604e-06,0.08482796486090775
9,1.0075465234607208e-05,0.08482796486090775
10,1.0075465234607208e-05,0.0951683748169839
11,1.0075465234607208e-05,0.09535139092240118
12,1.0075465234607208e-05,0.09809663250366032
13,1.0075465234607208e-05,0.0982796486090776
14,1.0075465234607208e-05,0.10303806734992679
15,1.5113197851910811e-05,0.10303806734992679
16,1.5113197851910811e-05,0.12307833089311859
17,1.5113197851910811e-05,0.12326134699853587
18,1.5113197851910811e-05,0.1572108345534407
19,1.5113197851910811e-05,0.15739385065885797
20,1.5113197851910811e-05,0.20836383601756955
21,2.0150930469214415e-05,0.20836383601756955
22,2.0150930469214415e-05,0.21696559297218154
23,2.0150930469214415e-05,0.21714860907759884
24,2.0150930469214415e-05,0.220900439238653
25,2.518866308651802e-05,0.220900439238653
26,2.518866308651802e-05,0.22108345534407028
27,2.518866308651802e-05,0.22126647144948755
28,2.518866308651802e-05,0.2390190336749634
29,2.518866308651802e-05,0.23920204978038068
30,2.518866308651802e-05,0.24103221083455345
31,2.518866308651802e-05,0.24121522693997072
32,2.518866308651802e-05,0.2664714494875549
33,3.0226395703821623e-05,0.2664714494875549
34,3.0226395703821623e-05,0.28541361639824303
35,3.526412832112523e-05,0.28541361639824303
36,3.526412832112523e-05,0.2953879941434846
37,4.030186093842883e-05,0.2953879941434846
38,4.030186093842883e-05,0.3068265007320644
39,4.533959355573244e-05,0.3068265007320644
40,4.533959355573244e-05,0.3084736456808199
41,5.037732617303604e-05,0.3084736456808199
42,5.037732617303604e-05,0.3089311859443631
43,5.037732617303604e-05,0.3091142020497804
44,5.037732617303604e-05,0.31002928257686674
45,5.5415058790339646e-05,0.31002928257686674
46,5.5415058790339646e-05,0.31982064421669104
47,6.0452791407643246e-05,0.31982064421669104
48,6.0452791407643246e-05,0.3425146412884334
49,6.549052402494685e-05,0.3425146412884334
50,6.549052402494685e-05,0.34361273792093705
51,6.549052402494685e-05,0.3437957540263543
52,6.549052402494685e-05,0.34388726207906295
53,7.052825664225046e-05,0.34388726207906295
54,7.052825664225046e-05,0.3468155197657394
55,7.556598925955406e-05,0.3468155197657394
56,7.556598925955406e-05,0.3515739385065886
57,8.060372187685766e-05,0.3515739385065886
58,8.060372187685766e-05,0.35221449487554907
59,9.067918711146488e-05,0.35221449487554907
60,9.067918711146488e-05,0.354502196193265
61,9.571691972876848e-05,0.354502196193265
62,9.571691972876848e-05,0.3636530014641288
63,0.00010075465234607208,0.3636530014641288
64,0.00010075465234607208,0.36630673499267935
65,0.00010579238496337569,0.36630673499267935
66,0.00010579238496337569,0.3677708638360176
67,0.00011083011758067929,0.3677708638360176
68,0.00011083011758067929,0.3705161054172767
69,0.00011586785019798289,0.3705161054172767
70,0.00011586785019798289,0.3764641288433382
71,0.00012090558281528649,0.3764641288433382
72,0.00012090558281528649,0.3775622254758419
73,0.0001259433154325901,0.3775622254758419
74,0.0001259433154325901,0.38488286969253294
75,0.0001309810480498937,0.38488286969253294
76,0.0001309810480498937,0.3904648609077599
77,0.00013601878066719732,0.3904648609077599
78,0.00013601878066719732,0.391196925329429
79,0.00014105651328450092,0.391196925329429
80,0.00014105651328450092,0.40034773060029283
81,0.00014609424590180452,0.40034773060029283
82,0.00014609424590180452,0.4006222547584187
83,0.00015113197851910812,0.4006222547584187
84,0.00015113197851910812,0.40300146412884336
85,0.00015616971113641172,0.40300146412884336
86,0.00015616971113641172,0.403092972181552
87,0.00016120744375371532,0.403092972181552
88,0.00016120744375371532,0.404099560761347
89,0.00016624517637101892,0.404099560761347
90,0.00016624517637101892,0.4042825768667643
91,0.00017128290898832252,0.4042825768667643
92,0.00017128290898832252,0.4043740849194729
93,0.00017632064160562615,0.4043740849194729
94,0.00017632064160562615,0.40611273792093705
95,0.00018135837422292975,0.40611273792093705
96,0.00018135837422292975,0.41114568081991215
97,0.00018639610684023335,0.41114568081991215
98,0.00018639610684023335,0.4113286969253294
99,0.00019143383945753695,0.4113286969253294
100,0.00019143383945753695,0.4132503660322108
101,0.00019647157207484055,0.4132503660322108
102,0.00019647157207484055,0.4137994143484627
103,0.00020150930469214415,0.4137994143484627
104,0.00020150930469214415,0.41837481698389456
105,0.00020654703730944775,0.41837481698389456
106,0.00020654703730944775,0.4213945827232797
107,0.00021158476992675138,0.4213945827232797
108,0.00021158476992675138,0.42185212298682284
109,0.00021662250254405498,0.42185212298682284
110,0.00021662250254405498,0.4224011713030747
111,0.00022166023516135858,0.4224011713030747
112,0.00022166023516135858,0.42249267935578333
113,0.00022669796777866218,0.42249267935578333
114,0.00022669796777866218,0.4234077598828697
115,0.00023173570039596578,0.4234077598828697
116,0.00023173570039596578,0.4308199121522694
117,0.00023677343301326938,0.4308199121522694
118,0.00023677343301326938,0.4314604685212299
119,0.00024181116563057298,0.4314604685212299
120,0.00024181116563057298,0.43292459736456806
121,0.0002468488982478766,0.43292459736456806
122,0.0002468488982478766,0.4336566617862372
123,0.0002518866308651802,0.4336566617862372
124,0.0002518866308651802,0.4345717423133236
125,0.0002569243634824838,0.4345717423133236
126,0.0002569243634824838,0.4346632503660322
127,0.0002619620960997874,0.4346632503660322
128,0.0002619620960997874,0.43548682284040996
129,0.000266999828717091,0.43548682284040996
130,0.000266999828717091,0.4362188872620791
131,0.00027203756133439464,0.4362188872620791
132,0.00027203756133439464,0.43859809663250365
133,0.00028211302656900184,0.43859809663250365
134,0.00028211302656900184,0.43978770131771594
135,0.0002871507591863054,0.43978770131771594
136,0.0002871507591863054,0.44619326500732065
137,0.0002972262244209126,0.44619326500732065
138,0.0002972262244209126,0.44683382137628114
139,0.00030226395703821624,0.44683382137628114
140,0.00030226395703821624,0.44765739385065884
141,0.0003073016896555198,0.44765739385065884
142,0.0003073016896555198,0.4494875549048316
143,0.00031233942227282344,0.4494875549048316
144,0.00031233942227282344,0.4507686676427526
145,0.00031737715489012707,0.4507686676427526
146,0.00031737715489012707,0.452690336749634
147,0.00032241488750743065,0.452690336749634
148,0.00032241488750743065,0.4527818448023426
149,0.00032745262012473427,0.4527818448023426
150,0.00032745262012473427,0.45470351390922403
151,0.00033249035274203785,0.45470351390922403
152,0.00033249035274203785,0.4556185944363104
153,0.0003375280853593415,0.4556185944363104
154,0.0003375280853593415,0.4560761346998536
155,0.00034256581797664505,0.4560761346998536
156,0.00034256581797664505,0.45818081991215226
157,0.0003476035505939487,0.45818081991215226
158,0.0003476035505939487,0.4586383601756955
159,0.0003526412832112523,0.4586383601756955
160,0.0003526412832112523,0.45900439238653
161,0.0003576790158285559,0.45900439238653
162,0.0003576790158285559,0.4614751098096633
163,0.0003627167484458595,0.4614751098096633
164,0.0003627167484458595,0.4624816983894583
165,0.0003677544810631631,0.4624816983894583
166,0.0003677544810631631,0.463305270863836
167,0.0003727922136804667,0.463305270863836
168,0.0003727922136804667,0.4637628111273792
169,0.0003828676789150739,0.4637628111273792
170,0.0003828676789150739,0.4640373352855051
171,0.0003929431441496811,0.4640373352855051
172,0.0003929431441496811,0.46733162518301613
173,0.00039798087676698473,0.46733162518301613
174,0.00039798087676698473,0.46833821376281115
175,0.0004030186093842883,0.46833821376281115
176,0.0004030186093842883,0.4687042459736457
177,0.00040805634200159193,0.4687042459736457
178,0.00040805634200159193,0.471907027818448
179,0.0004130940746188955,0.471907027818448
180,0.0004130940746188955,0.4732796486090776
181,0.00041813180723619913,0.4732796486090776
182,0.00041813180723619913,0.47364568081991215
183,0.00042316953985350276,0.47364568081991215
184,0.00042316953985350276,0.4738286969253294
185,0.00042820727247080634,0.4738286969253294
186,0.00042820727247080634,0.4740117130307467
187,0.00043324500508810996,0.4740117130307467
188,0.00043324500508810996,0.4766654465592972
189,0.00043828273770541354,0.4766654465592972
190,0.00043828273770541354,0.47767203513909223
191,0.00044332047032271716,0.47767203513909223
192,0.00044332047032271716,0.4785871156661786
193,0.00044835820294002074,0.4785871156661786
194,0.00044835820294002074,0.48005124450951686
195,0.00045339593555732436,0.48005124450951686
196,0.00045339593555732436,0.4804172767203514
197,0.00045843366817462794,0.4804172767203514
198,0.00045843366817462794,0.48087481698389456
199,0.00046347140079193157,0.48087481698389456
200,0.00046347140079193157,0.48096632503660325
201,0.0004685091334092352,0.48096632503660325
202,0.0004685091334092352,0.4826134699853587
203,0.00047354686602653877,0.4826134699853587
204,0.00047354686602653877,0.4828879941434846
205,0.0004785845986438424,0.4828879941434846
206,0.0004785845986438424,0.4830710102489019
207,0.00048362233126114597,0.4830710102489019
208,0.00048362233126114597,0.48371156661786235
209,0.0004886600638784495,0.48371156661786235
210,0.0004886600638784495,0.48407759882869694
211,0.0004936977964957532,0.48407759882869694
212,0.0004936977964957532,0.48599926793557835
213,0.0004987355291130568,0.48599926793557835
214,0.0004987355291130568,0.4883784773060029
215,0.0005037732617303604,0.4883784773060029
216,0.0005037732617303604,0.49030014641288433
217,0.000508810994347664,0.49030014641288433
218,0.000508810994347664,0.49103221083455345
219,0.0005239241921995748,0.49103221083455345
220,0.0005239241921995748,0.4916727672035139
221,0.0005289619248168785,0.4916727672035139
222,0.0005289619248168785,0.49295387994143486
223,0.000533999657434182,0.49295387994143486
224,0.000533999657434182,0.4937774524158126
225,0.0005390373900514856,0.4937774524158126
226,0.0005390373900514856,0.4970717423133236
227,0.0005440751226687893,0.4970717423133236
228,0.0005440751226687893,0.498993411420205
229,0.0005491128552860929,0.498993411420205
230,0.0005491128552860929,0.5018301610541728
231,0.0005541505879033964,0.5018301610541728
232,0.0005541505879033964,0.5021046852122987
233,0.0005591883205207,0.5021046852122987
234,0.0005591883205207,0.5038433382137628
235,0.0005642260531380037,0.5038433382137628
236,0.0005642260531380037,0.5044838945827232
237,0.0005692637857553073,0.5044838945827232
238,0.0005692637857553073,0.5046669106881405
239,0.0005743015183726108,0.5046669106881405
240,0.0005743015183726108,0.5051244509516838
241,0.0005793392509899145,0.5051244509516838
242,0.0005793392509899145,0.5076866764275256
243,0.0005843769836072181,0.5076866764275256
244,0.0005843769836072181,0.5085102489019033
245,0.0005894147162245217,0.5085102489019033
246,0.0005894147162245217,0.5115300146412884
247,0.0005944524488418252,0.5115300146412884
248,0.0005944524488418252,0.5120790629575402
249,0.0005994901814591289,0.5120790629575402
250,0.0005994901814591289,0.5135431918008785
251,0.0005994901814591289,0.5137262079062958
252,0.0005994901814591289,0.5145497803806734
253,0.0006045279140764325,0.5145497803806734
254,0.0006045279140764325,0.5156478770131772
255,0.0006095656466937361,0.5156478770131772
256,0.0006095656466937361,0.5163799414348462
257,0.0006196411119283433,0.5163799414348462
258,0.0006196411119283433,0.5166544655929722
259,0.0006246788445456469,0.5166544655929722
260,0.0006246788445456469,0.5167459736456809
261,0.0006297165771629505,0.5167459736456809
262,0.0006297165771629505,0.5174780380673499
263,0.0006347543097802541,0.5174780380673499
264,0.0006347543097802541,0.5183016105417276
265,0.0006397920423975577,0.5183016105417276
266,0.0006397920423975577,0.5200402635431918
267,0.0006448297750148613,0.5200402635431918
268,0.0006448297750148613,0.520223279648609
269,0.0006498675076321649,0.520223279648609
270,0.0006498675076321649,0.5203147877013177
271,0.0006549052402494685,0.5203147877013177
272,0.0006549052402494685,0.5204978038067349
273,0.0006599429728667721,0.5204978038067349
274,0.0006599429728667721,0.520772327964861
275,0.0006649807054840757,0.520772327964861
276,0.0006649807054840757,0.5237005856515373
277,0.0006700184381013794,0.5237005856515373
278,0.0006700184381013794,0.5243411420204978
279,0.000675056170718683,0.5243411420204978
280,0.000675056170718683,0.5263543191800878
281,0.0006800939033359865,0.5263543191800878
282,0.0006800939033359865,0.5266288433382138
283,0.0006851316359532901,0.5266288433382138
284,0.0006851316359532901,0.5274524158125915
285,0.0006901693685705938,0.5274524158125915
286,0.0006901693685705938,0.5276354319180088
287,0.0007002448338052009,0.5276354319180088
288,0.0007002448338052009,0.527818448023426
289,0.0007052825664225046,0.527818448023426
290,0.0007052825664225046,0.5285505124450952
291,0.0007103202990398082,0.5285505124450952
292,0.0007103202990398082,0.5300146412884333
293,0.0007153580316571118,0.5300146412884333
294,0.0007153580316571118,0.5306551976573939
295,0.0007203957642744153,0.5306551976573939
296,0.0007203957642744153,0.5319363103953147
297,0.000725433496891719,0.5319363103953147
298,0.000725433496891719,0.5325768667642753
299,0.0007355089621263262,0.5325768667642753
300,0.0007355089621263262,0.5326683748169839
301,0.0007405466947436298,0.5326683748169839
302,0.0007405466947436298,0.5331259150805271
303,0.0007455844273609334,0.5331259150805271
304,0.0007455844273609334,0.5333089311859444
305,0.000750622159978237,0.5333089311859444
306,0.000750622159978237,0.5335834553440703
307,0.0007556598925955406,0.5335834553440703
308,0.0007556598925955406,0.534681551976574
309,0.0007606976252128442,0.534681551976574
310,0.0007606976252128442,0.5359626647144948
311,0.0007657353578301478,0.5359626647144948
312,0.0007657353578301478,0.5367862371888726
313,0.0007707730904474514,0.5367862371888726
314,0.0007707730904474514,0.5370607613469985
315,0.0007758108230647551,0.5370607613469985
316,0.0007758108230647551,0.5394399707174231
317,0.0007808485556820586,0.5394399707174231
318,0.0007808485556820586,0.5423682284040996
319,0.0007909240209166658,0.5423682284040996
320,0.0007909240209166658,0.5424597364568082
321,0.0007959617535339695,0.5424597364568082
322,0.0007959617535339695,0.5434663250366032
323,0.000800999486151273,0.5434663250366032
324,0.000800999486151273,0.5438323572474377
325,0.0008060372187685766,0.5438323572474377
326,0.0008060372187685766,0.5448389458272328
327,0.0008110749513858803,0.5448389458272328
328,0.0008110749513858803,0.5451134699853587
329,0.0008161126840031839,0.5451134699853587
330,0.0008161126840031839,0.5457540263543191
331,0.0008211504166204874,0.5457540263543191
332,0.0008211504166204874,0.5464860907759883
333,0.000826188149237791,0.5464860907759883
334,0.000826188149237791,0.5468521229868228
335,0.0008312258818550947,0.5468521229868228
336,0.0008312258818550947,0.5479502196193266
337,0.0008362636144723983,0.5479502196193266
338,0.0008362636144723983,0.548590775988287
339,0.0008463390797070055,0.548590775988287
340,0.0008463390797070055,0.5494143484626647
341,0.0008513768123243091,0.5494143484626647
342,0.0008513768123243091,0.5511530014641288
343,0.0008564145449416127,0.5511530014641288
344,0.0008564145449416127,0.5513360175695461
345,0.0008614522775589162,0.5513360175695461
346,0.0008614522775589162,0.5520680819912153
347,0.0008664900101762199,0.5520680819912153
348,0.0008664900101762199,0.5523426061493412
349,0.0008715277427935235,0.5523426061493412
350,0.0008715277427935235,0.5524341142020498
351,0.0008765654754108271,0.5524341142020498
352,0.0008765654754108271,0.5529831625183016
353,0.0008866409406454343,0.5529831625183016
354,0.0008866409406454343,0.5532576866764275
355,0.0008916786732627379,0.5532576866764275
356,0.0008916786732627379,0.556918008784773
357,0.0008967164058800415,0.556918008784773
358,0.0008967164058800415,0.5570095168374817
359,0.0009017541384973452,0.5570095168374817
360,0.0009017541384973452,0.5573755490483162
361,0.0009067918711146487,0.5573755490483162
362,0.0009067918711146487,0.5583821376281113
363,0.0009168673363492559,0.5583821376281113
364,0.0009168673363492559,0.5585651537335286
365,0.0009219050689665596,0.5585651537335286
366,0.0009219050689665596,0.5591142020497804
367,0.0009269428015838631,0.5591142020497804
368,0.0009269428015838631,0.5595717423133236
369,0.0009319805342011667,0.5595717423133236
370,0.0009319805342011667,0.5596632503660323
371,0.000942055999435774,0.5596632503660323
372,0.000942055999435774,0.5599377745241582
373,0.0009521314646703811,0.5599377745241582
374,0.0009521314646703811,0.5602122986822841
375,0.0009571691972876848,0.5602122986822841
376,0.0009571691972876848,0.5605783308931186
377,0.0009622069299049884,0.5605783308931186
378,0.0009622069299049884,0.5611273792093704
379,0.0009672446625222919,0.5611273792093704
380,0.0009672446625222919,0.561218887262079
381,0.0009722823951395956,0.561218887262079
382,0.0009722823951395956,0.5614019033674963
383,0.000977320127756899,0.5614019033674963
384,0.000977320127756899,0.5625915080527086
385,0.0009823578603742028,0.5625915080527086
386,0.0009823578603742028,0.5628660322108345
387,0.00099243332560881,0.5628660322108345
388,0.00099243332560881,0.5640556368960469
389,0.0009974710582261136,0.5640556368960469
390,0.0009974710582261136,0.5657027818448024
391,0.0010025087908434173,0.5657027818448024
392,0.0010025087908434173,0.5667093704245973
393,0.0010075465234607207,0.5667093704245973
394,0.0010075465234607207,0.5672584187408491
395,0.0010125842560780244,0.5672584187408491
396,0.0010125842560780244,0.5674414348462665
397,0.0010226597213126316,0.5674414348462665
398,0.0010226597213126316,0.5678074670571011
399,0.0010276974539299352,0.5678074670571011
400,0.0010276974539299352,0.5687225475841874
401,0.0010327351865472387,0.5687225475841874
402,0.0010327351865472387,0.5691800878477306
403,0.0010377729191645424,0.5691800878477306
404,0.0010377729191645424,0.5699121522693997
405,0.0010478483843991495,0.5699121522693997
406,0.0010478483843991495,0.5703696925329429
407,0.0010528861170164532,0.5703696925329429
408,0.0010528861170164532,0.5707357247437774
409,0.001057923849633757,0.5707357247437774
410,0.001057923849633757,0.571101756954612
411,0.0010629615822510604,0.571101756954612
412,0.0010629615822510604,0.571376281112738
413,0.001067999314868364,0.571376281112738
414,0.001067999314868364,0.5714677891654466
415,0.0010730370474856677,0.5714677891654466
416,0.0010730370474856677,0.5721998535871157
417,0.0010780747801029712,0.5721998535871157
418,0.0010780747801029712,0.5722913616398243
419,0.0010831125127202749,0.5722913616398243
420,0.0010831125127202749,0.5732064421669106
421,0.0010881502453375786,0.5732064421669106
422,0.0010881502453375786,0.5738469985358712
423,0.001093187977954882,0.5738469985358712
424,0.001093187977954882,0.5742130307467057
425,0.0010982257105721857,0.5742130307467057
426,0.0010982257105721857,0.5743045387994143
427,0.0011032634431894892,0.5743045387994143
428,0.0011032634431894892,0.5744875549048316
429,0.0011083011758067929,0.5744875549048316
430,0.0011083011758067929,0.5758601756954612
431,0.0011133389084240965,0.5758601756954612
432,0.0011133389084240965,0.5762262079062958
433,0.0011183766410414,0.5762262079062958
434,0.0011183766410414,0.5763177159590044
435,0.0011284521062760074,0.5763177159590044
436,0.0011284521062760074,0.5767752562225475
437,0.0011334898388933108,0.5767752562225475
438,0.0011334898388933108,0.5768667642752562
439,0.0011385275715106145,0.5768667642752562
440,0.0011385275715106145,0.5769582723279648
441,0.0011385275715106145,0.5771412884333821
442,0.0011385275715106145,0.5775073206442167
443,0.0011435653041279182,0.5775073206442167
444,0.0011435653041279182,0.5777818448023426
445,0.0011486030367452217,0.5777818448023426
446,0.0011486030367452217,0.5778733528550513
447,0.0011536407693625253,0.5778733528550513
448,0.0011536407693625253,0.578696925329429
449,0.0011637162345971325,0.578696925329429
450,0.0011637162345971325,0.5787884333821376
451,0.0011687539672144362,0.5787884333821376
452,0.0011687539672144362,0.5788799414348462
453,0.0011737916998317396,0.5788799414348462
454,0.0011737916998317396,0.5789714494875549
455,0.0011788294324490433,0.5789714494875549
456,0.0011788294324490433,0.5794289897510981
457,0.001183867165066347,0.5794289897510981
458,0.001183867165066347,0.5799780380673499
459,0.0011889048976836505,0.5799780380673499
460,0.0011889048976836505,0.5800695461200586
461,0.0011939426303009541,0.5800695461200586
462,0.0011939426303009541,0.5801610541727672
463,0.0011989803629182578,0.5801610541727672
464,0.0011989803629182578,0.5805270863836017
465,0.001209055828152865,0.5805270863836017
466,0.0012191312933874721,0.5805270863836017
467,0.0012191312933874721,0.5808016105417276
468,0.00124431995647399,0.5808016105417276
469,0.00124431995647399,0.5818997071742313
470,0.0012493576890912938,0.5818997071742313
471,0.0012493576890912938,0.5820827232796486
472,0.0012543954217085975,0.5820827232796486
473,0.0012543954217085975,0.5831808199121523
474,0.001259433154325901,0.5831808199121523
475,0.001259433154325901,0.583272327964861
476,0.0012644708869432046,0.583272327964861
477,0.0012644708869432046,0.5838213762811127
478,0.0012695086195605083,0.5838213762811127
479,0.0012695086195605083,0.58400439238653
480,0.0012745463521778118,0.58400439238653
481,0.0012745463521778118,0.5845534407027818
482,0.0012846218174124191,0.5845534407027818
483,0.0012846218174124191,0.5851939970717424
484,0.0012896595500297226,0.5851939970717424
485,0.0012896595500297226,0.5856515373352855
486,0.0012946972826470263,0.5856515373352855
487,0.0012946972826470263,0.5857430453879942
488,0.0013047727478816334,0.5857430453879942
489,0.0013047727478816334,0.5871156661786238
490,0.001309810480498937,0.5871156661786238
491,0.001309810480498937,0.5873901903367497
492,0.0013148482131162406,0.5873901903367497
493,0.0013148482131162406,0.5874816983894583
494,0.0013198859457335442,0.5874816983894583
495,0.0013198859457335442,0.5877562225475842
496,0.001324923678350848,0.5877562225475842
497,0.001324923678350848,0.5878477306002928
498,0.0013400368762027587,0.5878477306002928
499,0.0013400368762027587,0.5880307467057101
500,0.0013450746088200622,0.5880307467057101
501,0.0013450746088200622,0.5885797950219619
502,0.001350112341437366,0.5885797950219619
503,0.001350112341437366,0.5887628111273792
504,0.0013551500740546696,0.5887628111273792
505,0.0013551500740546696,0.5908674963396779
506,0.001360187806671973,0.5908674963396779
507,0.001360187806671973,0.5919655929721815
508,0.0013652255392892767,0.5919655929721815
509,0.0013652255392892767,0.592606149341142
510,0.0013702632719065802,0.592606149341142
511,0.0013702632719065802,0.5930636896046853
512,0.0013753010045238839,0.5930636896046853
513,0.0013753010045238839,0.5932467057101025
514,0.0013803387371411876,0.5932467057101025
515,0.0013803387371411876,0.593612737920937
516,0.0013904142023757947,0.593612737920937
517,0.0013904142023757947,0.593887262079063
518,0.0013954519349930984,0.593887262079063
519,0.0013954519349930984,0.5941617862371888
520,0.0014105651328450092,0.5941617862371888
521,0.0014105651328450092,0.5951683748169839
522,0.0014156028654623127,0.5951683748169839
523,0.0014156028654623127,0.5955344070278185
524,0.0014206405980796164,0.5955344070278185
525,0.0014206405980796164,0.5959919472913616
526,0.00142567833069692,0.5959919472913616
527,0.00142567833069692,0.5964494875549048
528,0.0014307160633142235,0.5964494875549048
529,0.0014307160633142235,0.5967240117130308
530,0.0014357537959315272,0.5967240117130308
531,0.0014357537959315272,0.5969985358711567
532,0.0014407915285488306,0.5969985358711567
533,0.0014407915285488306,0.5973645680819912
534,0.0014458292611661343,0.5973645680819912
535,0.0014458292611661343,0.5978221083455344
536,0.001450866993783438,0.5978221083455344
537,0.001450866993783438,0.5980051244509517
538,0.0014559047264007415,0.5980051244509517
539,0.0014559047264007415,0.5982796486090776
540,0.0014609424590180452,0.5982796486090776
541,0.0014609424590180452,0.5984626647144948
542,0.0014659801916353488,0.5984626647144948
543,0.0014659801916353488,0.5988286969253295
544,0.0014710179242526523,0.5988286969253295
545,0.0014710179242526523,0.599194729136164
546,0.001476055656869956,0.599194729136164
547,0.001476055656869956,0.5993777452415813
548,0.0014810933894872597,0.5993777452415813
549,0.0014810933894872597,0.5997437774524158
550,0.0014861311221045631,0.5997437774524158
551,0.0014861311221045631,0.6001098096632503
552,0.0014911688547218668,0.6001098096632503
553,0.0014911688547218668,0.6002928257686676
554,0.001501244319956474,0.6002928257686676
555,0.001501244319956474,0.6003843338213762
556,0.0015062820525737776,0.6003843338213762
557,0.0015062820525737776,0.6004758418740849
558,0.001511319785191081,0.6004758418740849
559,0.001511319785191081,0.6009333821376281
560,0.0015163575178083848,0.6009333821376281
561,0.0015163575178083848,0.6011163982430454
562,0.0015213952504256885,0.6011163982430454
563,0.0015213952504256885,0.60148243045388
564,0.001526432983042992,0.60148243045388
565,0.001526432983042992,0.6015739385065886
566,0.0015314707156602956,0.6015739385065886
567,0.0015314707156602956,0.602214494875549
568,0.0015365084482775993,0.602214494875549
569,0.0015365084482775993,0.6025805270863837
570,0.0015465839135122064,0.6025805270863837
571,0.0015465839135122064,0.6026720351390923
572,0.0015516216461295101,0.6026720351390923
573,0.0015516216461295101,0.60349560761347
574,0.0015566593787468136,0.60349560761347
575,0.0015566593787468136,0.6038616398243045
576,0.0015616971113641173,0.6038616398243045
577,0.0015616971113641173,0.604227672035139
578,0.0015667348439814207,0.604227672035139
579,0.0015667348439814207,0.6043191800878477
580,0.0015717725765987244,0.6043191800878477
581,0.0015717725765987244,0.6045021961932651
582,0.001576810309216028,0.6045021961932651
583,0.001576810309216028,0.6046852122986823
584,0.0015818480418333316,0.6046852122986823
585,0.0015818480418333316,0.6049597364568082
586,0.0015868857744506353,0.6049597364568082
587,0.0015868857744506353,0.6053257686676428
588,0.001591923507067939,0.6053257686676428
589,0.001591923507067939,0.60550878477306
590,0.0015969612396852424,0.60550878477306
591,0.0015969612396852424,0.6065153733528551
592,0.001601998972302546,0.6065153733528551
593,0.001601998972302546,0.6074304538799414
594,0.0016120744375371532,0.6074304538799414
595,0.0016120744375371532,0.6076134699853587
596,0.001617112170154457,0.6076134699853587
597,0.001617112170154457,0.6078879941434846
598,0.0016221499027717606,0.6078879941434846
599,0.0016221499027717606,0.6081625183016105
600,0.001627187635389064,0.6081625183016105
601,0.001627187635389064,0.6084370424597365
602,0.0016322253680063677,0.6084370424597365
603,0.0016322253680063677,0.6085285505124451
604,0.001652376298475582,0.6085285505124451
605,0.001652376298475582,0.6086200585651538
606,0.0016574140310928857,0.6086200585651538
607,0.0016574140310928857,0.6087115666178624
608,0.0016624517637101894,0.6087115666178624
609,0.0016624517637101894,0.608803074670571
610,0.0016674894963274929,0.608803074670571
611,0.0016674894963274929,0.6092606149341142
612,0.0016725272289447965,0.6092606149341142
613,0.0016725272289447965,0.6094436310395315
614,0.0016775649615621002,0.6094436310395315
615,0.0016775649615621002,0.6099011713030746
616,0.0016876404267967074,0.6099011713030746
617,0.0016876404267967074,0.6099926793557833
618,0.001692678159414011,0.6099926793557833
619,0.001692678159414011,0.6107247437774525
620,0.0016977158920313145,0.6107247437774525
621,0.0016977158920313145,0.6115483162518301
622,0.0017027536246486182,0.6115483162518301
623,0.0017027536246486182,0.6117313323572474
624,0.0017077913572659217,0.6117313323572474
625,0.0017077913572659217,0.613103953147877
626,0.0017128290898832253,0.613103953147877
627,0.0017128290898832253,0.6132869692532943
628,0.0017279422877351362,0.6132869692532943
629,0.0017279422877351362,0.6135614934114202
630,0.001743055485587047,0.6135614934114202
631,0.001743055485587047,0.6139275256222547
632,0.0017531309508216541,0.6139275256222547
633,0.0017531309508216541,0.6145680819912153
634,0.0017581686834389578,0.6145680819912153
635,0.0017581686834389578,0.6147510980966325
636,0.0017632064160562613,0.6147510980966325
637,0.0017632064160562613,0.6149341142020498
638,0.001768244148673565,0.6149341142020498
639,0.001768244148673565,0.6150256222547584
640,0.0017732818812908687,0.6150256222547584
641,0.0017732818812908687,0.6164897510980967
642,0.0017783196139081721,0.6164897510980967
643,0.0017783196139081721,0.6170387994143485
644,0.0017833573465254758,0.6170387994143485
645,0.0017833573465254758,0.6171303074670571
646,0.0017883950791427795,0.6171303074670571
647,0.0017883950791427795,0.6172218155197657
648,0.001793432811760083,0.6172218155197657
649,0.001793432811760083,0.6175878477306003
650,0.0017984705443773866,0.6175878477306003
651,0.0017984705443773866,0.6177708638360175
652,0.0018035082769946903,0.6177708638360175
653,0.0018035082769946903,0.6185029282576867
654,0.0018085460096119938,0.6185029282576867
655,0.0018085460096119938,0.6185944363103953
656,0.0018186214748466011,0.6185944363103953
657,0.0018186214748466011,0.6191434846266471
658,0.0018236592074639046,0.6191434846266471
659,0.0018236592074639046,0.6198755490483162
660,0.0018337346726985118,0.6198755490483162
661,0.0018337346726985118,0.6199670571010248
662,0.0018438101379331191,0.6199670571010248
663,0.0018438101379331191,0.6208821376281113
664,0.0018488478705504226,0.6208821376281113
665,0.0018488478705504226,0.6214311859443631
666,0.00185892333578503,0.6214311859443631
667,0.00185892333578503,0.6219802342606149
668,0.0018639610684023334,0.6219802342606149
669,0.0018639610684023334,0.6220717423133236
670,0.001868998801019637,0.6220717423133236
671,0.001868998801019637,0.6222547584187409
672,0.0018740365336369408,0.6222547584187409
673,0.0018740365336369408,0.6223462664714495
674,0.001884111998871548,0.6223462664714495
675,0.001884111998871548,0.6228953147877013
676,0.0018891497314888516,0.6228953147877013
677,0.0018891497314888516,0.6231698389458272
678,0.001894187464106155,0.6231698389458272
679,0.001894187464106155,0.6232613469985359
680,0.0019042629293407622,0.6232613469985359
681,0.0019042629293407622,0.6233528550512445
682,0.0019143383945753696,0.6233528550512445
683,0.0019143383945753696,0.6235358711566618
684,0.0019294515924272804,0.6235358711566618
685,0.0019294515924272804,0.6243594436310396
686,0.0019344893250445839,0.6243594436310396
687,0.0019344893250445839,0.6249084919472914
688,0.0019445647902791912,0.6249084919472914
689,0.0019445647902791912,0.6256405563689604
690,0.0019496025228964947,0.6256405563689604
691,0.0019496025228964947,0.6260065885797951
692,0.001954640255513798,0.6260065885797951
693,0.001954640255513798,0.6265556368960469
694,0.001969753453365709,0.6265556368960469
695,0.001969753453365709,0.6273792093704246
696,0.001974791185983013,0.6273792093704246
697,0.001974791185983013,0.6279282576866764
698,0.0019798289186003164,0.6279282576866764
699,0.0019798289186003164,0.6282027818448024
700,0.00198486665121762,0.6282027818448024
701,0.00198486665121762,0.6285688140556369
702,0.0019899043838349237,0.6285688140556369
703,0.0019899043838349237,0.6286603221083455
704,0.001994942116452227,0.6286603221083455
705,0.001994942116452227,0.6289348462664714
706,0.0020050175816868345,0.6289348462664714
707,0.0020050175816868345,0.6292093704245973
708,0.0020150930469214415,0.6292093704245973
709,0.0020150930469214415,0.6295754026354319
710,0.002025168512156049,0.6295754026354319
711,0.002025168512156049,0.6296669106881405
712,0.0020302062447733523,0.6296669106881405
713,0.0020302062447733523,0.6297584187408491
714,0.002045319442625263,0.6297584187408491
715,0.002045319442625263,0.6302159590043924
716,0.002050357175242567,0.6302159590043924
717,0.002050357175242567,0.6303074670571011
718,0.0020553949078598705,0.6303074670571011
719,0.0020553949078598705,0.6303989751098097
720,0.002060432640477174,0.6303989751098097
721,0.002060432640477174,0.630581991215227
722,0.0020654703730944774,0.630581991215227
723,0.0020654703730944774,0.6309480234260615
724,0.0020705081057117813,0.6309480234260615
725,0.0020705081057117813,0.631314055636896
726,0.002075545838329085,0.631314055636896
727,0.002075545838329085,0.6323206442166911
728,0.0020805835709463883,0.6323206442166911
729,0.0020805835709463883,0.6328696925329429
730,0.002085621303563692,0.6329612005856515
731,0.002095696768798299,0.6329612005856515
732,0.002095696768798299,0.6330527086383602
733,0.0021057722340329064,0.6330527086383602
734,0.0021057722340329064,0.6331442166910688
735,0.00211080996665021,0.6331442166910688
736,0.00211080996665021,0.6332357247437774
737,0.002115847699267514,0.6332357247437774
738,0.002115847699267514,0.6334187408491947
739,0.0021208854318848173,0.6334187408491947
740,0.0021208854318848173,0.6335102489019033
741,0.0021309608971194246,0.6335102489019033
742,0.0021309608971194246,0.6341508052708639
743,0.002135998629736728,0.6341508052708639
744,0.002135998629736728,0.6343338213762811
745,0.0021410363623540316,0.6343338213762811
746,0.0021410363623540316,0.6347913616398243
747,0.0021460740949713355,0.6347913616398243
748,0.0021460740949713355,0.6348828696925329
749,0.002151111827588639,0.6348828696925329
750,0.002151111827588639,0.6349743777452416
751,0.0021561495602059424,0.6349743777452416
752,0.0021561495602059424,0.635614934114202
753,0.0021662250254405498,0.635614934114202
754,0.0021662250254405498,0.6360724743777453
755,0.0021813382232924606,0.6360724743777453
756,0.0021813382232924606,0.6368045387994143
757,0.002186375955909764,0.6368045387994143
758,0.002186375955909764,0.6372620790629575
759,0.002191413688527068,0.6372620790629575
760,0.002191413688527068,0.637628111273792
761,0.0021964514211443714,0.637628111273792
762,0.0021964514211443714,0.6385431918008785
763,0.002201489153761675,0.6385431918008785
764,0.002201489153761675,0.6387262079062958
765,0.0022065268863789783,0.6387262079062958
766,0.0022065268863789783,0.6388177159590044
767,0.0022115646189962822,0.6388177159590044
768,0.0022115646189962822,0.6390922401171303
769,0.0022166023516135857,0.6390922401171303
770,0.0022166023516135857,0.6391837481698389
771,0.002226677816848193,0.6391837481698389
772,0.002226677816848193,0.6393667642752562
773,0.0022317155494654965,0.6393667642752562
774,0.0022317155494654965,0.6406478770131772
775,0.0022367532820828,0.6406478770131772
776,0.0022367532820828,0.641196925329429
777,0.002241791014700104,0.641196925329429
778,0.002241791014700104,0.6412884333821376
779,0.002251866479934711,0.6412884333821376
780,0.002251866479934711,0.6415629575402635
781,0.0022569042125520147,0.6415629575402635
782,0.0022569042125520147,0.6417459736456809
783,0.0022669796777866217,0.6417459736456809
784,0.0022669796777866217,0.6418374816983895
785,0.0022720174104039256,0.6418374816983895
786,0.0022720174104039256,0.6422950219619327
787,0.002277055143021229,0.6422950219619327
788,0.002277055143021229,0.6424780380673499
789,0.0022820928756385325,0.6424780380673499
790,0.0022820928756385325,0.6431185944363104
791,0.0022871306082558364,0.6431185944363104
792,0.0022871306082558364,0.6435761346998536
793,0.00229216834087314,0.6435761346998536
794,0.00229216834087314,0.6438506588579795
795,0.0022972060734904433,0.6438506588579795
796,0.0022972060734904433,0.64449121522694
797,0.0023022438061077472,0.64449121522694
798,0.0023022438061077472,0.6453147877013177
799,0.0023072815387250507,0.6453147877013177
800,0.0023072815387250507,0.6454062957540263
801,0.002312319271342354,0.6454062957540263
802,0.002312319271342354,0.6454978038067349
803,0.002327432469194265,0.6454978038067349
804,0.002327432469194265,0.6460468521229868
805,0.0023324702018115684,0.6460468521229868
806,0.0023324702018115684,0.6462298682284041
807,0.002342545667046176,0.6462298682284041
808,0.002342545667046176,0.6466874084919473
809,0.0023475833996634793,0.6466874084919473
810,0.0023475833996634793,0.6470534407027818
811,0.002352621132280783,0.6470534407027818
812,0.002352621132280783,0.6473279648609077
813,0.0023576588648980866,0.6473279648609077
814,0.0023576588648980866,0.6476024890190337
815,0.00236269659751539,0.6476024890190337
816,0.00236269659751539,0.6476939970717424
817,0.002377809795367301,0.6476939970717424
818,0.002377809795367301,0.647785505124451
819,0.0023929229932192118,0.647785505124451
820,0.0023929229932192118,0.6480600292825769
821,0.0023979607258365157,0.6480600292825769
822,0.0023979607258365157,0.6489751098096632
823,0.002402998458453819,0.6489751098096632
824,0.002402998458453819,0.6491581259150805
825,0.0024130739236884265,0.6491581259150805
826,0.0024130739236884265,0.6493411420204978
827,0.0024281871215403373,0.6493411420204978
828,0.0024281871215403373,0.6497071742313324
829,0.0024483380520095516,0.6497071742313324
830,0.0024483380520095516,0.6498901903367497
831,0.002453375784626855,0.6498901903367497
832,0.002453375784626855,0.6500732064421669
833,0.0024584135172441585,0.6500732064421669
834,0.0024584135172441585,0.6503477306002928
835,0.0024634512498614624,0.6503477306002928
836,0.0024634512498614624,0.6504392386530015
837,0.0024836021803306767,0.6504392386530015
838,0.0024836021803306767,0.6505307467057101
839,0.00248863991294798,0.6505307467057101
840,0.00248863991294798,0.6507137628111274
841,0.002493677645565284,0.6507137628111274
842,0.002493677645565284,0.6515373352855052
843,0.0024987153781825876,0.6515373352855052
844,0.0024987153781825876,0.6519948755490483
845,0.0025138285760344984,0.6519948755490483
846,0.0025138285760344984,0.6521778916544656
847,0.002518866308651802,0.6521778916544656
848,0.002518866308651802,0.6525439238653001
849,0.0025541304369729274,0.6525439238653001
850,0.0025541304369729274,0.6526354319180088
851,0.002559168169590231,0.6526354319180088
852,0.002559168169590231,0.6534590043923866
853,0.0025642059022075343,0.6534590043923866
854,0.0025642059022075343,0.6536420204978038
855,0.0025692436348248382,0.6536420204978038
856,0.0025692436348248382,0.6538250366032211
857,0.0025742813674421417,0.6538250366032211
858,0.0025742813674421417,0.6539165446559297
859,0.002579319100059445,0.6539165446559297
860,0.002579319100059445,0.654099560761347
861,0.002584356832676749,0.654099560761347
862,0.002584356832676749,0.6542825768667643
863,0.0025893945652940525,0.6542825768667643
864,0.0025893945652940525,0.6546486090775988
865,0.002594432297911356,0.6546486090775988
866,0.002594432297911356,0.6547401171303074
867,0.0025994700305286595,0.6547401171303074
868,0.0025994700305286595,0.655106149341142
869,0.0026045077631459634,0.655106149341142
870,0.0026045077631459634,0.6552891654465594
871,0.002609545495763267,0.6552891654465594
872,0.002609545495763267,0.6557467057101025
873,0.002619620960997874,0.6557467057101025
874,0.002619620960997874,0.6559297218155198
875,0.0026246586936151776,0.6559297218155198
876,0.0026246586936151776,0.656387262079063
877,0.002629696426232481,0.656387262079063
878,0.002629696426232481,0.6570278184480234
879,0.0026397718914670885,0.6570278184480234
880,0.0026397718914670885,0.657393850658858
881,0.002649847356701696,0.657393850658858
882,0.002649847356701696,0.6576683748169839
883,0.0026649605545536067,0.6576683748169839
884,0.0026649605545536067,0.6579428989751098
885,0.00266999828717091,0.6579428989751098
886,0.00266999828717091,0.6580344070278185
887,0.0026750360197882136,0.6580344070278185
888,0.0026750360197882136,0.6582174231332357
889,0.0026800737524055175,0.6582174231332357
890,0.0026800737524055175,0.6583089311859444
891,0.002685111485022821,0.6583089311859444
892,0.002685111485022821,0.6586749633967789
893,0.0026901492176401244,0.6586749633967789
894,0.0026901492176401244,0.6591325036603221
895,0.002710300148109339,0.6591325036603221
896,0.002710300148109339,0.6592240117130308
897,0.0027153378807266426,0.6592240117130308
898,0.0027153378807266426,0.6601390922401171
899,0.002720375613343946,0.6601390922401171
900,0.002720375613343946,0.6606881405563689
901,0.0027254133459612495,0.6606881405563689
902,0.0027254133459612495,0.6611456808199122
903,0.0027304510785785534,0.6611456808199122
904,0.0027304510785785534,0.6613286969253295
905,0.002735488811195857,0.6613286969253295
906,0.002735488811195857,0.6614202049780381
907,0.0027405265438131604,0.6614202049780381
908,0.0027405265438131604,0.661694729136164
909,0.0027455642764304643,0.661694729136164
910,0.0027455642764304643,0.6617862371888726
911,0.0027506020090477677,0.6617862371888726
912,0.0027506020090477677,0.6619692532942899
913,0.002755639741665071,0.6619692532942899
914,0.002755639741665071,0.6620607613469985
915,0.002760677474282375,0.6620607613469985
916,0.002760677474282375,0.6626098096632503
917,0.0027657152068996786,0.6626098096632503
918,0.0027657152068996786,0.662701317715959
919,0.0027808284047515894,0.662701317715959
920,0.0027808284047515894,0.6627928257686676
921,0.0027909038699861968,0.6627928257686676
922,0.0027909038699861968,0.6629758418740849
923,0.0028060170678381076,0.6629758418740849
924,0.0028060170678381076,0.6631588579795022
925,0.002811054800455411,0.6631588579795022
926,0.002811054800455411,0.6633418740849195
927,0.0028211302656900184,0.6633418740849195
928,0.0028211302656900184,0.6640739385065886
929,0.002826167998307322,0.6640739385065886
930,0.002826167998307322,0.6642569546120058
931,0.0028312057309246253,0.6642569546120058
932,0.0028312057309246253,0.6645314787701317
933,0.0028362434635419292,0.6645314787701317
934,0.0028362434635419292,0.6648060029282576
935,0.0028412811961592327,0.6648060029282576
936,0.0028412811961592327,0.6648975109809663
937,0.002846318928776536,0.6648975109809663
938,0.002846318928776536,0.6649890190336749
939,0.00285135666139384,0.6649890190336749
940,0.00285135666139384,0.6650805270863837
941,0.0028563943940111435,0.6650805270863837
942,0.0028563943940111435,0.6651720351390923
943,0.002861432126628447,0.6651720351390923
944,0.002861432126628447,0.6654465592972182
945,0.0028715075918630544,0.6654465592972182
946,0.0028715075918630544,0.6656295754026355
947,0.002876545324480358,0.6656295754026355
948,0.002876545324480358,0.6657210834553441
949,0.002901733987566876,0.6657210834553441
950,0.002901733987566876,0.6662701317715959
951,0.0029067717201841795,0.6662701317715959
952,0.0029067717201841795,0.6664531478770132
953,0.002911809452801483,0.6664531478770132
954,0.002911809452801483,0.6666361639824304
955,0.002916847185418787,0.6666361639824304
956,0.002916847185418787,0.666727672035139
957,0.0029218849180360903,0.666727672035139
958,0.0029218849180360903,0.6668191800878477
959,0.002936998115888001,0.6668191800878477
960,0.002936998115888001,0.6669106881405563
961,0.0029420358485053046,0.6669106881405563
962,0.0029420358485053046,0.6670021961932651
963,0.0029470735811226085,0.6670021961932651
964,0.0029470735811226085,0.6670937042459737
965,0.002952111313739912,0.6670937042459737
966,0.002952111313739912,0.6674597364568082
967,0.002967224511591823,0.6674597364568082
968,0.002967224511591823,0.6676427525622255
969,0.002987375442061037,0.6676427525622255
970,0.002987375442061037,0.6678257686676428
971,0.0030075263725302514,0.6678257686676428
972,0.0030075263725302514,0.6679172767203514
973,0.0030176018377648588,0.6679172767203514
974,0.0030176018377648588,0.66800878477306
975,0.003022639570382162,0.66800878477306
976,0.003022639570382162,0.6682833089311859
977,0.003027677302999466,0.6682833089311859
978,0.003027677302999466,0.6688323572474377
979,0.0030327150356167696,0.6688323572474377
980,0.0030327150356167696,0.6691068814055637
981,0.003042790500851377,0.6691068814055637
982,0.003042790500851377,0.6691983894582724
983,0.0030478282334686804,0.6691983894582724
984,0.0030478282334686804,0.6693814055636896
985,0.003052865966085984,0.6693814055636896
986,0.003052865966085984,0.6696559297218155
987,0.0030579036987032878,0.6696559297218155
988,0.0030579036987032878,0.6697474377745242
989,0.0030629414313205912,0.6697474377745242
990,0.0030629414313205912,0.6698389458272328
991,0.0030679791639378947,0.6698389458272328
992,0.0030679791639378947,0.6700219619326501
993,0.0030830923617898055,0.6700219619326501
994,0.0030830923617898055,0.6701134699853587
995,0.0030881300944071094,0.6701134699853587
996,0.0030881300944071094,0.6702049780380673
997,0.003093167827024413,0.6702049780380673
998,0.003093167827024413,0.6703879941434846
999,0.0030982055596417164,0.6703879941434846
1000,0.0030982055596417164,0.6705710102489019
1001,0.0031032432922590203,0.6705710102489019
1002,0.0031032432922590203,0.6706625183016105
1003,0.003113318757493627,0.6706625183016105
1004,0.003113318757493627,0.6707540263543191
1005,0.003118356490110931,0.6707540263543191
1006,0.003118356490110931,0.6708455344070278
1007,0.0031334696879628415,0.6708455344070278
1008,0.0031334696879628415,0.6712115666178624
1009,0.0031385074205801454,0.6712115666178624
1010,0.0031385074205801454,0.6714860907759883
1011,0.003143545153197449,0.6714860907759883
1012,0.003143545153197449,0.6716691068814056
1013,0.003153620618432056,0.6716691068814056
1014,0.003153620618432056,0.6719436310395315
1015,0.0031586583510493597,0.6719436310395315
1016,0.0031586583510493597,0.6720351390922401
1017,0.0031737715489012705,0.6720351390922401
1018,0.0031737715489012705,0.6722181551976574
1019,0.003183847014135878,0.6722181551976574
1020,0.003183847014135878,0.672309663250366
1021,0.0031888847467531813,0.672309663250366
1022,0.0031888847467531813,0.6724011713030746
1023,0.003193922479370485,0.6724011713030746
1024,0.003193922479370485,0.6728587115666179
1025,0.003203997944605092,0.6728587115666179
1026,0.003203997944605092,0.6729502196193266
1027,0.0032090356772223956,0.6729502196193266
1028,0.0032090356772223956,0.6730417276720352
1029,0.0032140734098396995,0.6730417276720352
1030,0.0032140734098396995,0.6731332357247438
1031,0.003234224340308914,0.6731332357247438
1032,0.003234224340308914,0.6733162518301611
1033,0.0032392620729262173,0.6733162518301611
1034,0.0032392620729262173,0.6734077598828697
1035,0.003254375270778128,0.6734077598828697
1036,0.003254375270778128,0.6734992679355783
1037,0.0032795639338646463,0.6734992679355783
1038,0.0032795639338646463,0.673590775988287
1039,0.0032997148643338606,0.673590775988287
1040,0.0032997148643338606,0.6737737920937042
1041,0.003304752596951164,0.6737737920937042
1042,0.003304752596951164,0.6740483162518301
1043,0.0033148280621857714,0.6740483162518301
1044,0.0033148280621857714,0.6742313323572474
1045,0.003324903527420379,0.6742313323572474
1046,0.003324903527420379,0.674322840409956
1047,0.0033349789926549857,0.674322840409956
1048,0.0033349789926549857,0.6747803806734992
1049,0.003345054457889593,0.6747803806734992
1050,0.003345054457889593,0.6750549048316252
1051,0.0033551299231242004,0.6750549048316252
1052,0.0033551299231242004,0.6751464128843339
1053,0.0033652053883588074,0.6751464128843339
1054,0.0033652053883588074,0.6752379209370425
1055,0.0033752808535934147,0.6752379209370425
1056,0.0033752808535934147,0.6753294289897511
1057,0.003385356318828022,0.6753294289897511
1058,0.003385356318828022,0.6756954612005857
1059,0.003395431784062629,0.6756954612005857
1060,0.003395431784062629,0.6764275256222547
1061,0.0034004695166799325,0.6764275256222547
1062,0.0034004695166799325,0.6765190336749634
1063,0.0034055072492972364,0.6765190336749634
1064,0.0034055072492972364,0.6767020497803806
1065,0.0034206204471491472,0.6767020497803806
1066,0.0034206204471491472,0.6771595900439239
1067,0.0034256581797664507,0.6771595900439239
1068,0.0034256581797664507,0.6773426061493412
1069,0.003430695912383754,0.6773426061493412
1070,0.003430695912383754,0.6774341142020498
1071,0.003435733645001058,0.6774341142020498
1072,0.003435733645001058,0.6775256222547584
1073,0.003450846842852969,0.6775256222547584
1074,0.003450846842852969,0.6777086383601757
1075,0.0034558845754702723,0.6777086383601757
1076,0.0034558845754702723,0.6778001464128843
1077,0.0034659600407048797,0.6778001464128843
1078,0.0034659600407048797,0.6779831625183016
1079,0.003470997773322183,0.6779831625183016
1080,0.003470997773322183,0.6783491947291361
1081,0.0034760355059394866,0.6783491947291361
1082,0.0034760355059394866,0.6784407027818448
1083,0.0034810732385567905,0.6784407027818448
1084,0.0034810732385567905,0.6785322108345534
1085,0.003486110971174094,0.6785322108345534
1086,0.003486110971174094,0.6788067349926794
1087,0.0034911487037913975,0.6788067349926794
1088,0.0034911487037913975,0.6795387994143485
1089,0.0034961864364087014,0.6795387994143485
1090,0.0034961864364087014,0.679904831625183
1091,0.003501224169026005,0.679904831625183
1092,0.003501224169026005,0.6804538799414348
1093,0.0035062619016433083,0.6804538799414348
1094,0.0035062619016433083,0.6807284040995608
1095,0.003511299634260612,0.6807284040995608
1096,0.003511299634260612,0.6808199121522694
1097,0.0035163373668779157,0.6808199121522694
1098,0.0035163373668779157,0.6815519765739385
1099,0.003521375099495219,0.6815519765739385
1100,0.003521375099495219,0.6816434846266471
1101,0.0035264128321125226,0.6816434846266471
1102,0.0035264128321125226,0.6818265007320644
1103,0.0035314505647298265,0.6818265007320644
1104,0.0035314505647298265,0.681918008784773
1105,0.00353648829734713,0.681918008784773
1106,0.00353648829734713,0.6821010248901903
1107,0.0035465637625817373,0.6821010248901903
1108,0.0035465637625817373,0.6821925329428989
1109,0.0035566392278163442,0.6821925329428989
1110,0.0035566392278163442,0.6823755490483162
1111,0.003561676960433648,0.6823755490483162
1112,0.003561676960433648,0.6826500732064422
1113,0.0035667146930509516,0.6826500732064422
1114,0.0035667146930509516,0.6828330893118595
1115,0.003571752425668255,0.6828330893118595
1116,0.003571752425668255,0.6829245973645681
1117,0.003576790158285559,0.6829245973645681
1118,0.003576790158285559,0.6831076134699854
1119,0.00359190335613747,0.6831076134699854
1120,0.00359190335613747,0.6832906295754027
1121,0.0035969410887547733,0.6832906295754027
1122,0.0035969410887547733,0.6836566617862372
1123,0.0036070165539893806,0.6836566617862372
1124,0.0036070165539893806,0.6839311859443631
1125,0.003612054286606684,0.6839311859443631
1126,0.003612054286606684,0.6841142020497804
1127,0.0036221297518412915,0.6841142020497804
1128,0.0036221297518412915,0.6842972181551976
1129,0.0036372429496932023,0.6842972181551976
1130,0.0036372429496932023,0.6844802342606149
1131,0.003652356147545113,0.6844802342606149
1132,0.003652356147545113,0.6847547584187409
1133,0.0036674693453970235,0.6847547584187409
1134,0.0036674693453970235,0.6848462664714495
1135,0.0036725070780143274,0.6848462664714495
1136,0.0036725070780143274,0.6850292825768668
1137,0.0036825825432489343,0.6850292825768668
1138,0.0036825825432489343,0.6851207906295754
1139,0.0036876202758662382,0.6851207906295754
1140,0.0036876202758662382,0.6856698389458272
1141,0.003712808938952756,0.6856698389458272
1142,0.003712808938952756,0.6863103953147877
1143,0.00371784667157006,0.6863103953147877
1144,0.00371784667157006,0.6865849194729137
1145,0.0037329598694219707,0.6865849194729137
1146,0.0037329598694219707,0.6867679355783309
1147,0.003737997602039274,0.6867679355783309
1148,0.003737997602039274,0.6868594436310396
1149,0.0037430353346565776,0.6868594436310396
1150,0.0037430353346565776,0.6871339677891655
1151,0.0037480730672738815,0.6871339677891655
1152,0.0037480730672738815,0.6875915080527086
1153,0.003753110799891185,0.6875915080527086
1154,0.003753110799891185,0.6879575402635432
1155,0.0037631862651257924,0.6879575402635432
1156,0.0037631862651257924,0.6883235724743777
1157,0.003768223997743096,0.6883235724743777
1158,0.003768223997743096,0.6886896046852123
1159,0.0037732617303603993,0.6886896046852123
1160,0.0037732617303603993,0.688781112737921
1161,0.0037833371955950067,0.688781112737921
1162,0.0037833371955950067,0.6889641288433382
1163,0.0037984503934469175,0.6889641288433382
1164,0.0037984503934469175,0.6896046852122987
1165,0.003803488126064221,0.6896046852122987
1166,0.003803488126064221,0.6897877013177159
1167,0.003818601323916132,0.6897877013177159
1168,0.003818601323916132,0.6899707174231332
1169,0.0038337145217680426,0.6899707174231332
1170,0.0038337145217680426,0.6901537335285505
1171,0.003838752254385346,0.6901537335285505
1172,0.003838752254385346,0.6902452415812591
1173,0.003858903184854561,0.6902452415812591
1174,0.003858903184854561,0.6904282576866764
1175,0.0038639409174718643,0.6904282576866764
1176,0.0038639409174718643,0.6905197657393851
1177,0.003879054115323775,0.6905197657393851
1178,0.003879054115323775,0.6906112737920937
1179,0.0038840918479410786,0.6906112737920937
1180,0.0038840918479410786,0.690794289897511
1181,0.0038891295805583825,0.690794289897511
1182,0.0038891295805583825,0.6911603221083455
1183,0.0038992050457929894,0.6911603221083455
1184,0.0038992050457929894,0.6912518301610542
1185,0.003909280511027596,0.6912518301610542
1186,0.003909280511027596,0.6914348462664714
1187,0.003919355976262204,0.6914348462664714
1188,0.003919355976262204,0.6915263543191801
1189,0.003929431441496811,0.6915263543191801
1190,0.003929431441496811,0.6916178623718887
1191,0.003934469174114115,0.6916178623718887
1192,0.003934469174114115,0.6917093704245973
1193,0.003939506906731418,0.6917093704245973
1194,0.003939506906731418,0.691800878477306
1195,0.003944544639348722,0.691800878477306
1196,0.003944544639348722,0.6918923865300146
1197,0.003949582371966026,0.6918923865300146
1198,0.003949582371966026,0.6919838945827232
1199,0.00396973330243524,0.6919838945827232
1200,0.00396973330243524,0.6922584187408491
1201,0.0039747710350525435,0.6922584187408491
1202,0.0039747710350525435,0.6923499267935578
1203,0.0039798087676698474,0.6923499267935578
1204,0.0039798087676698474,0.6925329428989752
1205,0.003989884232904454,0.6925329428989752
1206,0.003989884232904454,0.6927159590043924
1207,0.003999959698139061,0.6927159590043924
1208,0.003999959698139061,0.6928074670571011
1209,0.004010035163373669,0.6928074670571011
1210,0.004010035163373669,0.6928989751098097
1211,0.004020110628608276,0.6928989751098097
1212,0.004020110628608276,0.6933565153733529
1213,0.00402514836122558,0.6933565153733529
1214,0.00402514836122558,0.6935395314787701
1215,0.004035223826460187,0.6935395314787701
1216,0.004035223826460187,0.6937225475841874
1217,0.004040261559077491,0.6937225475841874
1218,0.004040261559077491,0.693814055636896
1219,0.004055374756929402,0.693814055636896
1220,0.004055374756929402,0.6940885797950219
1221,0.004060412489546705,0.6940885797950219
1222,0.004060412489546705,0.6943631039531479
1223,0.0040755256873986154,0.6943631039531479
1224,0.0040755256873986154,0.6944546120058566
1225,0.004080563420015919,0.6944546120058566
1226,0.004080563420015919,0.6950036603221084
1227,0.004085601152633223,0.6950036603221084
1228,0.004085601152633223,0.695095168374817
1229,0.00409567661786783,0.695095168374817
1230,0.00409567661786783,0.6953696925329429
1231,0.004100714350485134,0.6953696925329429
1232,0.004100714350485134,0.6956442166910688
1233,0.004105752083102437,0.6956442166910688
1234,0.004105752083102437,0.6957357247437774
1235,0.004110789815719741,0.6957357247437774
1236,0.004110789815719741,0.696376281112738
1237,0.004120865280954348,0.696376281112738
1238,0.004120865280954348,0.6969253294289898
1239,0.004125903013571652,0.6969253294289898
1240,0.004125903013571652,0.6979319180087847
1241,0.004130940746188955,0.6979319180087847
1242,0.004130940746188955,0.6982979502196194
1243,0.004146053944040866,0.6982979502196194
1244,0.004146053944040866,0.6984809663250366
1245,0.0041611671418927765,0.6984809663250366
1246,0.0041611671418927765,0.6986639824304539
1247,0.004171242607127384,0.6986639824304539
1248,0.004171242607127384,0.6988469985358712
1249,0.004176280339744687,0.6988469985358712
1250,0.004176280339744687,0.6990300146412884
1251,0.004181318072361991,0.6990300146412884
1252,0.004181318072361991,0.6994875549048316
1253,0.004206506735448509,0.6994875549048316
1254,0.004206506735448509,0.6995790629575402
1255,0.004211544468065813,0.6995790629575402
1256,0.004211544468065813,0.6998535871156661
1257,0.004216582200683117,0.6998535871156661
1258,0.004216582200683117,0.7000366032210834
1259,0.004231695398535028,0.7000366032210834
1260,0.004231695398535028,0.7005856515373353
1261,0.0042417708637696346,0.7005856515373353
1262,0.0042417708637696346,0.700677159590044
1263,0.0042468085963869385,0.700677159590044
1264,0.0042468085963869385,0.7008601756954612
1265,0.004261921794238849,0.7008601756954612
1266,0.004261921794238849,0.7009516837481699
1267,0.004266959526856152,0.7009516837481699
1268,0.004266959526856152,0.7011346998535871
1269,0.004271997259473456,0.7011346998535871
1270,0.004271997259473456,0.7012262079062958
1271,0.004287110457325367,0.7012262079062958
1272,0.004287110457325367,0.7015007320644217
1273,0.004292148189942671,0.7015007320644217
1274,0.004292148189942671,0.7016837481698389
1275,0.004297185922559974,0.7016837481698389
1276,0.004297185922559974,0.7017752562225475
1277,0.004302223655177278,0.7017752562225475
1278,0.004302223655177278,0.7018667642752562
1279,0.004312299120411885,0.7018667642752562
1280,0.004312299120411885,0.7019582723279648
1281,0.004317336853029189,0.7019582723279648
1282,0.004317336853029189,0.7023243045387995
1283,0.004322374585646493,0.7023243045387995
1284,0.004322374585646493,0.7025073206442167
1285,0.004327412318263796,0.7025073206442167
1286,0.004327412318263796,0.7025988286969254
1287,0.0043324500508810995,0.7025988286969254
1288,0.0043324500508810995,0.7027818448023426
1289,0.0043425255161157065,0.7027818448023426
1290,0.0043425255161157065,0.7029648609077599
1291,0.00434756324873301,0.7029648609077599
1292,0.00434756324873301,0.7030563689604685
1293,0.004352600981350314,0.7030563689604685
1294,0.004352600981350314,0.7031478770131772
1295,0.004367714179202225,0.7031478770131772
1296,0.004367714179202225,0.7033308931185944
1297,0.004372751911819528,0.7033308931185944
1298,0.004372751911819528,0.7035139092240117
1299,0.004377789644436832,0.7035139092240117
1300,0.004377789644436832,0.7036054172767203
1301,0.004382827377054136,0.7036054172767203
1302,0.004382827377054136,0.703696925329429
1303,0.004387865109671439,0.703696925329429
1304,0.004387865109671439,0.7037884333821376
1305,0.004392902842288743,0.7037884333821376
1306,0.004392902842288743,0.7038799414348462
1307,0.004397940574906046,0.7038799414348462
1308,0.004397940574906046,0.7043374816983895
1309,0.004413053772757957,0.7043374816983895
1310,0.004413053772757957,0.7044289897510981
1311,0.004418091505375261,0.7044289897510981
1312,0.004418091505375261,0.7045204978038068
1313,0.0044231292379925645,0.7045204978038068
1314,0.0044231292379925645,0.7046120058565154
1315,0.004433204703227171,0.7046120058565154
1316,0.004433204703227171,0.704703513909224
1317,0.004438242435844475,0.704703513909224
1318,0.004438242435844475,0.7049780380673499
1319,0.004448317901079082,0.7049780380673499
1320,0.004448317901079082,0.7051610541727672
1321,0.004483582029400208,0.7051610541727672
1322,0.004483582029400208,0.7052525622254758
1323,0.004493657494634815,0.7052525622254758
1324,0.004493657494634815,0.7053440702781845
1325,0.004503732959869422,0.7053440702781845
1326,0.004503732959869422,0.7054355783308931
1327,0.0045138084251040295,0.7054355783308931
1328,0.0045138084251040295,0.7055270863836017
1329,0.00452892162295594,0.7055270863836017
1330,0.00452892162295594,0.7058931185944363
1331,0.004533959355573243,0.7058931185944363
1332,0.004533959355573243,0.7059846266471449
1333,0.004544034820807851,0.7059846266471449
1334,0.004544034820807851,0.7064421669106882
1335,0.004549072553425154,0.7064421669106882
1336,0.004549072553425154,0.7065336749633968
1337,0.004554110286042458,0.7065336749633968
1338,0.004554110286042458,0.7067166910688141
1339,0.004569223483894369,0.7067166910688141
1340,0.004569223483894369,0.7068081991215227
1341,0.00458433668174628,0.7068081991215227
1342,0.00458433668174628,0.7070827232796486
1343,0.004589374414363584,0.7070827232796486
1344,0.004589374414363584,0.7074487554904831
1345,0.004594412146980887,0.7074487554904831
1346,0.004594412146980887,0.7076317715959004
1347,0.0045994498795981905,0.7076317715959004
1348,0.0045994498795981905,0.707723279648609
1349,0.0046095253448327975,0.707723279648609
1350,0.0046095253448327975,0.7081808199121523
1351,0.004614563077450101,0.7081808199121523
1352,0.004614563077450101,0.708272327964861
1353,0.004619600810067405,0.708272327964861
1354,0.004619600810067405,0.7084553440702782
1355,0.004629676275302012,0.7084553440702782
1356,0.004629676275302012,0.7085468521229868
1357,0.004639751740536619,0.7085468521229868
1358,0.004639751740536619,0.7089128843338214
1359,0.004644789473153923,0.7089128843338214
1360,0.004644789473153923,0.7093704245973645
1361,0.004649827205771226,0.7093704245973645
1362,0.004649827205771226,0.7098279648609077
1363,0.00465486493838853,0.7098279648609077
1364,0.00465486493838853,0.7100109809663251
1365,0.004675015868857745,0.7100109809663251
1366,0.004675015868857745,0.710285505124451
1367,0.004685091334092352,0.710285505124451
1368,0.004685091334092352,0.7104685212298683
1369,0.0046901290667096555,0.7104685212298683
1370,0.0046901290667096555,0.7109260614934114
1371,0.0047002045319442624,0.7109260614934114
1372,0.0047002045319442624,0.71101756954612
1373,0.004705242264561566,0.71101756954612
1374,0.004705242264561566,0.7112005856515373
1375,0.004710279997178869,0.7112005856515373
1376,0.004710279997178869,0.7114751098096632
1377,0.004715317729796173,0.7114751098096632
1378,0.004715317729796173,0.7115666178623719
1379,0.00472539319503078,0.7115666178623719
1380,0.00472539319503078,0.7122071742313324
1381,0.004730430927648084,0.7122071742313324
1382,0.004730430927648084,0.712298682284041
1383,0.00476569505596921,0.712298682284041
1384,0.00476569505596921,0.7125732064421669
1385,0.004800959184290334,0.7125732064421669
1386,0.004800959184290334,0.7128477306002928
1387,0.004800959184290334,0.7130307467057101
1388,0.004805996916907638,0.7130307467057101
1389,0.004805996916907638,0.713305270863836
1390,0.004811034649524942,0.713305270863836
1391,0.004811034649524942,0.7134882869692533
1392,0.004816072382142245,0.7134882869692533
1393,0.004816072382142245,0.7136713030746705
1394,0.004821110114759549,0.7136713030746705
1395,0.004821110114759549,0.7139458272327965
1396,0.004826147847376853,0.7139458272327965
1397,0.004826147847376853,0.7143118594436311
1398,0.004831185579994156,0.7143118594436311
1399,0.004831185579994156,0.7144033674963397
1400,0.004856374243080675,0.7144033674963397
1401,0.004856374243080675,0.7147693997071742
1402,0.0048714874409325854,0.7147693997071742
1403,0.0048714874409325854,0.7152269399707174
1404,0.004891638371401799,0.7152269399707174
1405,0.004891638371401799,0.7155014641288433
1406,0.004901713836636407,0.7155014641288433
1407,0.004901713836636407,0.7155929721815519
1408,0.004911789301871014,0.7155929721815519
1409,0.004911789301871014,0.7156844802342606
1410,0.004921864767105621,0.7156844802342606
1411,0.004921864767105621,0.7157759882869692
1412,0.004926902499722925,0.7157759882869692
1413,0.004926902499722925,0.7159590043923866
1414,0.004936977964957532,0.7159590043923866
1415,0.004936977964957532,0.7160505124450952
1416,0.004942015697574836,0.7160505124450952
1417,0.004942015697574836,0.7163250366032211
1418,0.004947053430192139,0.7163250366032211
1419,0.004947053430192139,0.716599560761347
1420,0.0049621666280440496,0.716599560761347
1421,0.0049621666280440496,0.7167825768667643
1422,0.00497727982589596,0.7167825768667643
1423,0.00497727982589596,0.7169655929721815
1424,0.004982317558513264,0.7169655929721815
1425,0.004982317558513264,0.7171486090775988
1426,0.004992393023747871,0.7171486090775988
1427,0.004992393023747871,0.7172401171303074
1428,0.005012543954217086,0.7172401171303074
1429,0.005012543954217086,0.7173316251830161
1430,0.00501758168683439,0.7173316251830161
1431,0.00501758168683439,0.717606149341142
1432,0.005022619419451693,0.717606149341142
1433,0.005022619419451693,0.7177891654465594
1434,0.005027657152068997,0.7177891654465594
1435,0.005027657152068997,0.7180636896046853
1436,0.005042770349920908,0.7180636896046853
1437,0.005042770349920908,0.7183382137628112
1438,0.005057883547772818,0.7183382137628112
1439,0.005057883547772818,0.7185212298682284
1440,0.005072996745624729,0.7185212298682284
1441,0.005072996745624729,0.7187042459736457
1442,0.005078034478242033,0.7187042459736457
1443,0.005078034478242033,0.7197108345534406
1444,0.00508810994347664,0.7197108345534406
1445,0.00508810994347664,0.719893850658858
1446,0.005098185408711247,0.719893850658858
1447,0.005098185408711247,0.7201683748169839
1448,0.005103223141328551,0.7201683748169839
1449,0.005103223141328551,0.7202598828696926
1450,0.005108260873945855,0.7202598828696926
1451,0.005108260873945855,0.7206259150805271
1452,0.005123374071797766,0.7206259150805271
1453,0.005123374071797766,0.7207174231332357
1454,0.005148562734884283,0.7207174231332357
1455,0.005148562734884283,0.720900439238653
1456,0.005168713665353498,0.720900439238653
1457,0.005168713665353498,0.7210834553440703
1458,0.005183826863205408,0.7210834553440703
1459,0.005183826863205408,0.7211749633967789
1460,0.005188864595822712,0.7211749633967789
1461,0.005188864595822712,0.7213579795021962
1462,0.005193902328440016,0.7213579795021962
1463,0.005193902328440016,0.7214494875549048
1464,0.005198940061057319,0.7214494875549048
1465,0.005198940061057319,0.7218155197657394
1466,0.005209015526291927,0.7218155197657394
1467,0.005209015526291927,0.7220900439238653
1468,0.00521405325890923,0.7220900439238653
1469,0.00521405325890923,0.7223645680819912
1470,0.005219090991526534,0.7223645680819912
1471,0.005219090991526534,0.7224560761346999
1472,0.0052241287241438375,0.7224560761346999
1473,0.0052241287241438375,0.7226390922401171
1474,0.005244279654613051,0.7226390922401171
1475,0.005244279654613051,0.7227306002928258
1476,0.005254355119847659,0.7227306002928258
1477,0.005254355119847659,0.7230966325036603
1478,0.005264430585082266,0.7230966325036603
1479,0.005264430585082266,0.7231881405563689
1480,0.00526946831769957,0.7231881405563689
1481,0.00526946831769957,0.7232796486090776
1482,0.005279543782934177,0.7232796486090776
1483,0.005279543782934177,0.7235541727672035
1484,0.005294656980786088,0.7235541727672035
1485,0.005294656980786088,0.7238286969253295
1486,0.005304732446020695,0.7238286969253295
1487,0.005304732446020695,0.7239202049780381
1488,0.005309770178637999,0.7239202049780381
1489,0.005309770178637999,0.7240117130307467
1490,0.005329921109107213,0.7240117130307467
1491,0.005329921109107213,0.7244692532942899
1492,0.00533999657434182,0.7244692532942899
1493,0.00533999657434182,0.7245607613469985
1494,0.005345034306959124,0.7245607613469985
1495,0.005345034306959124,0.7246522693997072
1496,0.005350072039576427,0.7246522693997072
1497,0.005350072039576427,0.7247437774524158
1498,0.005355109772193731,0.7247437774524158
1499,0.005355109772193731,0.7248352855051244
1500,0.005380298435280249,0.7248352855051244
1501,0.005380298435280249,0.7250183016105417
1502,0.00539541163313216,0.7250183016105417
1503,0.00539541163313216,0.7251098096632503
1504,0.005400449365749464,0.7251098096632503
1505,0.005400449365749464,0.725201317715959
1506,0.0054105248309840705,0.725201317715959
1507,0.0054105248309840705,0.7252928257686676
1508,0.005420600296218678,0.7252928257686676
1509,0.005420600296218678,0.7257503660322109
1510,0.005435713494070589,0.7257503660322109
1511,0.005435713494070589,0.7260248901903368
1512,0.005440751226687892,0.7260248901903368
1513,0.005440751226687892,0.7263909224011713
1514,0.005445788959305196,0.7263909224011713
1515,0.005445788959305196,0.7265739385065886
1516,0.005455864424539803,0.7265739385065886
1517,0.005455864424539803,0.7266654465592972
1518,0.005460902157157107,0.7266654465592972
1519,0.005460902157157107,0.7267569546120058
1520,0.005470977622391714,0.7267569546120058
1521,0.005470977622391714,0.7268484626647145
1522,0.005481053087626321,0.7268484626647145
1523,0.005481053087626321,0.7270314787701317
1524,0.005496166285478232,0.7270314787701317
1525,0.005496166285478232,0.7273060029282576
1526,0.005506241750712839,0.7273060029282576
1527,0.005506241750712839,0.7273975109809663
1528,0.005516317215947446,0.7273975109809663
1529,0.005516317215947446,0.7274890190336749
1530,0.00552135494856475,0.7274890190336749
1531,0.00552135494856475,0.7275805270863837
1532,0.005541505879033964,0.7275805270863837
1533,0.005541505879033964,0.7277635431918009
1534,0.005546543611651268,0.7277635431918009
1535,0.005546543611651268,0.7280380673499268
1536,0.005566694542120483,0.7280380673499268
1537,0.005566694542120483,0.7281295754026355
1538,0.005571732274737786,0.7281295754026355
1539,0.005571732274737786,0.7283125915080527
1540,0.00557677000735509,0.7283125915080527
1541,0.00557677000735509,0.7287701317715959
1542,0.0055818077399723935,0.7287701317715959
1543,0.0055818077399723935,0.7288616398243045
1544,0.0055868454725896965,0.7288616398243045
1545,0.0055868454725896965,0.7290446559297218
1546,0.0055918832052070004,0.7290446559297218
1547,0.0055918832052070004,0.7291361639824304
1548,0.005596920937824304,0.7291361639824304
1549,0.005596920937824304,0.729227672035139
1550,0.005612034135676215,0.729227672035139
1551,0.005612034135676215,0.7296852122986823
1552,0.005627147333528126,0.7296852122986823
1553,0.005627147333528126,0.729776720351391
1554,0.005657373729231948,0.729776720351391
1555,0.005657373729231948,0.7298682284040996
1556,0.0056724869270838585,0.7298682284040996
1557,0.0056724869270838585,0.7299597364568082
1558,0.005687600124935769,0.7299597364568082
1559,0.005687600124935769,0.7300512445095169
1560,0.005692637857553072,0.7300512445095169
1561,0.005692637857553072,0.7303257686676428
1562,0.005707751055404983,0.7303257686676428
1563,0.005707751055404983,0.7306918008784773
1564,0.005722864253256894,0.7306918008784773
1565,0.005722864253256894,0.7307833089311859
1566,0.005727901985874198,0.7307833089311859
1567,0.005727901985874198,0.7312408491947291
1568,0.005748052916343412,0.7312408491947291
1569,0.005748052916343412,0.7313323572474377
1570,0.005753090648960716,0.7313323572474377
1571,0.005753090648960716,0.7314238653001464
1572,0.0057581283815780196,0.7314238653001464
1573,0.0057581283815780196,0.7315153733528551
1574,0.0057682038468126265,0.7315153733528551
1575,0.0057682038468126265,0.7316068814055637
1576,0.005778279312047233,0.7316068814055637
1577,0.005778279312047233,0.7316983894582724
1578,0.005783317044664537,0.7316983894582724
1579,0.005783317044664537,0.731789897510981
1580,0.005788354777281841,0.731789897510981
1581,0.005788354777281841,0.7321559297218155
1582,0.005818581172985663,0.7321559297218155
1583,0.005818581172985663,0.7324304538799414
1584,0.005823618905602966,0.7324304538799414
1585,0.005823618905602966,0.7325219619326501
1586,0.00582865663822027,0.7325219619326501
1587,0.00582865663822027,0.732796486090776
1588,0.005843769836072181,0.732796486090776
1589,0.005843769836072181,0.7328879941434846
1590,0.0058538453013067876,0.7328879941434846
1591,0.0058538453013067876,0.7330710102489019
1592,0.0058588830339240915,0.7330710102489019
1593,0.0058588830339240915,0.7332540263543191
1594,0.005868958499158698,0.7332540263543191
1595,0.005868958499158698,0.7335285505124451
1596,0.005873996231776002,0.7335285505124451
1597,0.005873996231776002,0.7338945827232797
1598,0.005879033964393306,0.7338945827232797
1599,0.005879033964393306,0.7341691068814056
1600,0.005884071697010609,0.7341691068814056
1601,0.005884071697010609,0.7342606149341142
1602,0.005889109429627913,0.7342606149341142
1603,0.005889109429627913,0.7343521229868228
1604,0.00589918489486252,0.7343521229868228
1605,0.00589918489486252,0.7344436310395315
1606,0.005949562221035556,0.7344436310395315
1607,0.005949562221035556,0.7345351390922401
1608,0.00595459995365286,0.7345351390922401
1609,0.00595459995365286,0.7346266471449487
1610,0.005959637686270163,0.7346266471449487
1611,0.005959637686270163,0.7349011713030746
1612,0.005974750884122074,0.7349011713030746
1613,0.005974750884122074,0.7350841874084919
1614,0.005989864081973985,0.7350841874084919
1615,0.005989864081973985,0.7351756954612005
1616,0.005994901814591289,0.7351756954612005
1617,0.005994901814591289,0.7352672035139092
1618,0.0060352036755297175,0.7352672035139092
1619,0.0060352036755297175,0.7356332357247438
1620,0.006045279140764324,0.7356332357247438
1621,0.006045279140764324,0.7357247437774525
1622,0.006050316873381628,0.7357247437774525
1623,0.006050316873381628,0.7358162518301611
1624,0.006055354605998932,0.7358162518301611
1625,0.006055354605998932,0.7359077598828697
1626,0.006060392338616235,0.7359077598828697
1627,0.006060392338616235,0.7362737920937042
1628,0.006065430071233539,0.7362737920937042
1629,0.006065430071233539,0.7363653001464129
1630,0.006070467803850843,0.7363653001464129
1631,0.006070467803850843,0.7365483162518301
1632,0.006100694199554665,0.7365483162518301
1633,0.006100694199554665,0.7366398243045388
1634,0.006110769664789272,0.7366398243045388
1635,0.006110769664789272,0.7369143484626647
1636,0.0061158073974065755,0.7369143484626647
1637,0.0061158073974065755,0.737097364568082
1638,0.006120845130023879,0.737097364568082
1639,0.006120845130023879,0.7375549048316252
1640,0.0061258828626411825,0.7375549048316252
1641,0.0061258828626411825,0.7376464128843339
1642,0.0061510715257277,0.7376464128843339
1643,0.0061510715257277,0.7378294289897511
1644,0.006171222456196915,0.7378294289897511
1645,0.006171222456196915,0.7379209370424598
1646,0.006181297921431522,0.7379209370424598
1647,0.006181297921431522,0.7380124450951684
1648,0.006186335654048826,0.7380124450951684
1649,0.006186335654048826,0.738103953147877
1650,0.006201448851900737,0.738103953147877
1651,0.006201448851900737,0.7381954612005857
1652,0.0062064865845180405,0.7381954612005857
1653,0.0062064865845180405,0.7383784773060029
1654,0.0062165620497526474,0.7383784773060029
1655,0.0062165620497526474,0.7384699853587116
1656,0.006221599782369951,0.7384699853587116
1657,0.006221599782369951,0.7385614934114202
1658,0.006226637514987254,0.7385614934114202
1659,0.006226637514987254,0.7386530014641288
1660,0.006231675247604558,0.7387445095168375
1661,0.00626190164330838,0.7387445095168375
1662,0.00626190164330838,0.7388360175695461
1663,0.006277014841160291,0.7388360175695461
1664,0.006277014841160291,0.7389275256222547
1665,0.006282052573777594,0.7389275256222547
1666,0.006282052573777594,0.7390190336749634
1667,0.006287090306394898,0.7390190336749634
1668,0.006287090306394898,0.7392020497803806
1669,0.006297165771629505,0.7392020497803806
1670,0.006297165771629505,0.7392935578330894
1671,0.0063022035042468085,0.7392935578330894
1672,0.0063022035042468085,0.7398426061493412
1673,0.0063122789694814154,0.7398426061493412
1674,0.0063122789694814154,0.7401171303074671
1675,0.006317316702098719,0.7401171303074671
1676,0.006317316702098719,0.7402086383601757
1677,0.00633242989995063,0.7402086383601757
1678,0.00633242989995063,0.7404831625183016
1679,0.006342505365185237,0.7404831625183016
1680,0.006342505365185237,0.7405746705710102
1681,0.006347543097802541,0.7405746705710102
1682,0.006347543097802541,0.7406661786237189
1683,0.006352580830419845,0.7406661786237189
1684,0.006352580830419845,0.7410322108345534
1685,0.006357618563037148,0.7410322108345534
1686,0.006357618563037148,0.741123718887262
1687,0.006367694028271756,0.741123718887262
1688,0.006367694028271756,0.7413067349926794
1689,0.006372731760889059,0.7413067349926794
1690,0.006372731760889059,0.741398243045388
1691,0.006377769493506363,0.741398243045388
1692,0.006377769493506363,0.7414897510980967
1693,0.00638784495874097,0.7414897510980967
1694,0.00638784495874097,0.7415812591508053
1695,0.006397920423975577,0.7415812591508053
1696,0.006397920423975577,0.7416727672035139
1697,0.006438222284914006,0.7416727672035139
1698,0.006438222284914006,0.7417642752562226
1699,0.006458373215383221,0.7417642752562226
1700,0.006458373215383221,0.7419472913616398
1701,0.006463410948000524,0.7419472913616398
1702,0.006463410948000524,0.7421303074670571
1703,0.006468448680617828,0.7421303074670571
1704,0.006468448680617828,0.7423133235724744
1705,0.0064785241458524346,0.7423133235724744
1706,0.0064785241458524346,0.742404831625183
1707,0.0064835618784697385,0.742404831625183
1708,0.0064835618784697385,0.7425878477306003
1709,0.006493637343704345,0.7425878477306003
1710,0.006493637343704345,0.7427708638360175
1711,0.006503712808938953,0.7427708638360175
1712,0.006503712808938953,0.7428623718887262
1713,0.006508750541556256,0.7428623718887262
1714,0.006508750541556256,0.7430453879941434
1715,0.006523863739408167,0.7430453879941434
1716,0.006523863739408167,0.7432284040995608
1717,0.006533939204642774,0.7432284040995608
1718,0.006533939204642774,0.743685944363104
1719,0.006549052402494685,0.743685944363104
1720,0.006549052402494685,0.7438689604685212
1721,0.006554090135111989,0.7438689604685212
1722,0.006554090135111989,0.7439604685212299
1723,0.0065692033329638995,0.7439604685212299
1724,0.0065692033329638995,0.7440519765739385
1725,0.006574241065581203,0.7440519765739385
1726,0.006574241065581203,0.7443265007320644
1727,0.00658431653081581,0.7443265007320644
1728,0.00658431653081581,0.744418008784773
1729,0.006589354263433114,0.744418008784773
1730,0.006589354263433114,0.7445095168374817
1731,0.006604467461285025,0.7445095168374817
1732,0.006604467461285025,0.7446010248901903
1733,0.006619580659136936,0.7446010248901903
1734,0.006619580659136936,0.7446925329428989
1735,0.006624618391754239,0.7446925329428989
1736,0.006624618391754239,0.7447840409956076
1737,0.006629656124371543,0.7447840409956076
1738,0.006629656124371543,0.7449670571010248
1739,0.006634693856988847,0.7449670571010248
1740,0.006634693856988847,0.7450585651537335
1741,0.006644769322223454,0.7450585651537335
1742,0.006644769322223454,0.7451500732064422
1743,0.006649807054840758,0.7451500732064422
1744,0.006649807054840758,0.7456076134699854
1745,0.0066598825200753645,0.7456076134699854
1746,0.0066598825200753645,0.745699121522694
1747,0.006669957985309971,0.745699121522694
1748,0.006669957985309971,0.7458821376281113
1749,0.006674995717927275,0.7458821376281113
1750,0.006674995717927275,0.7460651537335286
1751,0.006680033450544579,0.7460651537335286
1752,0.006680033450544579,0.7463396778916545
1753,0.006685071183161882,0.7463396778916545
1754,0.006685071183161882,0.7464311859443631
1755,0.006690108915779186,0.7464311859443631
1756,0.006690108915779186,0.7465226939970717
1757,0.006710259846248401,0.7465226939970717
1758,0.006710259846248401,0.7466142020497804
1759,0.006720335311483008,0.7466142020497804
1760,0.006720335311483008,0.7469802342606149
1761,0.006725373044100312,0.7469802342606149
1762,0.006725373044100312,0.7470717423133236
1763,0.006730410776717615,0.7470717423133236
1764,0.006730410776717615,0.7472547584187409
1765,0.0067404862419522225,0.7472547584187409
1766,0.0067404862419522225,0.7474377745241582
1767,0.006755599439804133,0.7474377745241582
1768,0.006755599439804133,0.7475292825768668
1769,0.00676567490503874,0.7475292825768668
1770,0.00676567490503874,0.7477122986822841
1771,0.006770712637656044,0.7477122986822841
1772,0.006770712637656044,0.7478038067349927
1773,0.006780788102890651,0.7478038067349927
1774,0.006780788102890651,0.74798682284041
1775,0.006795901300742562,0.74798682284041
1776,0.006795901300742562,0.7483528550512445
1777,0.006800939033359865,0.7483528550512445
1778,0.006800939033359865,0.7485358711566618
1779,0.006826127696446384,0.7485358711566618
1780,0.006826127696446384,0.7488103953147877
1781,0.0068412408942982944,0.7488103953147877
1782,0.0068412408942982944,0.7489019033674963
1783,0.006861391824767508,0.7489019033674963
1784,0.006861391824767508,0.7495424597364568
1785,0.006871467290002116,0.7495424597364568
1786,0.006871467290002116,0.7498169838945827
1787,0.006876505022619419,0.7498169838945827
1788,0.006876505022619419,0.7501830161054173
1789,0.00689161822047133,0.7501830161054173
1790,0.00689161822047133,0.7502745241581259
1791,0.006901693685705938,0.7502745241581259
1792,0.006901693685705938,0.7503660322108345
1793,0.006916806883557849,0.7503660322108345
1794,0.006916806883557849,0.7504575402635432
1795,0.006931920081409759,0.7504575402635432
1796,0.006931920081409759,0.7505490483162518
1797,0.0069369578140270624,0.7505490483162518
1798,0.0069369578140270624,0.7506405563689604
1799,0.00694703327926167,0.7506405563689604
1800,0.00694703327926167,0.7519216691068814
1801,0.006952071011878973,0.7519216691068814
1802,0.006952071011878973,0.75201317715959
1803,0.006957108744496277,0.75201317715959
1804,0.006957108744496277,0.7521046852122987
1805,0.006962146477113581,0.7521046852122987
1806,0.006962146477113581,0.7521961932650073
1807,0.006967184209730884,0.7521961932650073
1808,0.006967184209730884,0.7522877013177159
1809,0.006972221942348188,0.7522877013177159
1810,0.006972221942348188,0.7525622254758418
1811,0.006982297407582795,0.7525622254758418
1812,0.006982297407582795,0.7527452415812591
1813,0.006987335140200099,0.7527452415812591
1814,0.006987335140200099,0.7529282576866764
1815,0.006992372872817403,0.7529282576866764
1816,0.006992372872817403,0.753294289897511
1817,0.006997410605434706,0.753294289897511
1818,0.006997410605434706,0.7533857979502196
1819,0.0070175615359039205,0.7533857979502196
1820,0.007027637001138527,0.7533857979502196
1821,0.007047787931607742,0.7533857979502196
1822,0.007047787931607742,0.7534773060029283
1823,0.007052825664225045,0.7534773060029283
1824,0.007052825664225045,0.7537518301610542
1825,0.007067938862076956,0.7537518301610542
1826,0.007067938862076956,0.7539348462664714
1827,0.00707297659469426,0.7539348462664714
1828,0.00707297659469426,0.7541178623718887
1829,0.007078014327311564,0.7541178623718887
1830,0.007078014327311564,0.7542093704245973
1831,0.007083052059928867,0.7542093704245973
1832,0.007083052059928867,0.7543923865300146
1833,0.007093127525163475,0.7543923865300146
1834,0.007093127525163475,0.7546669106881405
1835,0.0071032029903980816,0.7546669106881405
1836,0.0071032029903980816,0.7548499267935578
1837,0.0071082407230153855,0.7548499267935578
1838,0.0071082407230153855,0.7553074670571011
1839,0.0071132784556326885,0.7553074670571011
1840,0.0071132784556326885,0.7553989751098097
1841,0.007118316188249992,0.7553989751098097
1842,0.007118316188249992,0.7554904831625183
1843,0.007128391653484599,0.7554904831625183
1844,0.007128391653484599,0.755581991215227
1845,0.007138467118719207,0.755581991215227
1846,0.007138467118719207,0.7556734992679356
1847,0.007158618049188421,0.7556734992679356
1848,0.007158618049188421,0.7558565153733529
1849,0.007178768979657636,0.7558565153733529
1850,0.007178768979657636,0.7560395314787701
1851,0.007208995375361457,0.7560395314787701
1852,0.007208995375361457,0.756314055636896
1853,0.007219070840596064,0.756314055636896
1854,0.007219070840596064,0.7564970717423133
1855,0.007244259503682583,0.7564970717423133
1856,0.007244259503682583,0.7566800878477306
1857,0.007264410434151797,0.7566800878477306
1858,0.007264410434151797,0.7568631039531479
1859,0.007289599097238315,0.7568631039531479
1860,0.007289599097238315,0.7570461200585652
1861,0.007304712295090226,0.7570461200585652
1862,0.007304712295090226,0.7578696925329429
1863,0.007309750027707529,0.7578696925329429
1864,0.007309750027707529,0.7583272327964861
1865,0.007314787760324833,0.7583272327964861
1866,0.007314787760324833,0.7584187408491947
1867,0.007334938690794047,0.7584187408491947
1868,0.007334938690794047,0.7585102489019033
1869,0.007345014156028655,0.7585102489019033
1870,0.007345014156028655,0.7586932650073206
1871,0.007360127353880566,0.7586932650073206
1872,0.007360127353880566,0.7587847730600292
1873,0.007365165086497869,0.7587847730600292
1874,0.007365165086497869,0.7589677891654466
1875,0.0073752405517324765,0.7589677891654466
1876,0.0073752405517324765,0.7591508052708639
1877,0.0073802782843497795,0.7591508052708639
1878,0.0073802782843497795,0.7592423133235725
1879,0.007415542412670905,0.7592423133235725
1880,0.007415542412670905,0.7593338213762811
1881,0.007420580145288209,0.7593338213762811
1882,0.007420580145288209,0.7594253294289898
1883,0.007425617877905512,0.7594253294289898
1884,0.007425617877905512,0.759608345534407
1885,0.00743569334314012,0.759608345534407
1886,0.00743569334314012,0.7601573938506588
1887,0.007440731075757423,0.7601573938506588
1888,0.007440731075757423,0.7603404099560761
1889,0.007455844273609334,0.7603404099560761
1890,0.007455844273609334,0.7605234260614934
1891,0.007475995204078548,0.7605234260614934
1892,0.007475995204078548,0.760614934114202
1893,0.007486070669313155,0.760614934114202
1894,0.007486070669313155,0.7607979502196194
1895,0.007496146134547763,0.7607979502196194
1896,0.007496146134547763,0.760889458272328
1897,0.007516297065016977,0.760889458272328
1898,0.007516297065016977,0.7611639824304539
1899,0.00757674985642462,0.7611639824304539
1900,0.00757674985642462,0.7612554904831625
1901,0.007581787589041924,0.7612554904831625
1902,0.007581787589041924,0.7615300146412884
1903,0.007596900786893835,0.7615300146412884
1904,0.007596900786893835,0.7616215226939971
1905,0.007601938519511138,0.7616215226939971
1906,0.007601938519511138,0.7619875549048316
1907,0.007606976252128442,0.7619875549048316
1908,0.007606976252128442,0.7620790629575402
1909,0.0076472781130668705,0.7620790629575402
1910,0.0076472781130668705,0.7621705710102489
1911,0.007652315845684174,0.7621705710102489
1912,0.007652315845684174,0.7622620790629575
1913,0.007657353578301478,0.7622620790629575
1914,0.007657353578301478,0.7623535871156661
1915,0.007662391310918781,0.7623535871156661
1916,0.007662391310918781,0.7624450951683748
1917,0.007677504508770692,0.7624450951683748
1918,0.007677504508770692,0.7625366032210834
1919,0.007682542241387996,0.7625366032210834
1920,0.007682542241387996,0.762628111273792
1921,0.0076875799740053,0.762628111273792
1922,0.0076875799740053,0.7627196193265008
1923,0.007702693171857211,0.7627196193265008
1924,0.007702693171857211,0.7629941434846267
1925,0.007712768637091818,0.7629941434846267
1926,0.007712768637091818,0.7632686676427526
1927,0.007722844102326425,0.7632686676427526
1928,0.007722844102326425,0.7633601756954612
1929,0.0077379573001783355,0.7633601756954612
1930,0.0077379573001783355,0.7634516837481699
1931,0.00775810823064755,0.7634516837481699
1932,0.00775810823064755,0.7635431918008785
1933,0.007768183695882157,0.7635431918008785
1934,0.007768183695882157,0.7636346998535871
1935,0.007773221428499461,0.7636346998535871
1936,0.007773221428499461,0.7637262079062958
1937,0.007798410091585979,0.7637262079062958
1938,0.007798410091585979,0.7638177159590044
1939,0.0078286364872898,0.7638177159590044
1940,0.0078286364872898,0.763909224011713
1941,0.007848787417759014,0.763909224011713
1942,0.007848787417759014,0.7640922401171303
1943,0.007873976080845533,0.7640922401171303
1944,0.007873976080845533,0.7642752562225475
1945,0.00788405154608014,0.7642752562225475
1946,0.00788405154608014,0.7643667642752562
1947,0.007904202476549355,0.7643667642752562
1948,0.007904202476549355,0.7644582723279648
1949,0.007909240209166658,0.7644582723279648
1950,0.007909240209166658,0.7645497803806734
1951,0.007949542070105087,0.7645497803806734
1952,0.007949542070105087,0.7646412884333821
1953,0.007959617535339695,0.7646412884333821
1954,0.007959617535339695,0.7647327964860908
1955,0.007964655267956998,0.7647327964860908
1956,0.007964655267956998,0.7649158125915081
1957,0.007969693000574301,0.7649158125915081
1958,0.007969693000574301,0.7650988286969254
1959,0.007974730733191606,0.7650988286969254
1960,0.007974730733191606,0.765190336749634
1961,0.008004957128895427,0.765190336749634
1962,0.008004957128895427,0.7653733528550513
1963,0.008025108059364641,0.7653733528550513
1964,0.008025108059364641,0.7655563689604685
1965,0.00805029672245116,0.7655563689604685
1966,0.00805029672245116,0.7656478770131772
1967,0.008055334455068463,0.7656478770131772
1968,0.008055334455068463,0.7657393850658858
1969,0.00806540992030307,0.7657393850658858
1970,0.00806540992030307,0.7658308931185944
1971,0.008105711781241498,0.7658308931185944
1972,0.008105711781241498,0.7661054172767203
1973,0.00812082497909341,0.7661054172767203
1974,0.00812082497909341,0.766196925329429
1975,0.008125862711710714,0.766196925329429
1976,0.008125862711710714,0.7662884333821376
1977,0.00813593817694532,0.7662884333821376
1978,0.00813593817694532,0.7665629575402635
1979,0.008161126840031839,0.7665629575402635
1980,0.008161126840031839,0.7666544655929722
1981,0.008171202305266446,0.7666544655929722
1982,0.008171202305266446,0.7670204978038068
1983,0.008181277770501053,0.7670204978038068
1984,0.008181277770501053,0.7671120058565154
1985,0.008186315503118357,0.7671120058565154
1986,0.008186315503118357,0.7672950219619327
1987,0.008196390968352963,0.7672950219619327
1988,0.008196390968352963,0.7673865300146413
1989,0.008206466433587571,0.7673865300146413
1990,0.008206466433587571,0.7677525622254758
1991,0.008216541898822179,0.7677525622254758
1992,0.008216541898822179,0.7681185944363104
1993,0.008221579631439482,0.7681185944363104
1994,0.008221579631439482,0.7683016105417276
1995,0.008226617364056785,0.7683016105417276
1996,0.008226617364056785,0.7687591508052709
1997,0.00823165509667409,0.7687591508052709
1998,0.00823165509667409,0.7688506588579795
1999,0.008236692829291393,0.7688506588579795
2000,0.008236692829291393,0.7689421669106882
2001,0.008251806027143304,0.7689421669106882
2002,0.008251806027143304,0.7691251830161054
2003,0.008256843759760607,0.7691251830161054
2004,0.008256843759760607,0.7693997071742313
2005,0.00826188149237791,0.7693997071742313
2006,0.00826188149237791,0.76949121522694
2007,0.008271956957612518,0.76949121522694
2008,0.008271956957612518,0.7695827232796486
2009,0.00827699469022982,0.7695827232796486
2010,0.00827699469022982,0.7699487554904831
2011,0.008287070155464428,0.7699487554904831
2012,0.008287070155464428,0.7700402635431918
2013,0.008292107888081731,0.7700402635431918
2014,0.008292107888081731,0.770223279648609
2015,0.00830218335331634,0.770223279648609
2016,0.00830218335331634,0.7703147877013177
2017,0.008307221085933642,0.7703147877013177
2018,0.008307221085933642,0.7704062957540263
2019,0.00831729655116825,0.7704062957540263
2020,0.00831729655116825,0.7704978038067349
2021,0.008322334283785553,0.7704978038067349
2022,0.008322334283785553,0.7708638360175696
2023,0.008327372016402858,0.7708638360175696
2024,0.008327372016402858,0.7709553440702782
2025,0.00835759841210668,0.7709553440702782
2026,0.00835759841210668,0.7710468521229868
2027,0.008362636144723982,0.7710468521229868
2028,0.008362636144723982,0.7711383601756955
2029,0.008367673877341286,0.7711383601756955
2030,0.008367673877341286,0.7715959004392386
2031,0.00837271160995859,0.7715959004392386
2032,0.00837271160995859,0.7716874084919473
2033,0.008377749342575893,0.7716874084919473
2034,0.008377749342575893,0.7720534407027818
2035,0.008387824807810501,0.7720534407027818
2036,0.008387824807810501,0.7721449487554904
2037,0.008413013470897018,0.7721449487554904
2038,0.008413013470897018,0.7722364568081991
2039,0.008418051203514323,0.7722364568081991
2040,0.008418051203514323,0.7723279648609077
2041,0.008433164401366234,0.7723279648609077
2042,0.008433164401366234,0.7724194729136163
2043,0.00844323986660084,0.7724194729136163
2044,0.00844323986660084,0.7725109809663251
2045,0.008463390797070055,0.7725109809663251
2046,0.008463390797070055,0.7726024890190337
2047,0.008488579460156572,0.7726024890190337
2048,0.008488579460156572,0.7726939970717424
2049,0.008508730390625788,0.7726939970717424
2050,0.008508730390625788,0.772785505124451
2051,0.00855406998418152,0.772785505124451
2052,0.00855406998418152,0.7728770131771596
2053,0.008574220914650734,0.7728770131771596
2054,0.008574220914650734,0.7730600292825769
2055,0.008584296379885342,0.7730600292825769
2056,0.008584296379885342,0.7732430453879942
2057,0.008609485042971859,0.7732430453879942
2058,0.008609485042971859,0.7733345534407028
2059,0.008614522775589164,0.7733345534407028
2060,0.008614522775589164,0.7734260614934114
2061,0.00862459824082377,0.7734260614934114
2062,0.00862459824082377,0.7736090775988287
2063,0.008629635973441074,0.7736090775988287
2064,0.008629635973441074,0.7737005856515373
2065,0.008634673706058377,0.7737005856515373
2066,0.008634673706058377,0.773792093704246
2067,0.008649786903910288,0.773792093704246
2068,0.008649786903910288,0.7740666178623719
2069,0.008659862369144896,0.7740666178623719
2070,0.008659862369144896,0.7742496339677891
2071,0.008664900101762199,0.7742496339677891
2072,0.008664900101762199,0.7743411420204978
2073,0.008669937834379502,0.7743411420204978
2074,0.008669937834379502,0.7744326500732065
2075,0.00868001329961411,0.7744326500732065
2076,0.00868001329961411,0.7745241581259151
2077,0.008690088764848718,0.7745241581259151
2078,0.008690088764848718,0.7746156661786238
2079,0.00869512649746602,0.7746156661786238
2080,0.00869512649746602,0.774798682284041
2081,0.008705201962700629,0.774798682284041
2082,0.008705201962700629,0.7748901903367497
2083,0.008730390625787145,0.7748901903367497
2084,0.008730390625787145,0.7749816983894583
2085,0.008740466091021753,0.7749816983894583
2086,0.008740466091021753,0.7750732064421669
2087,0.008750541556256361,0.7750732064421669
2088,0.008750541556256361,0.7751647144948756
2089,0.008755579288873664,0.7751647144948756
2090,0.008755579288873664,0.7754392386530015
2091,0.008765654754108272,0.7754392386530015
2092,0.008765654754108272,0.775805270863836
2093,0.008780767951960181,0.775805270863836
2094,0.008780767951960181,0.7758967789165446
2095,0.008795881149812092,0.7758967789165446
2096,0.008795881149812092,0.7759882869692533
2097,0.008816032080281307,0.7759882869692533
2098,0.008816032080281307,0.7760797950219619
2099,0.008851296208602432,0.7760797950219619
2100,0.008851296208602432,0.7761713030746705
2101,0.00886137167383704,0.7761713030746705
2102,0.00886137167383704,0.7762628111273792
2103,0.008866409406454343,0.7762628111273792
2104,0.008866409406454343,0.7764458272327965
2105,0.008871447139071646,0.7764458272327965
2106,0.008871447139071646,0.7766288433382138
2107,0.00887648487168895,0.7766288433382138
2108,0.00887648487168895,0.7768118594436311
2109,0.008886560336923557,0.7768118594436311
2110,0.008886560336923557,0.7771778916544656
2111,0.008891598069540861,0.7771778916544656
2112,0.008891598069540861,0.7772693997071742
2113,0.008926862197861986,0.7772693997071742
2114,0.008926862197861986,0.7774524158125915
2115,0.0089470131283312,0.7774524158125915
2116,0.0089470131283312,0.7775439238653001
2117,0.00896212632618311,0.7775439238653001
2118,0.00896212632618311,0.7776354319180088
2119,0.008967164058800416,0.7776354319180088
2120,0.008967164058800416,0.7777269399707174
2121,0.008972201791417719,0.7777269399707174
2122,0.008972201791417719,0.7780014641288433
2123,0.008992352721886933,0.7780014641288433
2124,0.008992352721886933,0.7782759882869692
2125,0.009022579117590754,0.7782759882869692
2126,0.009022579117590754,0.7784590043923866
2127,0.009062880978529184,0.7784590043923866
2128,0.009062880978529184,0.7785505124450952
2129,0.009067918711146487,0.7785505124450952
2130,0.009067918711146487,0.7786420204978038
2131,0.009072956443763791,0.7786420204978038
2132,0.009072956443763791,0.7788250366032211
2133,0.009077994176381094,0.7788250366032211
2134,0.009077994176381094,0.7789165446559297
2135,0.009103182839467613,0.7789165446559297
2136,0.009103182839467613,0.7790080527086384
2137,0.00911325830470222,0.7790080527086384
2138,0.00911325830470222,0.7791910688140556
2139,0.009118296037319524,0.7791910688140556
2140,0.009118296037319524,0.7793740849194729
2141,0.00914348470040604,0.7793740849194729
2142,0.00914348470040604,0.7795571010248902
2143,0.009153560165640649,0.7795571010248902
2144,0.009153560165640649,0.7799231332357247
2145,0.009158597898257952,0.7799231332357247
2146,0.009158597898257952,0.7801976573938506
2147,0.009163635630875256,0.7801976573938506
2148,0.009163635630875256,0.7802891654465594
2149,0.009208975224430989,0.7802891654465594
2150,0.009208975224430989,0.7804721815519766
2151,0.009219050689665595,0.7804721815519766
2152,0.009219050689665595,0.7805636896046853
2153,0.0092240884222829,0.7805636896046853
2154,0.0092240884222829,0.7806551976573939
2155,0.009234163887517506,0.7806551976573939
2156,0.009234163887517506,0.7807467057101025
2157,0.009264390283221327,0.7807467057101025
2158,0.009264390283221327,0.7810212298682284
2159,0.009274465748455935,0.7810212298682284
2160,0.009274465748455935,0.781112737920937
2161,0.009279503481073238,0.781112737920937
2162,0.009279503481073238,0.7812042459736457
2163,0.009294616678925149,0.7812042459736457
2164,0.009294616678925149,0.781387262079063
2165,0.009299654411542452,0.781387262079063
2166,0.009299654411542452,0.7814787701317716
2167,0.00930972987677706,0.7814787701317716
2168,0.00930972987677706,0.7820278184480234
2169,0.009319805342011668,0.7820278184480234
2170,0.009319805342011668,0.782119326500732
2171,0.009344994005098185,0.782119326500732
2172,0.009344994005098185,0.7823023426061494
2173,0.00935003173771549,0.7823023426061494
2174,0.00935003173771549,0.782393850658858
2175,0.009355069470332792,0.782393850658858
2176,0.009355069470332792,0.7824853587115667
2177,0.009370182668184703,0.7824853587115667
2178,0.009370182668184703,0.7825768667642753
2179,0.009390333598653917,0.7825768667642753
2180,0.009390333598653917,0.7826683748169839
2181,0.009395371331271222,0.7826683748169839
2182,0.009395371331271222,0.7827598828696926
2183,0.009400409063888525,0.7827598828696926
2184,0.009400409063888525,0.7828513909224012
2185,0.009410484529123133,0.7828513909224012
2186,0.009410484529123133,0.7829428989751098
2187,0.009420559994357739,0.7829428989751098
2188,0.009420559994357739,0.7830344070278185
2189,0.009430635459592347,0.7830344070278185
2190,0.009430635459592347,0.7831259150805271
2191,0.009440710924826954,0.7831259150805271
2192,0.009440710924826954,0.7832174231332357
2193,0.009445748657444257,0.7832174231332357
2194,0.009445748657444257,0.7833089311859444
2195,0.00945078639006156,0.7833089311859444
2196,0.00945078639006156,0.7837664714494875
2197,0.009460861855296168,0.7837664714494875
2198,0.009460861855296168,0.7839494875549048
2199,0.009465899587913471,0.7839494875549048
2200,0.009465899587913471,0.7841325036603221
2201,0.009481012785765382,0.7841325036603221
2202,0.009481012785765382,0.7847730600292826
2203,0.0095062014488519,0.7847730600292826
2204,0.0095062014488519,0.7848645680819912
2205,0.009511239181469204,0.7848645680819912
2206,0.009511239181469204,0.7849560761346999
2207,0.009516276914086508,0.7849560761346999
2208,0.009516276914086508,0.7850475841874085
2209,0.009521314646703812,0.7850475841874085
2210,0.009521314646703812,0.7851390922401171
2211,0.009526352379321115,0.7851390922401171
2212,0.009526352379321115,0.7852306002928258
2213,0.009536427844555722,0.7852306002928258
2214,0.009536427844555722,0.7853221083455344
2215,0.009556578775024936,0.7853221083455344
2216,0.009556578775024936,0.7855051244509517
2217,0.009561616507642241,0.7855051244509517
2218,0.009561616507642241,0.7855966325036603
2219,0.009566654240259544,0.7855966325036603
2220,0.009566654240259544,0.7856881405563689
2221,0.009581767438111455,0.7856881405563689
2222,0.009581767438111455,0.7858711566617862
2223,0.009586805170728758,0.7858711566617862
2224,0.009586805170728758,0.7859626647144948
2225,0.009591842903346063,0.7859626647144948
2226,0.009591842903346063,0.7860541727672035
2227,0.009606956101197973,0.7860541727672035
2228,0.009606956101197973,0.7861456808199122
2229,0.00961703156643258,0.7861456808199122
2230,0.00961703156643258,0.7864202049780381
2231,0.009627107031667187,0.7864202049780381
2232,0.009627107031667187,0.7866032210834554
2233,0.00963214476428449,0.7866032210834554
2234,0.00963214476428449,0.7867862371888726
2235,0.009637182496901795,0.7867862371888726
2236,0.009637182496901795,0.7869692532942899
2237,0.009667408892605617,0.7869692532942899
2238,0.009667408892605617,0.7875183016105417
2239,0.009677484357840223,0.7875183016105417
2240,0.009677484357840223,0.7876098096632503
2241,0.009682522090457528,0.7876098096632503
2242,0.009682522090457528,0.787701317715959
2243,0.009692597555692134,0.787701317715959
2244,0.009692597555692134,0.7877928257686676
2245,0.009697635288309438,0.7877928257686676
2246,0.009697635288309438,0.7879758418740849
2247,0.009702673020926741,0.7879758418740849
2248,0.009702673020926741,0.7881588579795022
2249,0.009732899416630563,0.7881588579795022
2250,0.009732899416630563,0.7883418740849195
2251,0.009753050347099777,0.7883418740849195
2252,0.009753050347099777,0.7885248901903368
2253,0.009763125812334385,0.7885248901903368
2254,0.009763125812334385,0.7886163982430454
2255,0.009778239010186296,0.7886163982430454
2256,0.009778239010186296,0.788707906295754
2257,0.009793352208038206,0.788707906295754
2258,0.009793352208038206,0.7887994143484627
2259,0.00979838994065551,0.7887994143484627
2260,0.00979838994065551,0.7888909224011713
2261,0.00981350313850742,0.7888909224011713
2262,0.00981350313850742,0.78898243045388
2263,0.009828616336359331,0.78898243045388
2264,0.009828616336359331,0.7890739385065886
2265,0.009838691801593939,0.7890739385065886
2266,0.009838691801593939,0.7891654465592972
2267,0.009863880464680456,0.7891654465592972
2268,0.009863880464680456,0.7892569546120058
2269,0.009899144593001582,0.7892569546120058
2270,0.009899144593001582,0.7895314787701317
2271,0.009904182325618885,0.7895314787701317
2272,0.009904182325618885,0.7896229868228404
2273,0.009924333256088099,0.7896229868228404
2274,0.009924333256088099,0.789714494875549
2275,0.009929370988705404,0.789714494875549
2276,0.009929370988705404,0.7898060029282576
2277,0.00993944645394001,0.7898060029282576
2278,0.00993944645394001,0.7898975109809663
2279,0.009944484186557315,0.7898975109809663
2280,0.009944484186557315,0.7899890190336749
2281,0.00995455965179192,0.7899890190336749
2282,0.00995455965179192,0.7901720351390923
2283,0.009964635117026529,0.7901720351390923
2284,0.009964635117026529,0.7902635431918009
2285,0.00997974831487844,0.7902635431918009
2286,0.00997974831487844,0.7903550512445096
2287,0.009984786047495742,0.7903550512445096
2288,0.009984786047495742,0.7904465592972182
2289,0.009989823780113047,0.7904465592972182
2290,0.009989823780113047,0.7906295754026355
2291,0.010009974710582261,0.7906295754026355
2292,0.010009974710582261,0.7907210834553441
2293,0.010025087908434172,0.7907210834553441
2294,0.010025087908434172,0.7909040995607614
2295,0.010070427501989904,0.7909040995607614
2296,0.010070427501989904,0.79099560761347
2297,0.010080502967224512,0.79099560761347
2298,0.010080502967224512,0.7910871156661786
2299,0.010085540699841815,0.7910871156661786
2300,0.010085540699841815,0.7912701317715959
2301,0.010090578432459118,0.7912701317715959
2302,0.010090578432459118,0.7913616398243045
2303,0.010115767095545637,0.7913616398243045
2304,0.010115767095545637,0.7914531478770132
2305,0.01013591802601485,0.7914531478770132
2306,0.01013591802601485,0.791727672035139
2307,0.010156068956484066,0.791727672035139
2308,0.010156068956484066,0.7920021961932651
2309,0.01016110668910137,0.7920021961932651
2310,0.01016110668910137,0.7920937042459737
2311,0.010166144421718672,0.7920937042459737
2312,0.010166144421718672,0.7921852122986823
2313,0.010171182154335977,0.7921852122986823
2314,0.010171182154335977,0.792276720351391
2315,0.010181257619570583,0.792276720351391
2316,0.010181257619570583,0.7923682284040996
2317,0.010191333084805191,0.7923682284040996
2318,0.010191333084805191,0.7924597364568082
2319,0.010206446282657102,0.7924597364568082
2320,0.010206446282657102,0.7925512445095169
2321,0.01023163494574362,0.7925512445095169
2322,0.01023163494574362,0.7928257686676428
2323,0.010236672678360923,0.7928257686676428
2324,0.010236672678360923,0.79300878477306
2325,0.010261861341447442,0.79300878477306
2326,0.010261861341447442,0.7931918008784773
2327,0.010287050004533959,0.7931918008784773
2328,0.010287050004533959,0.7932833089311859
2329,0.010297125469768567,0.7932833089311859
2330,0.010297125469768567,0.7934663250366032
2331,0.01030216320238587,0.7934663250366032
2332,0.01030216320238587,0.7935578330893118
2333,0.01031727640023778,0.7935578330893118
2334,0.01031727640023778,0.7938323572474377
2335,0.010322314132855085,0.7938323572474377
2336,0.010322314132855085,0.7939238653001464
2337,0.0103424650633243,0.7939238653001464
2338,0.0103424650633243,0.7940153733528551
2339,0.010377729191645424,0.7940153733528551
2340,0.010377729191645424,0.794289897510981
2341,0.010397880122114638,0.794289897510981
2342,0.010397880122114638,0.7943814055636896
2343,0.010412993319966549,0.7943814055636896
2344,0.010412993319966549,0.7945644216691069
2345,0.010418031052583853,0.7945644216691069
2346,0.010418031052583853,0.7946559297218155
2347,0.01042810651781846,0.7946559297218155
2348,0.01042810651781846,0.7947474377745242
2349,0.010438181983053067,0.7947474377745242
2350,0.010438181983053067,0.7949304538799414
2351,0.010453295180904978,0.7949304538799414
2352,0.010453295180904978,0.7950219619326501
2353,0.010458332913522281,0.7950219619326501
2354,0.010458332913522281,0.7951134699853587
2355,0.010468408378756889,0.7951134699853587
2356,0.010468408378756889,0.7952049780380673
2357,0.010473446111374192,0.7952049780380673
2358,0.010473446111374192,0.795296486090776
2359,0.010478483843991497,0.795296486090776
2360,0.010478483843991497,0.7953879941434846
2361,0.0104835215766088,0.7953879941434846
2362,0.0104835215766088,0.7954795021961932
2363,0.010493597041843408,0.7954795021961932
2364,0.010493597041843408,0.7957540263543191
2365,0.010533898902781835,0.7957540263543191
2366,0.010533898902781835,0.7959370424597365
2367,0.010549012100633746,0.7959370424597365
2368,0.010549012100633746,0.7962115666178624
2369,0.010559087565868354,0.7962115666178624
2370,0.010559087565868354,0.796303074670571
2371,0.010569163031102962,0.796303074670571
2372,0.010579238496337568,0.796303074670571
2373,0.010604427159424086,0.796303074670571
2374,0.010604427159424086,0.7966691068814056
2375,0.010614502624658694,0.7966691068814056
2376,0.010614502624658694,0.7967606149341142
2377,0.010654804485597122,0.7967606149341142
2378,0.010654804485597122,0.7969436310395315
2379,0.010669917683449033,0.7969436310395315
2380,0.010669917683449033,0.7970351390922401
2381,0.01067999314868364,0.7970351390922401
2382,0.01067999314868364,0.7974011713030746
2383,0.010685030881300944,0.7974011713030746
2384,0.010685030881300944,0.7974926793557833
2385,0.010700144079152854,0.7974926793557833
2386,0.010700144079152854,0.7975841874084919
2387,0.010725332742239373,0.7975841874084919
2388,0.010725332742239373,0.7978587115666179
2389,0.010730370474856676,0.7978587115666179
2390,0.010730370474856676,0.7980417276720352
2391,0.01073540820747398,0.7980417276720352
2392,0.01073540820747398,0.7981332357247438
2393,0.010740445940091284,0.7981332357247438
2394,0.010740445940091284,0.7982247437774525
2395,0.010750521405325892,0.7982247437774525
2396,0.010750521405325892,0.7983162518301611
2397,0.010775710068412409,0.7983162518301611
2398,0.010785785533647016,0.7983162518301611
2399,0.01079082326626432,0.7983162518301611
2400,0.01079082326626432,0.7984077598828697
2401,0.010816011929350838,0.7984077598828697
2402,0.010816011929350838,0.7984992679355783
2403,0.010826087394585446,0.7984992679355783
2404,0.010826087394585446,0.798590775988287
2405,0.010831125127202749,0.798590775988287
2406,0.010831125127202749,0.7986822840409956
2407,0.010836162859820052,0.7986822840409956
2408,0.010836162859820052,0.7987737920937042
2409,0.010856313790289267,0.7987737920937042
2410,0.010856313790289267,0.7988653001464129
2411,0.01086135152290657,0.7988653001464129
2412,0.01086135152290657,0.7989568081991215
2413,0.010881502453375784,0.7989568081991215
2414,0.010881502453375784,0.7990483162518301
2415,0.010896615651227695,0.7990483162518301
2416,0.010896615651227695,0.7991398243045388
2417,0.010936917512166125,0.7991398243045388
2418,0.010936917512166125,0.7992313323572474
2419,0.010941955244783428,0.7992313323572474
2420,0.010941955244783428,0.799322840409956
2421,0.010962106175252641,0.799322840409956
2422,0.010962106175252641,0.7994143484626647
2423,0.01097218164048725,0.7994143484626647
2424,0.01097218164048725,0.799597364568082
2425,0.010997370303573768,0.799597364568082
2426,0.010997370303573768,0.7997803806734992
2427,0.011002408036191071,0.7997803806734992
2428,0.011002408036191071,0.799871888726208
2429,0.011012483501425679,0.799871888726208
2430,0.011012483501425679,0.7999633967789166
2431,0.0110427098971295,0.7999633967789166
2432,0.0110427098971295,0.8000549048316252
2433,0.011123313619006358,0.8000549048316252
2434,0.011123313619006358,0.8001464128843339
2435,0.01112835135162366,0.8001464128843339
2436,0.01112835135162366,0.8002379209370425
2437,0.011148502282092876,0.8002379209370425
2438,0.011148502282092876,0.8005124450951684
2439,0.011158577747327482,0.8005124450951684
2440,0.011158577747327482,0.800603953147877
2441,0.011183766410414001,0.800603953147877
2442,0.011183766410414001,0.8006954612005857
2443,0.011203917340883215,0.8006954612005857
2444,0.011203917340883215,0.8008784773060029
2445,0.011219030538735126,0.8008784773060029
2446,0.011219030538735126,0.8009699853587116
2447,0.01122406827135243,0.8009699853587116
2448,0.01122406827135243,0.8010614934114202
2449,0.011239181469204341,0.8010614934114202
2450,0.011239181469204341,0.8011530014641288
2451,0.011244219201821644,0.8011530014641288
2452,0.011244219201821644,0.8013360175695461
2453,0.011259332399673555,0.8013360175695461
2454,0.011259332399673555,0.8014275256222547
2455,0.011264370132290858,0.8014275256222547
2456,0.011264370132290858,0.8015190336749634
2457,0.011269407864908163,0.8015190336749634
2458,0.011269407864908163,0.8017935578330894
2459,0.011284521062760074,0.8017935578330894
2460,0.011284521062760074,0.8019765739385066
2461,0.01129459652799468,0.8019765739385066
2462,0.01129459652799468,0.8021595900439239
2463,0.011304671993229288,0.8021595900439239
2464,0.011304671993229288,0.8022510980966325
2465,0.011324822923698501,0.8022510980966325
2466,0.011324822923698501,0.8023426061493412
2467,0.01133489838893311,0.8023426061493412
2468,0.01133489838893311,0.8025256222547584
2469,0.011355049319402323,0.8025256222547584
2470,0.011355049319402323,0.8027086383601757
2471,0.011395351180340752,0.8027086383601757
2472,0.011395351180340752,0.8028001464128843
2473,0.011415502110809966,0.8028001464128843
2474,0.011415502110809966,0.8030746705710102
2475,0.011430615308661877,0.8030746705710102
2476,0.011430615308661877,0.8031661786237189
2477,0.011465879436983002,0.8031661786237189
2478,0.011465879436983002,0.8032576866764275
2479,0.011496105832686824,0.8032576866764275
2480,0.011496105832686824,0.8033491947291361
2481,0.011506181297921431,0.8033491947291361
2482,0.011506181297921431,0.8034407027818448
2483,0.011521294495773342,0.8034407027818448
2484,0.011521294495773342,0.8035322108345534
2485,0.01153136996100795,0.8035322108345534
2486,0.01153136996100795,0.803898243045388
2487,0.01154648315885986,0.803898243045388
2488,0.01154648315885986,0.8040812591508053
2489,0.0116018982176502,0.8040812591508053
2490,0.0116018982176502,0.8042642752562226
2491,0.011606935950267504,0.8042642752562226
2492,0.011606935950267504,0.8044472913616398
2493,0.011611973682884807,0.8044472913616398
2494,0.011611973682884807,0.8045387994143485
2495,0.01161701141550211,0.8045387994143485
2496,0.01161701141550211,0.8046303074670571
2497,0.011627086880736718,0.8046303074670571
2498,0.011627086880736718,0.8047218155197657
2499,0.011652275543823237,0.8047218155197657
2500,0.011652275543823237,0.804904831625183
2501,0.01165731327644054,0.804904831625183
2502,0.01165731327644054,0.8049963396778916
2503,0.011692577404761664,0.8049963396778916
2504,0.011692577404761664,0.8050878477306003
2505,0.01171272833523088,0.8050878477306003
2506,0.01171272833523088,0.8052708638360175
2507,0.011732879265700094,0.8052708638360175
2508,0.011732879265700094,0.8055453879941434
2509,0.011742954730934702,0.8055453879941434
2510,0.011742954730934702,0.8056368960468521
2511,0.011747992463552005,0.8056368960468521
2512,0.011747992463552005,0.8057284040995608
2513,0.011778218859255826,0.8057284040995608
2514,0.011778218859255826,0.8058199121522694
2515,0.011793332057107737,0.8058199121522694
2516,0.011793332057107737,0.8060029282576867
2517,0.01185378484851538,0.8060029282576867
2518,0.01185378484851538,0.8060944363103953
2519,0.011858822581132683,0.8060944363103953
2520,0.011858822581132683,0.8062774524158126
2521,0.011868898046367291,0.8062774524158126
2522,0.011868898046367291,0.8063689604685212
2523,0.011873935778984594,0.8063689604685212
2524,0.011873935778984594,0.8064604685212299
2525,0.011878973511601899,0.8064604685212299
2526,0.011878973511601899,0.8065519765739385
2527,0.011914237639923024,0.8065519765739385
2528,0.011914237639923024,0.8066434846266471
2529,0.011919275372540327,0.8066434846266471
2530,0.011919275372540327,0.8067349926793558
2531,0.011934388570392238,0.8067349926793558
2532,0.011934388570392238,0.8068265007320644
2533,0.011944464035626845,0.8068265007320644
2534,0.011944464035626845,0.806918008784773
2535,0.011984765896565273,0.806918008784773
2536,0.011984765896565273,0.8070095168374817
2537,0.011999879094417184,0.8070095168374817
2538,0.011999879094417184,0.8071010248901903
2539,0.012009954559651792,0.8071010248901903
2540,0.012009954559651792,0.8071925329428989
2541,0.01203514322273831,0.8071925329428989
2542,0.01203514322273831,0.8073755490483162
2543,0.012055294153207524,0.8073755490483162
2544,0.012055294153207524,0.8074670571010248
2545,0.012080482816294043,0.8074670571010248
2546,0.012080482816294043,0.8075585651537335
2547,0.012095596014145954,0.8075585651537335
2548,0.012095596014145954,0.8077415812591509
2549,0.012100633746763257,0.8077415812591509
2550,0.012100633746763257,0.8078330893118595
2551,0.01210567147938056,0.8078330893118595
2552,0.01210567147938056,0.8079245973645681
2553,0.012130860142467078,0.8079245973645681
2554,0.012130860142467078,0.8081076134699854
2555,0.01214597334031899,0.8081076134699854
2556,0.01214597334031899,0.808199121522694
2557,0.012151011072936292,0.808199121522694
2558,0.012151011072936292,0.8082906295754027
2559,0.0121610865381709,0.8082906295754027
2560,0.0121610865381709,0.8083821376281113
2561,0.012186275201257419,0.8083821376281113
2562,0.012186275201257419,0.8085651537335286
2563,0.012221539329578543,0.8085651537335286
2564,0.012221539329578543,0.8087481698389458
2565,0.012241690260047757,0.8087481698389458
2566,0.012241690260047757,0.8088396778916545
2567,0.012251765725282365,0.8088396778916545
2568,0.012251765725282365,0.8089311859443631
2569,0.012256803457899668,0.8089311859443631
2570,0.012256803457899668,0.8091142020497804
2571,0.012266878923134276,0.8091142020497804
2572,0.012266878923134276,0.8092972181551976
2573,0.012271916655751579,0.8092972181551976
2574,0.012271916655751579,0.8093887262079063
2575,0.012276954388368884,0.8093887262079063
2576,0.012276954388368884,0.8095717423133236
2577,0.012281992120986187,0.8095717423133236
2578,0.012281992120986187,0.8096632503660323
2579,0.012292067586220794,0.8096632503660323
2580,0.012292067586220794,0.8097547584187409
2581,0.0123021430514554,0.8097547584187409
2582,0.0123021430514554,0.8098462664714495
2583,0.012352520377628438,0.8098462664714495
2584,0.012352520377628438,0.8099377745241582
2585,0.012362595842863044,0.8099377745241582
2586,0.012362595842863044,0.8100292825768668
2587,0.012372671308097652,0.8100292825768668
2588,0.012372671308097652,0.8101207906295754
2589,0.01238274677333226,0.8101207906295754
2590,0.01238274677333226,0.8103038067349927
2591,0.012387784505949562,0.8103038067349927
2592,0.012387784505949562,0.8103953147877013
2593,0.012392822238566865,0.8103953147877013
2594,0.012392822238566865,0.81048682284041
2595,0.012407935436418776,0.81048682284041
2596,0.012407935436418776,0.8105783308931186
2597,0.012412973169036081,0.8105783308931186
2598,0.012412973169036081,0.8106698389458272
2599,0.012428086366887992,0.8106698389458272
2600,0.012428086366887992,0.8107613469985359
2601,0.01246838822782642,0.8107613469985359
2602,0.01246838822782642,0.8110358711566618
2603,0.012473425960443724,0.8110358711566618
2604,0.012473425960443724,0.8111273792093704
2605,0.012508690088764849,0.8111273792093704
2606,0.012508690088764849,0.811218887262079
2607,0.012513727821382152,0.811218887262079
2608,0.012513727821382152,0.8113103953147877
2609,0.012518765553999455,0.8113103953147877
2610,0.012518765553999455,0.8114019033674963
2611,0.012543954217085974,0.8114019033674963
2612,0.012543954217085974,0.8115849194729137
2613,0.012559067414937885,0.8115849194729137
2614,0.012559067414937885,0.8119509516837482
2615,0.012569142880172492,0.8119509516837482
2616,0.012569142880172492,0.8121339677891655
2617,0.01259433154325901,0.8121339677891655
2618,0.01259433154325901,0.8122254758418741
2619,0.01260944474111092,0.8122254758418741
2620,0.01260944474111092,0.8123169838945827
2621,0.012614482473728225,0.8123169838945827
2622,0.012614482473728225,0.8124084919472914
2623,0.012619520206345528,0.8124084919472914
2624,0.012619520206345528,0.8125
2625,0.012644708869432046,0.8125
2626,0.012644708869432046,0.8126830161054173
2627,0.01266485979990126,0.8126830161054173
2628,0.01266485979990126,0.8127745241581259
2629,0.012679972997753171,0.8127745241581259
2630,0.012679972997753171,0.8128660322108345
2631,0.012690048462987779,0.8128660322108345
2632,0.012690048462987779,0.8129575402635432
2633,0.0127202748586916,0.8129575402635432
2634,0.0127202748586916,0.8132320644216691
2635,0.012730350323926207,0.8132320644216691
2636,0.012730350323926207,0.8133235724743777
2637,0.012760576719630028,0.8133235724743777
2638,0.012760576719630028,0.8135065885797951
2639,0.012810954045803066,0.8135065885797951
2640,0.012810954045803066,0.8135980966325037
2641,0.01288652003506262,0.8135980966325037
2642,0.01288652003506262,0.8136896046852123
2643,0.012891557767679923,0.8136896046852123
2644,0.012891557767679923,0.813781112737921
2645,0.012896595500297226,0.813781112737921
2646,0.012896595500297226,0.8139641288433382
2647,0.01290163323291453,0.8139641288433382
2648,0.01290163323291453,0.8141471449487555
2649,0.012906670965531834,0.8141471449487555
2650,0.012906670965531834,0.8142386530014641
2651,0.012911708698149137,0.8142386530014641
2652,0.012911708698149137,0.8143301610541728
2653,0.012921784163383744,0.8143301610541728
2654,0.012921784163383744,0.81451317715959
2655,0.012946972826470263,0.81451317715959
2656,0.012946972826470263,0.8146961932650073
2657,0.012982236954791388,0.8146961932650073
2658,0.012982236954791388,0.8148792093704246
2659,0.013007425617877906,0.8148792093704246
2660,0.013007425617877906,0.8150622254758418
2661,0.013017501083112512,0.8150622254758418
2662,0.013017501083112512,0.8151537335285505
2663,0.013032614280964423,0.8151537335285505
2664,0.013032614280964423,0.8152452415812591
2665,0.013047727478816334,0.8152452415812591
2666,0.013047727478816334,0.8155197657393851
2667,0.013072916141902853,0.8155197657393851
2668,0.013072916141902853,0.8156112737920937
2669,0.013093067072372067,0.8156112737920937
2670,0.013093067072372067,0.8157027818448024
2671,0.01309810480498937,0.8157027818448024
2672,0.01309810480498937,0.815794289897511
2673,0.013103142537606674,0.815794289897511
2674,0.013103142537606674,0.8158857979502196
2675,0.013118255735458585,0.8158857979502196
2676,0.013118255735458585,0.8159773060029283
2677,0.013123293468075888,0.8159773060029283
2678,0.013123293468075888,0.8161603221083455
2679,0.013128331200693191,0.8161603221083455
