,fpr,tpr
0,0.0,0.0
1,0.0,0.0003403675970047651
2,0.0,0.21409121851599727
3,1.7075919538267136e-05,0.21409121851599727
4,1.7075919538267136e-05,0.25731790333560245
5,3.415183907653427e-05,0.25731790333560245
6,3.415183907653427e-05,0.2692307692307692
7,3.415183907653427e-05,0.26991150442477874
8,3.415183907653427e-05,0.27331518039482644
9,5.1227758614801405e-05,0.27331518039482644
10,5.1227758614801405e-05,0.38427501701837985
11,6.830367815306854e-05,0.38427501701837985
12,6.830367815306854e-05,0.38631722260040846
13,8.537959769133568e-05,0.38631722260040846
14,8.537959769133568e-05,0.4081007488087134
15,0.00010245551722960281,0.4081007488087134
16,0.00010245551722960281,0.42443839346494217
17,0.00011953143676786995,0.42443839346494217
18,0.00011953143676786995,0.4326072157930565
19,0.0001366073563061371,0.4326072157930565
20,0.0001366073563061371,0.4407760381211709
21,0.00015368327584440423,0.4407760381211709
22,0.00015368327584440423,0.4475833900612662
23,0.00017075919538267137,0.4475833900612662
24,0.00017075919538267137,0.46562287270251873
25,0.00018783511492093848,0.46562287270251873
26,0.00018783511492093848,0.4785568413886998
27,0.00020491103445920562,0.4785568413886998
28,0.00020491103445920562,0.4823008849557522
29,0.00022198695399747276,0.4823008849557522
30,0.00022198695399747276,0.48298162014976176
31,0.0002390628735357399,0.48298162014976176
32,0.0002390628735357399,0.4833219877467665
33,0.000256138793074007,0.4833219877467665
34,0.000256138793074007,0.4857045609257999
35,0.0002902906321505413,0.4857045609257999
36,0.0002902906321505413,0.4860449285228046
37,0.00030736655168880846,0.4860449285228046
38,0.00030736655168880846,0.4914908100748809
39,0.00032444247122707557,0.4914908100748809
40,0.00032444247122707557,0.4928522804628999
41,0.00034151839076534274,0.4928522804628999
42,0.00034151839076534274,0.49557522123893805
43,0.00035859431030360985,0.49557522123893805
44,0.00035859431030360985,0.4993192648059905
45,0.00039274614938014413,0.4993192648059905
46,0.00039274614938014413,0.5027229407760381
47,0.00040982206891841124,0.5027229407760381
48,0.00040982206891841124,0.5064669843430906
49,0.0004268979884566784,0.5064669843430906
50,0.0004268979884566784,0.5119128658951668
51,0.0004439739079949455,0.5119128658951668
52,0.0004439739079949455,0.5149761742682096
53,0.0004610498275332127,0.5149761742682096
54,0.0004610498275332127,0.5153165418652145
55,0.0004781257470714798,0.5153165418652145
56,0.0004781257470714798,0.5156569094622192
57,0.0004952016666097469,0.5156569094622192
58,0.0004952016666097469,0.5214431586113002
59,0.000512277586148014,0.5214431586113002
60,0.000512277586148014,0.5228046289993192
61,0.0005293535056862812,0.5228046289993192
62,0.0005293535056862812,0.5241660993873384
63,0.0005635053447628155,0.5241660993873384
64,0.0005635053447628155,0.5248468345813478
65,0.0005805812643010826,0.5248468345813478
66,0.0005805812643010826,0.5265486725663717
67,0.0006488849424541511,0.5265486725663717
68,0.0006488849424541511,0.527569775357386
69,0.0006659608619924183,0.527569775357386
70,0.0006659608619924183,0.5340367597004765
71,0.0006830367815306855,0.5340367597004765
72,0.0006830367815306855,0.5360789652825051
73,0.0007001127010689526,0.5360789652825051
74,0.0007001127010689526,0.5364193328795098
75,0.0007171886206072197,0.5364193328795098
76,0.0007171886206072197,0.537780803267529
77,0.0007342645401454868,0.537780803267529
78,0.0007342645401454868,0.5388019060585433
79,0.0007513404596837539,0.5388019060585433
80,0.0007513404596837539,0.5411844792375766
81,0.0007684163792220211,0.5411844792375766
82,0.0007684163792220211,0.5428863172226004
83,0.0007854922987602883,0.5428863172226004
84,0.0007854922987602883,0.5439074200136147
85,0.0008025682182985554,0.5439074200136147
86,0.0008025682182985554,0.5456092579986386
87,0.0008196441378368225,0.5456092579986386
88,0.0008196441378368225,0.5459496255956433
89,0.0008367200573750896,0.5459496255956433
90,0.0008367200573750896,0.555139550714772
91,0.0008537959769133568,0.555139550714772
92,0.0008537959769133568,0.5592239618788292
93,0.0008708718964516239,0.5592239618788292
94,0.0008708718964516239,0.5602450646698435
95,0.000887947815989891,0.5602450646698435
96,0.000887947815989891,0.5616065350578625
97,0.0009050237355281582,0.5616065350578625
98,0.0009050237355281582,0.5667120490129339
99,0.0009391755746046925,0.5667120490129339
100,0.0009391755746046925,0.5677331518039482
101,0.0009562514941429596,0.5677331518039482
102,0.0009562514941429596,0.5684138869979578
103,0.0009733274136812267,0.5684138869979578
104,0.0009733274136812267,0.5690946221919673
105,0.001007479252757761,0.5690946221919673
106,0.001007479252757761,0.5694349897889721
107,0.001024555172296028,0.5694349897889721
108,0.001024555172296028,0.5697753573859768
109,0.0010416310918342953,0.5697753573859768
110,0.0010416310918342953,0.5711368277739959
111,0.0010587070113725625,0.5711368277739959
112,0.0010587070113725625,0.5718175629680055
113,0.0010757829309108295,0.5718175629680055
114,0.0010757829309108295,0.5742001361470388
115,0.0011099347699873637,0.5742001361470388
116,0.0011099347699873637,0.5745405037440435
117,0.001127010689525631,0.5745405037440435
118,0.001127010689525631,0.5786249149081008
119,0.0011440866090638982,0.5786249149081008
120,0.0011440866090638982,0.5803267528931245
121,0.0011611625286021652,0.5803267528931245
122,0.0011611625286021652,0.5806671204901294
123,0.0011782384481404324,0.5806671204901294
124,0.0011782384481404324,0.5816882232811437
125,0.0012123902872169666,0.5816882232811437
126,0.0012123902872169666,0.5820285908781484
127,0.0012465421262935008,0.5820285908781484
128,0.0012465421262935008,0.5823689584751531
129,0.001263618045831768,0.5823689584751531
130,0.001263618045831768,0.5830496936691627
131,0.0012806939653700353,0.5830496936691627
132,0.0012806939653700353,0.5881552076242341
133,0.0013148458044465695,0.5881552076242341
134,0.0013148458044465695,0.589857045609258
135,0.0013319217239848365,0.589857045609258
136,0.0013319217239848365,0.5908781484002723
137,0.0013489976435231037,0.5908781484002723
138,0.0013489976435231037,0.5925799863852961
139,0.001383149482599638,0.5925799863852961
140,0.001383149482599638,0.59428182437032
141,0.0014002254021379052,0.59428182437032
142,0.0014002254021379052,0.5946221919673247
143,0.0014173013216761722,0.5946221919673247
144,0.0014173013216761722,0.5949625595643295
145,0.0014343772412144394,0.5949625595643295
146,0.0014343772412144394,0.5993873383253914
147,0.0014514531607527066,0.5993873383253914
148,0.0014514531607527066,0.6010891763104153
149,0.0014685290802909736,0.6010891763104153
150,0.0014685290802909736,0.602791014295439
151,0.0014856049998292408,0.602791014295439
152,0.0014856049998292408,0.6041524846834582
153,0.001519756838905775,0.6041524846834582
154,0.001519756838905775,0.6048332198774676
155,0.0015539086779823093,0.6048332198774676
156,0.0015539086779823093,0.6058543226684819
157,0.0015880605170588435,0.6058543226684819
158,0.0015880605170588435,0.6065350578624915
159,0.001622212356135378,0.6065350578624915
160,0.001622212356135378,0.6075561606535058
161,0.001639288275673645,0.6075561606535058
162,0.001639288275673645,0.6085772634445201
163,0.0016905160342884464,0.6085772634445201
164,0.0016905160342884464,0.6113002042205582
165,0.0017246678733649806,0.6113002042205582
166,0.0017246678733649806,0.6119809394145678
167,0.001758819712441515,0.6119809394145678
168,0.001758819712441515,0.6143635125936011
169,0.001775895631979782,0.6143635125936011
170,0.001775895631979782,0.6160653505786249
171,0.0017929715515180493,0.6160653505786249
172,0.0017929715515180493,0.6167460857726345
173,0.0018441993101328507,0.6167460857726345
174,0.0018441993101328507,0.617426820966644
175,0.0018612752296711178,0.617426820966644
176,0.0018612752296711178,0.6177671885636488
177,0.001878351149209385,0.6177671885636488
178,0.001878351149209385,0.6181075561606535
179,0.001895427068747652,0.6181075561606535
180,0.001895427068747652,0.6191286589516678
181,0.0019125029882859192,0.6191286589516678
182,0.0019125029882859192,0.6194690265486725
183,0.0019295789078241864,0.6194690265486725
184,0.0019295789078241864,0.6204901293396868
185,0.0019466548273624534,0.6204901293396868
186,0.0019466548273624534,0.6215112321307011
187,0.0019637307469007204,0.6215112321307011
188,0.0019637307469007204,0.6218515997277059
189,0.0019808066664389876,0.6218515997277059
190,0.0019808066664389876,0.623213070115725
191,0.002049110344592056,0.623213070115725
192,0.002049110344592056,0.6242341729067393
193,0.0020661862641303233,0.6242341729067393
194,0.0020661862641303233,0.6249149081007488
195,0.0020832621836685905,0.6249149081007488
196,0.0020832621836685905,0.6269571136827774
197,0.0021003381032068578,0.6269571136827774
198,0.0021003381032068578,0.6272974812797821
199,0.002117414022745125,0.6272974812797821
200,0.002117414022745125,0.630360789652825
201,0.0021344899422833918,0.630360789652825
202,0.0021344899422833918,0.6313818924438394
203,0.002168641781359926,0.6313818924438394
204,0.002168641781359926,0.6317222600408441
205,0.0021857177008981934,0.6317222600408441
206,0.0021857177008981934,0.633424098025868
207,0.0022027936204364607,0.633424098025868
208,0.0022027936204364607,0.6344452008168823
209,0.0022198695399747274,0.6344452008168823
210,0.0022198695399747274,0.6351259360108917
211,0.0022369454595129947,0.6351259360108917
212,0.0022369454595129947,0.6354663036078966
213,0.002254021379051262,0.6354663036078966
214,0.002254021379051262,0.636147038801906
215,0.002271097298589529,0.636147038801906
216,0.002271097298589529,0.6368277739959156
217,0.002305249137666063,0.6368277739959156
218,0.002305249137666063,0.6378488767869299
219,0.0023223250572043303,0.6378488767869299
220,0.0023223250572043303,0.6381892443839347
221,0.002373552815819132,0.6381892443839347
222,0.002373552815819132,0.639210347174949
223,0.0023906287353573988,0.639210347174949
224,0.0023906287353573988,0.6395507147719537
225,0.002407704654895666,0.6395507147719537
226,0.002407704654895666,0.6402314499659633
227,0.0024247805744339332,0.6402314499659633
228,0.0024247805744339332,0.6426140231449966
229,0.0024418564939722004,0.6426140231449966
230,0.0024418564939722004,0.6446562287270252
231,0.0024589324135104677,0.6446562287270252
232,0.0024589324135104677,0.6484002722940776
233,0.002476008333048735,0.6484002722940776
234,0.002476008333048735,0.6487406398910823
235,0.0024930842525870017,0.6487406398910823
236,0.0024930842525870017,0.6497617426820966
237,0.002510160172125269,0.6497617426820966
238,0.002510160172125269,0.6514635806671205
239,0.002527236091663536,0.6514635806671205
240,0.002527236091663536,0.6518039482641252
241,0.0025443120112018033,0.6518039482641252
242,0.0025443120112018033,0.65214431586113
243,0.0025613879307400706,0.65214431586113
244,0.0025613879307400706,0.6528250510551395
245,0.0025784638502783373,0.6528250510551395
246,0.0025784638502783373,0.6538461538461539
247,0.0025955397698166046,0.6538461538461539
248,0.0025955397698166046,0.6541865214431586
249,0.002629691608893139,0.6541865214431586
250,0.002629691608893139,0.6555479918311776
251,0.0026809193675079402,0.6555479918311776
252,0.0026809193675079402,0.6575901974132062
253,0.0026979952870462075,0.6575901974132062
254,0.0026979952870462075,0.6579305650102111
255,0.002732147126122742,0.6579305650102111
256,0.002732147126122742,0.6592920353982301
257,0.0027492230456610087,0.6592920353982301
258,0.0027492230456610087,0.6603131381892444
259,0.002766298965199276,0.6603131381892444
260,0.002766298965199276,0.6623553437712729
261,0.002783374884737543,0.6623553437712729
262,0.002783374884737543,0.6630360789652825
263,0.0028004508042758103,0.6630360789652825
264,0.0028004508042758103,0.6637168141592921
265,0.0028175267238140776,0.6637168141592921
266,0.0028175267238140776,0.6650782845473111
267,0.0028346026433523444,0.6650782845473111
268,0.0028346026433523444,0.6657590197413207
269,0.002868754482428879,0.6657590197413207
270,0.002868754482428879,0.6667801225323349
271,0.002885830401967146,0.6667801225323349
272,0.002885830401967146,0.6678012253233492
273,0.0029029063215054132,0.6678012253233492
274,0.0029029063215054132,0.668141592920354
275,0.0030053618387350157,0.668141592920354
276,0.0030053618387350157,0.6684819605173588
277,0.0030565895973498174,0.6684819605173588
278,0.0030565895973498174,0.6688223281143635
279,0.0030736655168880846,0.6688223281143635
280,0.0030736655168880846,0.6691626957113683
281,0.0030907414364263514,0.6691626957113683
282,0.0030907414364263514,0.6701837985023825
283,0.003141969195041153,0.6701837985023825
284,0.003141969195041153,0.6718856364874064
285,0.0032102728731942215,0.6718856364874064
286,0.0032102728731942215,0.672566371681416
287,0.003244424712270756,0.672566371681416
288,0.003244424712270756,0.6729067392784207
289,0.0032615006318090227,0.6729067392784207
290,0.0032615006318090227,0.673927842069435
291,0.00327857655134729,0.673927842069435
292,0.00327857655134729,0.6746085772634445
293,0.0033127283904238244,0.6746085772634445
294,0.0033127283904238244,0.6749489448604493
295,0.0033468802295003584,0.6749489448604493
296,0.0033468802295003584,0.675289312457454
297,0.0033639561490386256,0.675289312457454
298,0.0033639561490386256,0.6756296800544588
299,0.00339810798811516,0.6756296800544588
300,0.00339810798811516,0.6769911504424779
301,0.0034493357467299613,0.6769911504424779
302,0.0034493357467299613,0.6773315180394827
303,0.0034664116662682285,0.6773315180394827
304,0.0034664116662682285,0.6776718856364874
305,0.003500563505344763,0.6776718856364874
306,0.003500563505344763,0.6780122532334921
307,0.00351763942488303,0.6780122532334921
308,0.00351763942488303,0.6786929884275017
309,0.0035688671834978314,0.6786929884275017
310,0.0035688671834978314,0.6790333560245064
311,0.0035859431030360986,0.6790333560245064
312,0.0035859431030360986,0.679714091218516
313,0.003603019022574366,0.679714091218516
314,0.003603019022574366,0.6800544588155207
315,0.0036200949421126326,0.6800544588155207
316,0.0036200949421126326,0.681075561606535
317,0.0036371708616509,0.681075561606535
318,0.0036371708616509,0.6817562968005446
319,0.003654246781189167,0.6817562968005446
320,0.003654246781189167,0.6820966643975493
321,0.0036713227007274343,0.6820966643975493
322,0.0036713227007274343,0.6824370319945541
323,0.0036883986202657015,0.6824370319945541
324,0.0036883986202657015,0.6827773995915589
325,0.0037396263788805027,0.6827773995915589
326,0.0037396263788805027,0.6834581347855684
327,0.00375670229841877,0.6834581347855684
328,0.00375670229841877,0.6837985023825732
329,0.003773778217957037,0.6837985023825732
330,0.003773778217957037,0.6844792375765827
331,0.003790854137495304,0.6844792375765827
332,0.003790854137495304,0.6848196051735874
333,0.003807930057033571,0.6848196051735874
334,0.003807930057033571,0.6851599727705923
335,0.0038762337351866396,0.6851599727705923
336,0.0038762337351866396,0.6858407079646017
337,0.003978689252416243,0.6858407079646017
338,0.003978689252416243,0.6882232811436352
339,0.00399576517195451,0.6882232811436352
340,0.00399576517195451,0.689925119128659
341,0.004064068850107579,0.689925119128659
342,0.004064068850107579,0.6902654867256637
343,0.004098220689184112,0.6902654867256637
344,0.004098220689184112,0.6916269571136828
345,0.00411529660872238,0.6916269571136828
346,0.00411529660872238,0.6936691626957113
347,0.004149448447798914,0.6936691626957113
348,0.004149448447798914,0.6940095302927162
349,0.0042006762064137155,0.6940095302927162
350,0.0042006762064137155,0.6946902654867256
351,0.004217752125951982,0.6946902654867256
352,0.004217752125951982,0.6957113682777399
353,0.00423482804549025,0.6957113682777399
354,0.00423482804549025,0.697072838665759
355,0.004303131723643318,0.697072838665759
356,0.004303131723643318,0.6977535738597685
357,0.004320207643181586,0.6977535738597685
358,0.004320207643181586,0.6980939414567733
359,0.004337283562719852,0.6980939414567733
360,0.004337283562719852,0.6984343090537781
361,0.004388511321334654,0.6984343090537781
362,0.004388511321334654,0.6987746766507829
363,0.004405587240872921,0.6987746766507829
364,0.004405587240872921,0.6994554118447924
365,0.004439739079949455,0.6994554118447924
366,0.004439739079949455,0.7004765146358066
367,0.0044568149994877225,0.7004765146358066
368,0.0044568149994877225,0.7008168822328115
369,0.004473890919025989,0.7008168822328115
370,0.004473890919025989,0.7011572498298162
371,0.0045251186776407906,0.7011572498298162
372,0.0045251186776407906,0.7018379850238258
373,0.004576346436255593,0.7018379850238258
374,0.004576346436255593,0.7038801906058543
375,0.004627574194870394,0.7038801906058543
376,0.004627574194870394,0.7042205582028591
377,0.004661726033946928,0.7042205582028591
378,0.004661726033946928,0.7045609257998638
379,0.004695877873023462,0.7045609257998638
380,0.004695877873023462,0.7049012933968686
381,0.004730029712099996,0.7049012933968686
382,0.004730029712099996,0.7052416609938734
383,0.004747105631638264,0.7052416609938734
384,0.004747105631638264,0.7069434989788972
385,0.004798333390253065,0.7069434989788972
386,0.004798333390253065,0.7076242341729068
387,0.004883712987944401,0.7076242341729068
388,0.004883712987944401,0.7083049693669162
389,0.004917864827020935,0.7083049693669162
390,0.004917864827020935,0.7093260721579305
391,0.004934940746559202,0.7093260721579305
392,0.004934940746559202,0.7103471749489448
393,0.0049690925856357366,0.7103471749489448
394,0.0049690925856357366,0.7110279101429544
395,0.004986168505174003,0.7110279101429544
396,0.004986168505174003,0.7117086453369639
397,0.005003244424712271,0.7117086453369639
398,0.005003244424712271,0.713070115724983
399,0.0050373962637888054,0.713070115724983
400,0.0050373962637888054,0.7134104833219878
401,0.005088624022403607,0.7134104833219878
402,0.005088624022403607,0.7137508509189925
403,0.005156927700556675,0.7137508509189925
404,0.005156927700556675,0.7147719537100068
405,0.005208155459171477,0.7147719537100068
406,0.005208155459171477,0.7151123213070115
407,0.00524230729824801,0.7151123213070115
408,0.00524230729824801,0.7171545268890401
409,0.005259383217786278,0.7171545268890401
410,0.005259383217786278,0.7178352620830497
411,0.005276459137324545,0.7178352620830497
412,0.005276459137324545,0.7181756296800544
413,0.0053618387350158805,0.7181756296800544
414,0.0053618387350158805,0.7185159972770592
415,0.005413066493630682,0.7185159972770592
416,0.005413066493630682,0.718856364874064
417,0.005464294252245484,0.718856364874064
418,0.005464294252245484,0.7191967324710687
419,0.005515522010860285,0.7191967324710687
420,0.005515522010860285,0.7195371000680735
421,0.005532597930398552,0.7195371000680735
422,0.005532597930398552,0.7198774676650783
423,0.0055496738499368195,0.7198774676650783
424,0.0055496738499368195,0.7205582028590878
425,0.005600901608551621,0.7205582028590878
426,0.005600901608551621,0.7208985704560926
427,0.005669205286704689,0.7208985704560926
428,0.005669205286704689,0.7212389380530974
429,0.005686281206242956,0.7212389380530974
430,0.005686281206242956,0.7219196732471069
431,0.005754584884396024,0.7219196732471069
432,0.005754584884396024,0.7222600408441117
433,0.005771660803934292,0.7222600408441117
434,0.005771660803934292,0.723281143635126
435,0.0058058126430108265,0.723281143635126
436,0.0058058126430108265,0.7236215112321307
437,0.005822888562549093,0.7236215112321307
438,0.005822888562549093,0.7239618788291354
439,0.005891192240702162,0.7239618788291354
440,0.005891192240702162,0.7249829816201497
441,0.005908268160240429,0.7249829816201497
442,0.005908268160240429,0.7253233492171546
443,0.005925344079778696,0.7253233492171546
444,0.005925344079778696,0.7263444520081688
445,0.006010723677470031,0.7263444520081688
446,0.006010723677470031,0.7266848196051736
447,0.006027799597008299,0.7266848196051736
448,0.006027799597008299,0.7270251872021783
449,0.0060619514360848335,0.7270251872021783
450,0.0060619514360848335,0.7280462899931927
451,0.006113179194699635,0.7280462899931927
452,0.006113179194699635,0.7283866575901974
453,0.0061302551142379015,0.7283866575901974
454,0.0061302551142379015,0.7294077603812117
455,0.006147331033776169,0.7294077603812117
456,0.006147331033776169,0.7297481279782164
457,0.00619855879239097,0.7297481279782164
458,0.00619855879239097,0.7300884955752213
459,0.006215634711929237,0.7300884955752213
460,0.006215634711929237,0.7307692307692307
461,0.0063180902291588405,0.7307692307692307
462,0.0063180902291588405,0.7311095983662356
463,0.006335166148697107,0.7311095983662356
464,0.006335166148697107,0.7314499659632403
465,0.006352242068235374,0.7314499659632403
466,0.006352242068235374,0.731790333560245
467,0.006369317987773642,0.731790333560245
468,0.006369317987773642,0.7324710687542546
469,0.006403469826850176,0.7324710687542546
470,0.006403469826850176,0.7328114363512593
471,0.00643762166592671,0.7328114363512593
472,0.00643762166592671,0.7331518039482642
473,0.006454697585464977,0.7331518039482642
474,0.006454697585464977,0.7334921715452689
475,0.006471773505003244,0.7334921715452689
476,0.006471773505003244,0.7351940095302927
477,0.006488849424541512,0.7351940095302927
478,0.006488849424541512,0.7355343771272975
479,0.006505925344079779,0.7355343771272975
480,0.006505925344079779,0.736215112321307
481,0.006523001263618045,0.736215112321307
482,0.006523001263618045,0.7365554799183118
483,0.006591304941771114,0.7365554799183118
484,0.006591304941771114,0.7368958475153166
485,0.006625456780847649,0.7368958475153166
486,0.006625456780847649,0.7379169503063309
487,0.0066425327003859155,0.7379169503063309
488,0.0066425327003859155,0.7382573179033356
489,0.00667668453946245,0.7382573179033356
490,0.00667668453946245,0.7385976855003403
491,0.006693760459000717,0.7385976855003403
492,0.006693760459000717,0.7392784206943499
493,0.006727912298077251,0.7392784206943499
494,0.006727912298077251,0.7413206262763785
495,0.006744988217615519,0.7413206262763785
496,0.006744988217615519,0.742001361470388
497,0.0068986714934599225,0.742001361470388
498,0.0068986714934599225,0.7423417290673928
499,0.00691574741299819,0.7423417290673928
500,0.00691574741299819,0.7426820966643976
501,0.006932823332536457,0.7426820966643976
502,0.006932823332536457,0.7430224642614023
503,0.006949899252074725,0.7430224642614023
504,0.006949899252074725,0.7433628318584071
505,0.006984051091151258,0.7433628318584071
506,0.006984051091151258,0.7437031994554119
507,0.007001127010689526,0.7437031994554119
508,0.007001127010689526,0.7443839346494214
509,0.007018202930227793,0.7443839346494214
510,0.007018202930227793,0.7450646698434309
511,0.007052354769304327,0.7450646698434309
512,0.007052354769304327,0.7460857726344452
513,0.0070865066083808615,0.7460857726344452
514,0.0070865066083808615,0.7464261402314499
515,0.0071548102865339296,0.7464261402314499
516,0.0071548102865339296,0.7474472430224642
517,0.007171886206072197,0.7474472430224642
518,0.007171886206072197,0.7477876106194691
519,0.007188962125610464,0.7477876106194691
520,0.007188962125610464,0.7481279782164738
521,0.007240189884225265,0.7481279782164738
522,0.007240189884225265,0.7484683458134785
523,0.007257265803763533,0.7484683458134785
524,0.007257265803763533,0.7491490810074881
525,0.007291417642840067,0.7491490810074881
526,0.007291417642840067,0.7508509189925119
527,0.007359721320993135,0.7508509189925119
528,0.007359721320993135,0.7511912865895167
529,0.007410949079607937,0.7511912865895167
530,0.007410949079607937,0.7522123893805309
531,0.007428024999146204,0.7522123893805309
532,0.007428024999146204,0.7535738597685501
533,0.007445100918684471,0.7535738597685501
534,0.007445100918684471,0.7549353301565691
535,0.0074792527577610055,0.7549353301565691
536,0.0074792527577610055,0.7552756977535738
537,0.00751340459683754,0.7552756977535738
538,0.00751340459683754,0.7559564329475834
539,0.007581708274990608,0.7559564329475834
540,0.007581708274990608,0.7566371681415929
541,0.007615860114067142,0.7566371681415929
542,0.007615860114067142,0.7569775357385977
543,0.00763293603360541,0.7569775357385977
544,0.00763293603360541,0.7586793737236215
545,0.0077353915508350125,0.7586793737236215
546,0.0077353915508350125,0.7590197413206263
547,0.007752467470373279,0.7590197413206263
548,0.007752467470373279,0.7593601089176311
549,0.007786619309449814,0.7593601089176311
550,0.007786619309449814,0.7597004765146358
551,0.007854922987602882,0.7597004765146358
552,0.007854922987602882,0.7603812117086454
553,0.007889074826679417,0.7603812117086454
554,0.007889074826679417,0.7607215793056501
555,0.00792322666575595,0.7607215793056501
556,0.00792322666575595,0.7614023144996597
557,0.007974454424370753,0.7614023144996597
558,0.007974454424370753,0.762423417290674
559,0.00799153034390902,0.762423417290674
560,0.00799153034390902,0.7627637848876787
561,0.008076909941600355,0.7627637848876787
562,0.008076909941600355,0.7631041524846834
563,0.008145213619753424,0.7631041524846834
564,0.008145213619753424,0.763784887678693
565,0.008213517297906493,0.763784887678693
566,0.008213517297906493,0.7641252552756977
567,0.008264745056521293,0.7641252552756977
568,0.008264745056521293,0.7648059904697073
569,0.008315972815136095,0.7648059904697073
570,0.008315972815136095,0.765146358066712
571,0.008367200573750896,0.765146358066712
572,0.008367200573750896,0.7654867256637168
573,0.008418428332365698,0.7654867256637168
574,0.008418428332365698,0.7661674608577264
575,0.008435504251903965,0.7661674608577264
576,0.008435504251903965,0.7668481960517358
577,0.008503807930057034,0.7668481960517358
578,0.008503807930057034,0.768209666439755
579,0.008657491205901438,0.768209666439755
580,0.008657491205901438,0.7685500340367597
581,0.008742870803592774,0.7685500340367597
582,0.008742870803592774,0.7688904016337644
583,0.00875994672313104,0.7688904016337644
584,0.00875994672313104,0.769571136827774
585,0.008811174481745843,0.769571136827774
586,0.008811174481745843,0.7702518720217836
587,0.008845326320822376,0.7702518720217836
588,0.008845326320822376,0.7705922396187883
589,0.00887947815989891,0.7705922396187883
590,0.00887947815989891,0.7712729748127978
591,0.008930705918513712,0.7712729748127978
592,0.008930705918513712,0.7716133424098026
593,0.009050237355281581,0.7716133424098026
594,0.009050237355281581,0.7726344452008169
595,0.00911854103343465,0.7726344452008169
596,0.00911854103343465,0.7733151803948264
597,0.009135616952972917,0.7733151803948264
598,0.009135616952972917,0.7736555479918312
599,0.009152692872511185,0.7736555479918312
600,0.009152692872511185,0.773995915588836
601,0.009203920631125986,0.773995915588836
602,0.009203920631125986,0.7743362831858407
603,0.009238072470202521,0.7743362831858407
604,0.009238072470202521,0.7746766507828454
605,0.009255148389740788,0.7746766507828454
606,0.009255148389740788,0.7750170183798503
607,0.009306376148355588,0.7750170183798503
608,0.009306376148355588,0.775357385976855
609,0.009323452067893857,0.775357385976855
610,0.009323452067893857,0.7756977535738597
611,0.009374679826508657,0.7756977535738597
612,0.009374679826508657,0.7760381211708646
613,0.009425907585123459,0.7760381211708646
614,0.009425907585123459,0.7763784887678693
615,0.009442983504661726,0.7763784887678693
616,0.009442983504661726,0.7770592239618789
617,0.009494211263276528,0.7770592239618789
618,0.009494211263276528,0.7773995915588836
619,0.009528363102353062,0.7773995915588836
620,0.009528363102353062,0.7777399591558883
621,0.00959666678050613,0.7777399591558883
622,0.00959666678050613,0.7780803267528931
623,0.009613742700044397,0.7780803267528931
624,0.009613742700044397,0.7784206943498979
625,0.009784501895427069,0.7784206943498979
626,0.009784501895427069,0.7787610619469026
627,0.009921109251733206,0.7787610619469026
628,0.009921109251733206,0.7801225323349217
629,0.009938185171271473,0.7801225323349217
630,0.009938185171271473,0.7808032675289313
631,0.010006488849424542,0.7808032675289313
632,0.010006488849424542,0.781143635125936
633,0.010108944366654144,0.781143635125936
634,0.010108944366654144,0.7814840027229408
635,0.010126020286192411,0.7814840027229408
636,0.010126020286192411,0.7821647379169503
637,0.010211399883883747,0.7821647379169503
638,0.010211399883883747,0.7828454731109599
639,0.010279703562036816,0.7828454731109599
640,0.010279703562036816,0.7831858407079646
641,0.010399234998804685,0.7831858407079646
642,0.010399234998804685,0.7835262083049693
643,0.010416310918342954,0.7835262083049693
644,0.010416310918342954,0.7838665759019742
645,0.010450462757419487,0.7838665759019742
646,0.010450462757419487,0.7845473110959836
647,0.01050169051603429,0.7845473110959836
648,0.01050169051603429,0.7848876786929885
649,0.010569994194187356,0.7848876786929885
650,0.010569994194187356,0.7852280462899932
651,0.010638297872340425,0.7852280462899932
652,0.010638297872340425,0.7855684138869979
653,0.010655373791878692,0.7855684138869979
654,0.010655373791878692,0.7859087814840027
655,0.010689525630955227,0.7859087814840027
656,0.010689525630955227,0.7862491490810075
657,0.010706601550493494,0.7862491490810075
658,0.010706601550493494,0.7865895166780122
659,0.010723677470031761,0.7865895166780122
660,0.010723677470031761,0.786929884275017
661,0.010774905228646563,0.786929884275017
662,0.010774905228646563,0.7872702518720218
663,0.010894436665414432,0.7872702518720218
664,0.010894436665414432,0.7876106194690266
665,0.010911512584952699,0.7876106194690266
666,0.010911512584952699,0.7882913546630361
667,0.010979816263105768,0.7882913546630361
668,0.010979816263105768,0.7886317222600409
669,0.01108227178033537,0.7886317222600409
670,0.01108227178033537,0.7893124574540503
671,0.011099347699873639,0.7893124574540503
672,0.011099347699873639,0.7899931926480599
673,0.011235955056179775,0.7899931926480599
674,0.011235955056179775,0.7903335602450646
675,0.01132133465387111,0.7903335602450646
676,0.01132133465387111,0.7906739278420695
677,0.011475017929715515,0.7906739278420695
678,0.011475017929715515,0.7910142954390742
679,0.011645777125098187,0.7910142954390742
680,0.011645777125098187,0.7913546630360789
681,0.011662853044636453,0.7913546630360789
682,0.011662853044636453,0.7916950306330838
683,0.01167992896417472,0.7916950306330838
684,0.01167992896417472,0.7920353982300885
685,0.011714080803251255,0.7920353982300885
686,0.011714080803251255,0.7927161334240981
687,0.011901915918172194,0.7927161334240981
688,0.011901915918172194,0.7930565010211028
689,0.01191899183771046,0.7930565010211028
690,0.01191899183771046,0.7933968686181075
691,0.011953143676786996,0.7933968686181075
692,0.011953143676786996,0.7937372362151123
693,0.011970219596325262,0.7937372362151123
694,0.011970219596325262,0.7940776038121171
695,0.01198729551586353,0.7940776038121171
696,0.01198729551586353,0.7944179714091218
697,0.012004371435401796,0.7944179714091218
698,0.012004371435401796,0.7947583390061266
699,0.012106826952631398,0.7947583390061266
700,0.012106826952631398,0.7950987066031314
701,0.012243434308937536,0.7950987066031314
702,0.012243434308937536,0.7954390742001362
703,0.012362965745705405,0.7954390742001362
704,0.012362965745705405,0.7957794417971409
705,0.012380041665243674,0.7957794417971409
706,0.012380041665243674,0.7961198093941457
707,0.01246542126293501,0.7961198093941457
708,0.01246542126293501,0.7968005445881552
709,0.012584952699702879,0.7968005445881552
710,0.012584952699702879,0.7971409121851599
711,0.012636180458317681,0.7971409121851599
712,0.012636180458317681,0.7974812797821648
713,0.012721560056009017,0.7974812797821648
714,0.012721560056009017,0.7978216473791695
715,0.012738635975547283,0.7978216473791695
716,0.012738635975547283,0.7988427501701838
717,0.012772787814623817,0.7988427501701838
718,0.012772787814623817,0.7991831177671885
719,0.012806939653700352,0.7991831177671885
720,0.012806939653700352,0.7995234853641934
721,0.012841091492776886,0.7995234853641934
722,0.012841091492776886,0.8002042205582028
723,0.013011850688159557,0.8002042205582028
724,0.013011850688159557,0.8015656909462219
725,0.013097230285850893,0.8015656909462219
726,0.013097230285850893,0.8022464261402315
727,0.01311430620538916,0.8022464261402315
728,0.01311430620538916,0.8025867937372362
729,0.013165533964003962,0.8025867937372362
730,0.013165533964003962,0.8032675289312458
731,0.013182609883542229,0.8032675289312458
732,0.013182609883542229,0.8039482641252553
733,0.013216761722618762,0.8039482641252553
734,0.013216761722618762,0.8042886317222601
735,0.013250913561695297,0.8042886317222601
736,0.013250913561695297,0.8046289993192648
737,0.013285065400771831,0.8046289993192648
738,0.013285065400771831,0.8053097345132744
739,0.013302141320310098,0.8053097345132744
740,0.013302141320310098,0.8059904697072838
741,0.013438748676616236,0.8059904697072838
742,0.013438748676616236,0.8070115724982981
743,0.01347290051569277,0.8070115724982981
744,0.01347290051569277,0.807351940095303
745,0.013489976435231038,0.807351940095303
746,0.013489976435231038,0.8076923076923077
747,0.013524128274307571,0.8076923076923077
748,0.013524128274307571,0.8080326752893124
749,0.013541204193845838,0.8080326752893124
750,0.013541204193845838,0.8083730428863172
751,0.013575356032922373,0.8083730428863172
752,0.013575356032922373,0.808713410483322
753,0.013694887469690243,0.808713410483322
754,0.013694887469690243,0.8090537780803267
755,0.013797342986919845,0.8090537780803267
756,0.013797342986919845,0.8093941456773315
757,0.013848570745534647,0.8093941456773315
758,0.013848570745534647,0.810074880871341
759,0.01389979850414945,0.810074880871341
760,0.01389979850414945,0.8104152484683458
761,0.013933950343225983,0.8104152484683458
762,0.013933950343225983,0.8107556160653506
763,0.014002254021379052,0.8107556160653506
764,0.014002254021379052,0.8110959836623554
765,0.014036405860455585,0.8110959836623554
766,0.014036405860455585,0.8114363512593601
767,0.014087633619070387,0.8114363512593601
768,0.014087633619070387,0.8121170864533697
769,0.014138861377685188,0.8121170864533697
770,0.014138861377685188,0.8127978216473791
771,0.014258392814453059,0.8127978216473791
772,0.014258392814453059,0.813138189244384
773,0.014292544653529592,0.813138189244384
774,0.014292544653529592,0.8134785568413887
775,0.014326696492606128,0.8134785568413887
776,0.014326696492606128,0.8138189244383934
777,0.014377924251220928,0.8138189244383934
778,0.014377924251220928,0.814499659632403
779,0.014395000170759195,0.814499659632403
780,0.014395000170759195,0.8148400272294077
781,0.014412076090297463,0.8148400272294077
782,0.014412076090297463,0.8151803948264126
783,0.01442915200983573,0.8151803948264126
784,0.01442915200983573,0.8155207624234173
785,0.01448037976845053,0.8155207624234173
786,0.01448037976845053,0.8162014976174268
787,0.014514531607527066,0.8162014976174268
788,0.014514531607527066,0.8165418652144316
789,0.014599911205218401,0.8165418652144316
790,0.014599911205218401,0.8168822328114363
791,0.014634063044294935,0.8168822328114363
792,0.014634063044294935,0.8172226004084411
793,0.014736518561524537,0.8172226004084411
794,0.014736518561524537,0.8175629680054459
795,0.014838974078754142,0.8175629680054459
796,0.014838974078754142,0.8179033356024507
797,0.014890201837368942,0.8179033356024507
798,0.014890201837368942,0.8182437031994554
799,0.014958505515522011,0.8182437031994554
800,0.014958505515522011,0.818924438393465
801,0.014992657354598544,0.818924438393465
802,0.014992657354598544,0.8196051735874744
803,0.015060961032751613,0.8196051735874744
804,0.015060961032751613,0.8199455411844793
805,0.015163416549981216,0.8199455411844793
806,0.015163416549981216,0.820285908781484
807,0.015248796147672551,0.820285908781484
808,0.015248796147672551,0.8206262763784887
809,0.015351251664902156,0.8206262763784887
810,0.015351251664902156,0.821647379169503
811,0.015402479423516956,0.821647379169503
812,0.015402479423516956,0.8219877467665079
813,0.015470783101670025,0.8219877467665079
814,0.015470783101670025,0.8226684819605173
815,0.01562446637751443,0.8226684819605173
816,0.01562446637751443,0.8230088495575221
817,0.015709845975205763,0.8230088495575221
818,0.015709845975205763,0.8233492171545269
819,0.015829377411973634,0.8233492171545269
820,0.015829377411973634,0.8236895847515316
821,0.0158464533315119,0.8236895847515316
822,0.0158464533315119,0.8243703199455412
823,0.015914757009664972,0.8243703199455412
824,0.015914757009664972,0.824710687542546
825,0.015948908848741505,0.824710687542546
826,0.015948908848741505,0.8250510551395507
827,0.015965984768279772,0.8250510551395507
828,0.015965984768279772,0.8257317903335603
829,0.01603428844643284,0.8257317903335603
830,0.01603428844643284,0.826072157930565
831,0.01610259212458591,0.826072157930565
832,0.01610259212458591,0.8264125255275698
833,0.016170895802738977,0.8264125255275698
834,0.016170895802738977,0.8270932607215793
835,0.016222123561353777,0.8270932607215793
836,0.016222123561353777,0.827433628318584
837,0.016290427239506848,0.827433628318584
838,0.016290427239506848,0.8277739959155889
839,0.016478262354427786,0.8277739959155889
840,0.016478262354427786,0.8291354663036079
841,0.016495338273966053,0.8291354663036079
842,0.016495338273966053,0.8294758339006126
843,0.016546566032580853,0.8294758339006126
844,0.016546566032580853,0.8301565690946222
845,0.01663194563027219,0.8301565690946222
846,0.01663194563027219,0.8304969366916269
847,0.016717325227963525,0.8304969366916269
848,0.016717325227963525,0.8308373042886317
849,0.01681978074519313,0.8308373042886317
850,0.01681978074519313,0.8315180394826412
851,0.016905160342884463,0.8315180394826412
852,0.016905160342884463,0.831858407079646
853,0.017058843618728867,0.831858407079646
854,0.017058843618728867,0.8321987746766508
855,0.01711007137734367,0.8321987746766508
856,0.01711007137734367,0.8325391422736556
857,0.017127147296881938,0.8325391422736556
858,0.017127147296881938,0.8328795098706603
859,0.017144223216420205,0.8328795098706603
860,0.017144223216420205,0.8332198774676651
861,0.01717837505549674,0.8332198774676651
862,0.01717837505549674,0.8335602450646699
863,0.01722960281411154,0.8335602450646699
864,0.01722960281411154,0.8339006126616746
865,0.017280830572726343,0.8339006126616746
866,0.017280830572726343,0.8342409802586793
867,0.017314982411802876,0.8342409802586793
868,0.017314982411802876,0.8345813478556842
869,0.017383286089955943,0.8345813478556842
870,0.017383286089955943,0.8349217154526889
871,0.017451589768109014,0.8349217154526889
872,0.017451589768109014,0.8352620830496936
873,0.01746866568764728,0.8352620830496936
874,0.01746866568764728,0.8356024506466985
875,0.01751989344626208,0.8356024506466985
876,0.01751989344626208,0.8359428182437032
877,0.01775895631979782,0.8359428182437032
878,0.01775895631979782,0.8362831858407079
879,0.01799801919333356,0.8362831858407079
880,0.01799801919333356,0.8366235534377128
881,0.01806632287148663,0.8366235534377128
882,0.01806632287148663,0.8373042886317222
883,0.0181858543082545,0.8373042886317222
884,0.0181858543082545,0.8376446562287271
885,0.01830538574502237,0.8376446562287271
886,0.01830538574502237,0.8383253914227365
887,0.018339537584098904,0.8383253914227365
888,0.018339537584098904,0.8390061266167461
889,0.018424917181790238,0.8390061266167461
890,0.018424917181790238,0.8393464942137508
891,0.018561524538096376,0.8393464942137508
892,0.018561524538096376,0.8396868618107556
893,0.018578600457634643,0.8396868618107556
894,0.018578600457634643,0.8400272294077604
895,0.01883473925070865,0.8400272294077604
896,0.01883473925070865,0.8403675970047652
897,0.018885967009323452,0.8403675970047652
898,0.018885967009323452,0.8407079646017699
899,0.019056726204706123,0.8407079646017699
900,0.019056726204706123,0.8410483321987747
901,0.01907380212424439,0.8410483321987747
902,0.01907380212424439,0.8413886997957795
903,0.019090878043782657,0.8413886997957795
904,0.019090878043782657,0.8417290673927842
905,0.01924456131962706,0.8417290673927842
906,0.01924456131962706,0.8420694349897889
907,0.019278713158703595,0.8420694349897889
908,0.019278713158703595,0.8424098025867938
909,0.01929578907824186,0.8424098025867938
910,0.01929578907824186,0.8427501701837985
911,0.019364092756394932,0.8427501701837985
912,0.019364092756394932,0.8430905377808032
913,0.019432396434548,0.8430905377808032
914,0.019432396434548,0.8434309053778081
915,0.019586079710392404,0.8434309053778081
916,0.019586079710392404,0.8437712729748128
917,0.019893446262081213,0.8437712729748128
918,0.019893446262081213,0.8441116405718175
919,0.019995901779310817,0.8441116405718175
920,0.019995901779310817,0.8447923757658271
921,0.020183736894231755,0.8447923757658271
922,0.020183736894231755,0.8451327433628318
923,0.020320344250537893,0.8451327433628318
924,0.020320344250537893,0.8454731109598366
925,0.020371572009152693,0.8454731109598366
926,0.020371572009152693,0.8458134785568414
927,0.020456951606844027,0.8458134785568414
928,0.020456951606844027,0.8461538461538461
929,0.020525255284997098,0.8461538461538461
930,0.020525255284997098,0.8464942137508509
931,0.0205764830436119,0.8464942137508509
932,0.0205764830436119,0.8468345813478557
933,0.020593558963150165,0.8468345813478557
934,0.020593558963150165,0.8475153165418652
935,0.020678938560841503,0.8475153165418652
936,0.020678938560841503,0.84785568413887
937,0.020730166319456303,0.84785568413887
938,0.020730166319456303,0.8481960517358748
939,0.020815545917147637,0.8481960517358748
940,0.020815545917147637,0.8485364193328795
941,0.020832621836685907,0.8485364193328795
942,0.020832621836685907,0.8492171545268891
943,0.02086677367576244,0.8492171545268891
944,0.02086677367576244,0.8495575221238938
945,0.020952153273453775,0.8495575221238938
946,0.020952153273453775,0.8498978897208985
947,0.021088760629759912,0.8498978897208985
948,0.021088760629759912,0.8505786249149081
949,0.02115706430791298,0.8505786249149081
950,0.02115706430791298,0.8509189925119128
951,0.021191216146989517,0.8509189925119128
952,0.021191216146989517,0.8512593601089177
953,0.02122536798606605,0.8512593601089177
954,0.02122536798606605,0.8519400953029271
955,0.021618114135446193,0.8519400953029271
956,0.021618114135446193,0.852280462899932
957,0.02163519005498446,0.852280462899932
958,0.02163519005498446,0.8526208304969367
959,0.021686417813599264,0.8526208304969367
960,0.021686417813599264,0.8529611980939414
961,0.021959632526211536,0.8529611980939414
962,0.021959632526211536,0.8533015656909462
963,0.02211331580205594,0.8533015656909462
964,0.02211331580205594,0.853641933287951
965,0.022130391721594207,0.853641933287951
966,0.022130391721594207,0.8539823008849557
967,0.022403606434206483,0.8539823008849557
968,0.022403606434206483,0.8543226684819605
969,0.022454834192821283,0.8543226684819605
970,0.022454834192821283,0.8546630360789653
971,0.02247191011235955,0.8546630360789653
972,0.02247191011235955,0.85500340367597
973,0.022506061951436084,0.85500340367597
974,0.022506061951436084,0.8553437712729748
975,0.02259144154912742,0.8553437712729748
976,0.02259144154912742,0.8556841388699796
977,0.022625593388203954,0.8556841388699796
978,0.022625593388203954,0.8560245064669844
979,0.022710972985895292,0.8560245064669844
980,0.022710972985895292,0.8563648740639891
981,0.023103719135275435,0.8563648740639891
982,0.023103719135275435,0.8567052416609938
983,0.023223250572043306,0.8567052416609938
984,0.023223250572043306,0.8573859768550034
985,0.023274478330658106,0.8573859768550034
986,0.023274478330658106,0.8577263444520081
987,0.02335985792834944,0.8577263444520081
988,0.02335985792834944,0.858066712049013
989,0.02347938936511731,0.858066712049013
990,0.02347938936511731,0.8584070796460177
991,0.023496465284655578,0.8584070796460177
992,0.023496465284655578,0.8587474472430224
993,0.023513541204193845,0.8587474472430224
994,0.023513541204193845,0.8601089176310415
995,0.02353061712373211,0.8601089176310415
996,0.02353061712373211,0.860789652825051
997,0.023803831836344387,0.860789652825051
998,0.023803831836344387,0.8611300204220558
999,0.023820907755882654,0.8611300204220558
1000,0.023820907755882654,0.8614703880190606
1001,0.023872135514497454,0.8614703880190606
1002,0.023872135514497454,0.8618107556160653
1003,0.023940439192650525,0.8618107556160653
1004,0.023940439192650525,0.8621511232130701
1005,0.02395751511218879,0.8621511232130701
1006,0.02395751511218879,0.8624914908100749
1007,0.024008742870803592,0.8624914908100749
1008,0.024008742870803592,0.8628318584070797
1009,0.024042894709880126,0.8628318584070797
1010,0.024042894709880126,0.8631722260040844
1011,0.02414535022710973,0.8631722260040844
1012,0.02414535022710973,0.8635125936010892
1013,0.024162426146647997,0.8635125936010892
1014,0.024162426146647997,0.863852961198094
1015,0.024213653905262797,0.863852961198094
1016,0.024213653905262797,0.8641933287950987
1017,0.0242648816638776,0.8641933287950987
1018,0.0242648816638776,0.8645336963921034
1019,0.024333185342030668,0.8645336963921034
1020,0.024333185342030668,0.865214431586113
1021,0.024606400054642943,0.865214431586113
1022,0.024606400054642943,0.8655547991831177
1023,0.02479423516956388,0.8655547991831177
1024,0.02479423516956388,0.8658951667801226
1025,0.02486253884771695,0.8658951667801226
1026,0.02486253884771695,0.8662355343771273
1027,0.024896690686793482,0.8662355343771273
1028,0.024896690686793482,0.866575901974132
1029,0.024947918445408286,0.866575901974132
1030,0.024947918445408286,0.8669162695711369
1031,0.02498207028448482,0.8669162695711369
1032,0.02498207028448482,0.8675970047651463
1033,0.025169905399405758,0.8675970047651463
1034,0.025169905399405758,0.8679373723621511
1035,0.025186981318944025,0.8679373723621511
1036,0.025186981318944025,0.8682777399591559
1037,0.025221133158020558,0.8682777399591559
1038,0.025221133158020558,0.8686181075561606
1039,0.025255284997097095,0.8686181075561606
1040,0.025255284997097095,0.8689584751531654
1041,0.025443120112018033,0.8689584751531654
1042,0.025443120112018033,0.8692988427501702
1043,0.025784638502783376,0.8692988427501702
1044,0.025784638502783376,0.869639210347175
1045,0.025887094020012977,0.869639210347175
1046,0.025887094020012977,0.8699795779441797
1047,0.025904169939551244,0.8699795779441797
1048,0.025904169939551244,0.8703199455411845
1049,0.02592124585908951,0.8703199455411845
1050,0.02592124585908951,0.8706603131381893
1051,0.026143232813086986,0.8706603131381893
1052,0.026143232813086986,0.8716814159292036
1053,0.026382295686622724,0.8716814159292036
1054,0.026382295686622724,0.8720217835262083
1055,0.02658720672108193,0.8720217835262083
1056,0.02658720672108193,0.872362151123213
1057,0.026672586318773266,0.872362151123213
1058,0.026672586318773266,0.8730428863172226
1059,0.0267579659164646,0.8730428863172226
1060,0.0267579659164646,0.8733832539142273
1061,0.02706533246815341,0.8733832539142273
1062,0.02706533246815341,0.8737236215112322
1063,0.027338547180765685,0.8737236215112322
1064,0.027338547180765685,0.8740639891082369
1065,0.02749223045661009,0.8740639891082369
1066,0.02749223045661009,0.8744043567052416
1067,0.027509306376148356,0.8744043567052416
1068,0.027509306376148356,0.8747447243022465
1069,0.02759468597383969,0.8747447243022465
1070,0.02759468597383969,0.8750850918992512
1071,0.027833748847375432,0.8750850918992512
1072,0.027833748847375432,0.8754254594962559
1073,0.0279020525255285,0.8754254594962559
1074,0.0279020525255285,0.8757658270932607
1075,0.028175267238140775,0.8757658270932607
1076,0.028175267238140775,0.8764465622872702
1077,0.02819234315767904,0.8764465622872702
1078,0.02819234315767904,0.876786929884275
1079,0.02820941907721731,0.876786929884275
1080,0.02820941907721731,0.8781484002722941
1081,0.028226494996755575,0.8781484002722941
1082,0.028226494996755575,0.8788291354663036
1083,0.02838017827259998,0.8788291354663036
1084,0.02838017827259998,0.8791695030633083
1085,0.028482633789829584,0.8791695030633083
1086,0.028482633789829584,0.8795098706603132
1087,0.02855093746798265,0.8795098706603132
1088,0.02855093746798265,0.8798502382573179
1089,0.02868754482428879,0.8798502382573179
1090,0.02868754482428879,0.8801906058543226
1091,0.028704620743827056,0.8801906058543226
1092,0.028704620743827056,0.8805309734513275
1093,0.02879000034151839,0.8805309734513275
1094,0.02879000034151839,0.8808713410483322
1095,0.02890953177828626,0.8808713410483322
1096,0.02890953177828626,0.8812117086453369
1097,0.029302277927666404,0.8812117086453369
1098,0.029302277927666404,0.8815520762423418
1099,0.029455961203510808,0.8815520762423418
1100,0.029455961203510808,0.8818924438393465
1101,0.029473037123049075,0.8818924438393465
1102,0.029473037123049075,0.8822328114363512
1103,0.029609644479355213,0.8822328114363512
1104,0.029609644479355213,0.882573179033356
1105,0.029780403674737884,0.882573179033356
1106,0.029780403674737884,0.8829135466303608
1107,0.029882859191967488,0.8829135466303608
1108,0.029882859191967488,0.8832539142273655
1109,0.030036542467811893,0.8832539142273655
1110,0.030036542467811893,0.8835942818243703
1111,0.03027560534134763,0.8835942818243703
1112,0.03027560534134763,0.8839346494213751
1113,0.03046344045626857,0.8839346494213751
1114,0.03046344045626857,0.8842750170183798
1115,0.030565895973498174,0.8842750170183798
1116,0.030565895973498174,0.8846153846153846
1117,0.03082203476657218,0.8846153846153846
1118,0.03082203476657218,0.8849557522123894
1119,0.03089033844472525,0.8849557522123894
1120,0.03089033844472525,0.8852961198093942
1121,0.03128308459410539,0.8852961198093942
1122,0.03128308459410539,0.8856364874063989
1123,0.03130016051364366,0.8856364874063989
1124,0.03130016051364366,0.8859768550034037
1125,0.03138554011133499,0.8859768550034037
1126,0.03138554011133499,0.8863172226004085
1127,0.031607527065332465,0.8863172226004085
1128,0.031607527065332465,0.8866575901974132
1129,0.03176121034117687,0.8866575901974132
1130,0.03176121034117687,0.8869979577944179
1131,0.03206857689286568,0.8869979577944179
1132,0.03206857689286568,0.8873383253914228
1133,0.032153956490557016,0.8873383253914228
1134,0.032153956490557016,0.8876786929884275
1135,0.0328369932720877,0.8876786929884275
1136,0.0328369932720877,0.8880190605854322
1137,0.03292237286977904,0.8880190605854322
1138,0.03292237286977904,0.8883594281824371
1139,0.033007752467470376,0.8883594281824371
1140,0.033007752467470376,0.8886997957794418
1141,0.03304190430654691,0.8886997957794418
1142,0.03304190430654691,0.8890401633764465
1143,0.03346880229500358,0.8890401633764465
1144,0.03346880229500358,0.8893805309734514
1145,0.03353710597315666,0.8893805309734514
1146,0.03353710597315666,0.8900612661674608
1147,0.03363956149038626,0.8900612661674608
1148,0.03363956149038626,0.8904016337644656
1149,0.03374201700761586,0.8904016337644656
1150,0.03374201700761586,0.8907420013614704
1151,0.0339298521225368,0.8907420013614704
1152,0.0339298521225368,0.8910823689584751
1153,0.03459581298452922,0.8910823689584751
1154,0.03459581298452922,0.8914227365554799
1155,0.034664116662682286,0.8914227365554799
1156,0.034664116662682286,0.8917631041524847
1157,0.0353300775246747,0.8917631041524847
1158,0.0353300775246747,0.8921034717494895
1159,0.035398381202827775,0.8921034717494895
1160,0.035398381202827775,0.8924438393464942
1161,0.03543253304190431,0.8924438393464942
1162,0.03543253304190431,0.892784206943499
1163,0.03546668488098084,0.892784206943499
1164,0.03546668488098084,0.8931245745405038
1165,0.03555206447867218,0.8931245745405038
1166,0.03555206447867218,0.8934649421375085
1167,0.03562036815682525,0.8934649421375085
1168,0.03562036815682525,0.8938053097345132
1169,0.035671595915440044,0.8938053097345132
1170,0.035671595915440044,0.8941456773315181
1171,0.035705747754516584,0.8941456773315181
1172,0.035705747754516584,0.8944860449285228
1173,0.035791127352207915,0.8944860449285228
1174,0.035791127352207915,0.8948264125255275
1175,0.03584235511082272,0.8948264125255275
1176,0.03584235511082272,0.8951667801225324
1177,0.035910658788975786,0.8951667801225324
1178,0.035910658788975786,0.8958475153165418
1179,0.03603019022574366,0.8958475153165418
1180,0.03603019022574366,0.8961878829135467
1181,0.03608141798435846,0.8961878829135467
1182,0.03608141798435846,0.8965282505105514
1183,0.036200949421126324,0.8965282505105514
1184,0.036200949421126324,0.8968686181075561
1185,0.03690106212219528,0.8968686181075561
1186,0.03690106212219528,0.897208985704561
1187,0.036952289880810084,0.897208985704561
1188,0.036952289880810084,0.8975493533015657
1189,0.03708889723711622,0.8975493533015657
1190,0.03708889723711622,0.8978897208985704
1191,0.03714012499573102,0.8978897208985704
1192,0.03714012499573102,0.8982300884955752
1193,0.0374133397083433,0.8982300884955752
1194,0.0374133397083433,0.89857045609258
1195,0.037686554420955566,0.89857045609258
1196,0.037686554420955566,0.8989108236895847
1197,0.037703630340493836,0.8989108236895847
1198,0.037703630340493836,0.8995915588835943
1199,0.0377207062600321,0.8995915588835943
1200,0.0377207062600321,0.9002722940776038
1201,0.037789009938185174,0.9002722940776038
1202,0.037789009938185174,0.9006126616746086
1203,0.03818175608756531,0.9006126616746086
1204,0.03818175608756531,0.9009530292716134
1205,0.03835251528294799,0.9009530292716134
1206,0.03835251528294799,0.9012933968686181
1207,0.03836959120248625,0.9012933968686181
1208,0.03836959120248625,0.9016337644656228
1209,0.038847716949557735,0.9016337644656228
1210,0.038847716949557735,0.9019741320626277
1211,0.03905262798401694,0.9019741320626277
1212,0.03905262798401694,0.9023144996596324
1213,0.03906970390355521,0.9023144996596324
1214,0.03906970390355521,0.9026548672566371
1215,0.039564905570164954,0.9026548672566371
1216,0.039564905570164954,0.902995234853642
1217,0.03959905740924149,0.902995234853642
1218,0.03959905740924149,0.9033356024506467
1219,0.039974727639083364,0.9033356024506467
1220,0.039974727639083364,0.9036759700476514
1221,0.04014548683446604,0.9036759700476514
1222,0.04014548683446604,0.9040163376446563
1223,0.04033332194938698,0.9040163376446563
1224,0.04033332194938698,0.904356705241661
1225,0.041665243673371814,0.904356705241661
1226,0.041665243673371814,0.9046970728386657
1227,0.041887230627369286,0.9046970728386657
1228,0.041887230627369286,0.9050374404356705
1229,0.04257026740889997,0.9050374404356705
1230,0.04257026740889997,0.9053778080326753
1231,0.04306546907550972,0.9053778080326753
1232,0.04306546907550972,0.90571817562968
1233,0.04328745602950719,0.90571817562968
1234,0.04328745602950719,0.9060585432266848
1235,0.04335575970766026,0.9060585432266848
1236,0.04335575970766026,0.9067392784206944
1237,0.04347529114442813,0.9067392784206944
1238,0.04347529114442813,0.9070796460176991
1239,0.043748505857040404,0.9070796460176991
1240,0.043748505857040404,0.9074200136147039
1241,0.04400464465011441,0.9074200136147039
1242,0.04400464465011441,0.9077603812117087
1243,0.04402172056965267,0.9077603812117087
1244,0.04402172056965267,0.9081007488087134
1245,0.04420955568457362,0.9081007488087134
1246,0.04420955568457362,0.9084411164057182
1247,0.04465352959256856,0.9084411164057182
1248,0.04465352959256856,0.908781484002723
1249,0.04487551654656603,0.908781484002723
1250,0.04487551654656603,0.9091218515997277
1251,0.04578054028209419,0.9091218515997277
1252,0.04578054028209419,0.9094622191967324
1253,0.04641234930501007,0.9094622191967324
1254,0.04641234930501007,0.9098025867937373
1255,0.04661726033946928,0.9098025867937373
1256,0.04661726033946928,0.910142954390742
1257,0.046788019534851955,0.910142954390742
1258,0.046788019534851955,0.9104833219877467
1259,0.04682217137392849,0.9104833219877467
1260,0.04682217137392849,0.9108236895847516
1261,0.04769304327038011,0.9108236895847516
1262,0.04769304327038011,0.9111640571817563
1263,0.048256548615142926,0.9111640571817563
1264,0.048256548615142926,0.911504424778761
1265,0.04832485229329599,0.911504424778761
1266,0.04832485229329599,0.9118447923757659
1267,0.04835900413237253,0.9118447923757659
1268,0.04835900413237253,0.9121851599727706
1269,0.048563915166831735,0.9121851599727706
1270,0.048563915166831735,0.9125255275697753
1271,0.048683446603599606,0.9125255275697753
1272,0.048683446603599606,0.9128658951667801
1273,0.048956661316211875,0.9128658951667801
1274,0.048956661316211875,0.9132062627637849
1275,0.04955431850005123,0.9132062627637849
1276,0.04955431850005123,0.9135466303607896
1277,0.05006659608619924,0.9135466303607896
1278,0.05006659608619924,0.9138869979577944
1279,0.050237355281581915,0.9138869979577944
1280,0.050237355281581915,0.9142273655547992
1281,0.05144974556879888,0.9142273655547992
1282,0.05144974556879888,0.914567733151804
1283,0.05174003620094942,0.914567733151804
1284,0.05174003620094942,0.9149081007488087
1285,0.05187664355725556,0.9149081007488087
1286,0.05187664355725556,0.9152484683458135
1287,0.052832895051398515,0.9152484683458135
1288,0.052832895051398515,0.9155888359428183
1289,0.05290119872955159,0.9155888359428183
1290,0.05290119872955159,0.915929203539823
1291,0.053037806085857724,0.915929203539823
1292,0.053037806085857724,0.9162695711368277
1293,0.053276868959393466,0.9162695711368277
1294,0.053276868959393466,0.9166099387338326
1295,0.053362248557084796,0.9166099387338326
1296,0.053362248557084796,0.9169503063308373
1297,0.05349885591339094,0.9169503063308373
1298,0.05349885591339094,0.917290673927842
1299,0.0535159318329292,0.917290673927842
1300,0.0535159318329292,0.9176310415248469
1301,0.05370376694785014,0.9176310415248469
1302,0.05370376694785014,0.9179714091218516
1303,0.05377207062600321,0.9179714091218516
1304,0.05377207062600321,0.9183117767188563
1305,0.053806222465079746,0.9183117767188563
1306,0.053806222465079746,0.9186521443158612
1307,0.05382329838461801,0.9186521443158612
1308,0.05382329838461801,0.9189925119128659
1309,0.05404528533861548,0.9189925119128659
1310,0.05404528533861548,0.9193328795098706
1311,0.05443803148799563,0.9193328795098706
1312,0.05443803148799563,0.9196732471068755
1313,0.05448925924661043,0.9196732471068755
1314,0.05448925924661043,0.9200136147038802
1315,0.05515522010860285,0.9200136147038802
1316,0.05515522010860285,0.9203539823008849
1317,0.05600901608551621,0.9203539823008849
1318,0.05600901608551621,0.9206943498978897
1319,0.05616269936136061,0.9206943498978897
1320,0.05616269936136061,0.9210347174948945
1321,0.05647006591304942,0.9210347174948945
1322,0.05647006591304942,0.9213750850918992
1323,0.056487141832587684,0.9213750850918992
1324,0.056487141832587684,0.921715452688904
1325,0.056606673269355555,0.921715452688904
1326,0.056606673269355555,0.9220558202859088
1327,0.05763122844165158,0.9220558202859088
1328,0.05763122844165158,0.9223961878829136
1329,0.057750759878419454,0.9223961878829136
1330,0.057750759878419454,0.9227365554799183
1331,0.057989822751955196,0.9227365554799183
1332,0.057989822751955196,0.9230769230769231
1333,0.058075202349646526,0.9230769230769231
1334,0.058075202349646526,0.9234172906739279
1335,0.0581947337864144,0.9234172906739279
1336,0.0581947337864144,0.9237576582709326
1337,0.05884361872886855,0.9237576582709326
1338,0.05884361872886855,0.9240980258679373
1339,0.05979987022301151,0.9240980258679373
1340,0.05979987022301151,0.9244383934649422
1341,0.06020969229192992,0.9244383934649422
1342,0.06020969229192992,0.9247787610619469
1343,0.060585362521771796,0.9247787610619469
1344,0.060585362521771796,0.9251191286589516
1345,0.0606878180390014,0.9251191286589516
1346,0.0606878180390014,0.9254594962559565
1347,0.0607390457976162,0.9254594962559565
1348,0.0607390457976162,0.9257998638529612
1349,0.06097810867115194,0.9257998638529612
1350,0.06097810867115194,0.9261402314499659
1351,0.0617806768894505,0.9261402314499659
1352,0.0617806768894505,0.9264805990469708
1353,0.06232710631467504,0.9264805990469708
1354,0.06232710631467504,0.9268209666439755
1355,0.06242956183190465,0.9268209666439755
1356,0.06242956183190465,0.9271613342409802
1357,0.06251494142959599,0.9271613342409802
1358,0.06251494142959599,0.927501701837985
1359,0.06258324510774906,0.927501701837985
1360,0.06258324510774906,0.9278420694349898
1361,0.06265154878590212,0.9278420694349898
1362,0.06265154878590212,0.9281824370319945
1363,0.063027219015744,0.9281824370319945
1364,0.063027219015744,0.9285228046289993
1365,0.06364195211912162,0.9285228046289993
1366,0.06364195211912162,0.9288631722260041
1367,0.06367610395819814,0.9288631722260041
1368,0.06367610395819814,0.9292035398230089
1369,0.06394931867081043,0.9292035398230089
1370,0.06394931867081043,0.9295439074200136
1371,0.06430791298111403,0.9295439074200136
1372,0.06430791298111403,0.9298842750170184
1373,0.06476896280864725,0.9298842750170184
1374,0.06476896280864725,0.9302246426140232
1375,0.06487141832587685,0.9302246426140232
1376,0.06487141832587685,0.9305650102110279
1377,0.06497387384310645,0.9305650102110279
1378,0.06497387384310645,0.9309053778080327
1379,0.06519586079710392,0.9309053778080327
1380,0.06519586079710392,0.9312457454050375
1381,0.0657252143027902,0.9312457454050375
1382,0.0657252143027902,0.9315861130020422
1383,0.06574229022232847,0.9315861130020422
1384,0.06574229022232847,0.9319264805990469
1385,0.06663023803831836,0.9319264805990469
1386,0.06663023803831836,0.9322668481960518
1387,0.06685222499231584,0.9322668481960518
1388,0.06685222499231584,0.9326072157930565
1389,0.06688637683139237,0.9326072157930565
1390,0.06688637683139237,0.9329475833900612
1391,0.06756941361292305,0.9329475833900612
1392,0.06756941361292305,0.9332879509870661
1393,0.06762064137153785,0.9332879509870661
1394,0.06762064137153785,0.9336283185840708
1395,0.06896963901506097,0.9336283185840708
1396,0.06896963901506097,0.9339686861810755
1397,0.06972097947474472,0.9339686861810755
1398,0.06972097947474472,0.9343090537780804
1399,0.06994296642874219,0.9343090537780804
1400,0.06994296642874219,0.9346494213750851
1401,0.07016495338273966,0.9346494213750851
1402,0.07016495338273966,0.9349897889720898
1403,0.07019910522181619,0.9349897889720898
1404,0.07019910522181619,0.9353301565690946
1405,0.0706089272907346,0.9353301565690946
1406,0.0706089272907346,0.9356705241660994
1407,0.07064307912981115,0.9356705241660994
1408,0.07064307912981115,0.9363512593601089
1409,0.07076261056657901,0.9363512593601089
1410,0.07076261056657901,0.9366916269571137
1411,0.07103582527919128,0.9366916269571137
1412,0.07103582527919128,0.9373723621511232
1413,0.07105290119872955,0.9373723621511232
1414,0.07105290119872955,0.937712729748128
1415,0.07108705303780609,0.937712729748128
1416,0.07108705303780609,0.9380530973451328
1417,0.07125781223318876,0.9380530973451328
1418,0.07125781223318876,0.9383934649421375
1419,0.07127488815272702,0.9383934649421375
1420,0.07127488815272702,0.9387338325391422
1421,0.07151395102626276,0.9387338325391422
1422,0.07151395102626276,0.9390742001361471
1423,0.0716505583825689,0.9390742001361471
1424,0.0716505583825689,0.9394145677331518
1425,0.07185546941702811,0.9394145677331518
1426,0.07185546941702811,0.9397549353301565
1427,0.07202622861241077,0.9397549353301565
1428,0.07202622861241077,0.9404356705241661
1429,0.07296540418701547,0.9404356705241661
1430,0.07296540418701547,0.9407760381211708
1431,0.0731020115433216,0.9407760381211708
1432,0.0731020115433216,0.9411164057181757
1433,0.07342645401454868,0.9411164057181757
1434,0.07342645401454868,0.9414567733151804
1435,0.07451931286499779,0.9414567733151804
1436,0.07451931286499779,0.9417971409121851
1437,0.07521942556606673,0.9417971409121851
1438,0.07521942556606673,0.9424778761061947
1439,0.07598784194528875,0.9424778761061947
1440,0.07598784194528875,0.9428182437031994
1441,0.07650011953143676,0.9428182437031994
1442,0.07650011953143676,0.9431586113002042
1443,0.07737099142788839,0.9431586113002042
1444,0.07737099142788839,0.943498978897209
1445,0.07740514326696493,0.943498978897209
1446,0.07740514326696493,0.9438393464942137
1447,0.07778081349680681,0.9438393464942137
1448,0.07778081349680681,0.9441797140912185
1449,0.07790034493357467,0.9441797140912185
1450,0.07790034493357467,0.9445200816882233
1451,0.07853215395649056,0.9445200816882233
1452,0.07853215395649056,0.944860449285228
1453,0.0788736723472559,0.944860449285228
1454,0.0788736723472559,0.9452008168822328
1455,0.07959086096786312,0.9452008168822328
1456,0.07959086096786312,0.9455411844792376
1457,0.0797616201632458,0.9455411844792376
1458,0.0797616201632458,0.9458815520762424
1459,0.08063249205969741,0.9458815520762424
1460,0.08063249205969741,0.9462219196732471
1461,0.08064956797923568,0.9462219196732471
1462,0.08068371981831221,0.9462219196732471
1463,0.08112769372630717,0.9462219196732471
1464,0.08112769372630717,0.9465622872702518
1465,0.0811618455653837,0.9465622872702518
1466,0.0811618455653837,0.9469026548672567
1467,0.0812643010826133,0.9469026548672567
1468,0.0812643010826133,0.9472430224642614
1469,0.08194733786414399,0.9472430224642614
1470,0.08194733786414399,0.9475833900612661
1471,0.08237423585260066,0.9475833900612661
1472,0.08237423585260066,0.947923757658271
1473,0.08247669136983027,0.947923757658271
1474,0.08247669136983027,0.9482641252552757
1475,0.08363785389843242,0.9482641252552757
1476,0.08363785389843242,0.9486044928522804
1477,0.08403060004781257,0.9486044928522804
1478,0.08403060004781257,0.9489448604492853
1479,0.08437211843857792,0.9489448604492853
1480,0.08437211843857792,0.94928522804629
1481,0.08478194050749632,0.94928522804629
1482,0.08478194050749632,0.9496255956432947
1483,0.08517468665687647,0.9496255956432947
1484,0.08517468665687647,0.9499659632402995
1485,0.08577234384071582,0.9499659632402995
1486,0.08577234384071582,0.9503063308373043
1487,0.0861992418291725,0.9503063308373043
1488,0.0861992418291725,0.950646698434309
1489,0.0862504695877873,0.950646698434309
1490,0.0862504695877873,0.9509870660313138
1491,0.08695058228885626,0.9509870660313138
1492,0.08695058228885626,0.9513274336283186
1493,0.0875994672313104,0.9513274336283186
1494,0.0875994672313104,0.9516678012253234
1495,0.08780437826576962,0.9516678012253234
1496,0.08782145418530787,0.9520081688223281
1497,0.08824835217376456,0.9520081688223281
1498,0.08824835217376456,0.9523485364193329
1499,0.08847033912776203,0.9523485364193329
1500,0.08847033912776203,0.9526889040163377
1501,0.0884874150473003,0.9526889040163377
1502,0.0884874150473003,0.9530292716133424
1503,0.08913629998975445,0.9530292716133424
1504,0.08913629998975445,0.9533696392103471
1505,0.08959734981728766,0.9533696392103471
1506,0.08959734981728766,0.953710006807352
1507,0.08985348861036167,0.953710006807352
1508,0.08985348861036167,0.9540503744043567
1509,0.0900925514838974,0.9540503744043567
1510,0.0900925514838974,0.9543907420013614
1511,0.09048529763327755,0.9543907420013614
1512,0.09048529763327755,0.9547311095983663
1513,0.0908268160240429,0.9547311095983663
1514,0.0908268160240429,0.955071477195371
1515,0.09137324544926745,0.955071477195371
1516,0.09137324544926745,0.9554118447923757
1517,0.09156108056418838,0.9554118447923757
1518,0.09156108056418838,0.9557522123893806
1519,0.09193675079403026,0.9557522123893806
1520,0.09193675079403026,0.9560925799863853
1521,0.0933711280352447,0.9560925799863853
1522,0.0933711280352447,0.95643294758339
1523,0.09350773539155084,0.95643294758339
1524,0.09350773539155084,0.9567733151803949
1525,0.09424199993169632,0.9567733151803949
1526,0.09424199993169632,0.9571136827773996
1527,0.09518117550630101,0.9571136827773996
1528,0.09518117550630101,0.9574540503744043
1529,0.0973156654485844,0.9574540503744043
1530,0.0973156654485844,0.9577944179714091
1531,0.09789624671288549,0.9577944179714091
1532,0.09789624671288549,0.9581347855684139
1533,0.09854513165533964,0.9581347855684139
1534,0.09854513165533964,0.9584751531654186
1535,0.09871589085072231,0.9584751531654186
1536,0.09871589085072231,0.9588155207624234
1537,0.09907448516102592,0.9588155207624234
1538,0.09907448516102592,0.9591558883594282
1539,0.09917694067825553,0.9591558883594282
1540,0.09917694067825553,0.959496255956433
1541,0.09943307947132952,0.959496255956433
1542,0.09943307947132952,0.9598366235534377
1543,0.10115774734469452,0.9598366235534377
1544,0.10115774734469452,0.9601769911504425
1545,0.10136265837915372,0.9601769911504425
1546,0.10136265837915372,0.9605173587474473
1547,0.10153341757453639,0.9605173587474473
1548,0.10153341757453639,0.960857726344452
1549,0.10242136539052628,0.960857726344452
1550,0.10242136539052628,0.9611980939414567
1551,0.10288241521805949,0.9611980939414567
1552,0.10288241521805949,0.9615384615384616
1553,0.10293364297667429,0.9615384615384616
1554,0.10296779481575083,0.9615384615384616
1555,0.10332638912605444,0.9615384615384616
1556,0.10332638912605444,0.9618788291354663
1557,0.10341176872374577,0.9618788291354663
1558,0.10341176872374577,0.962219196732471
1559,0.10390697039035553,0.962219196732471
1560,0.10390697039035553,0.9625595643294759
1561,0.1044875516546566,0.9625595643294759
1562,0.1044875516546566,0.9628999319264806
1563,0.10595608073494758,0.9628999319264806
1564,0.10595608073494758,0.9632402995234853
1565,0.10622929544755985,0.9632402995234853
1566,0.10622929544755985,0.9635806671204902
1567,0.10657081383832519,0.9635806671204902
1568,0.10657081383832519,0.9639210347174949
1569,0.10692940814862881,0.9639210347174949
1570,0.10696355998770533,0.9639210347174949
1571,0.10831255763122845,0.9639210347174949
1572,0.10831255763122845,0.9642614023144996
1573,0.10841501314845804,0.9642614023144996
1574,0.10841501314845804,0.9646017699115044
1575,0.10843208906799631,0.9646017699115044
1576,0.10843208906799631,0.9649421375085092
1577,0.10957617567706021,0.9649421375085092
1578,0.10957617567706021,0.9652825051055139
1579,0.10991769406782555,0.9652825051055139
1580,0.10991769406782555,0.9656228727025187
1581,0.1102079846999761,0.9656228727025187
1582,0.1102079846999761,0.9659632402995235
1583,0.11094224924012158,0.9659632402995235
1584,0.11094224924012158,0.9663036078965282
1585,0.11150575458488439,0.9663036078965282
1586,0.11150575458488439,0.966643975493533
1587,0.11153990642396093,0.966643975493533
1588,0.11153990642396093,0.9669843430905378
1589,0.11201803217103241,0.9669843430905378
1590,0.11201803217103241,0.9673247106875426
1591,0.11283767630886923,0.9673247106875426
1592,0.11283767630886923,0.9676650782845473
1593,0.11288890406748403,0.9676650782845473
1594,0.11288890406748403,0.9680054458815521
1595,0.1136914722857826,0.9680054458815521
1596,0.11372562412485912,0.9680054458815521
1597,0.11401591475700966,0.9680054458815521
1598,0.11401591475700966,0.9683458134785569
1599,0.11620163245790786,0.9683458134785569
1600,0.11620163245790786,0.9686861810755616
1601,0.11845565383695912,0.9686861810755616
1602,0.11845565383695912,0.9690265486725663
1603,0.11908746285987501,0.9690265486725663
1604,0.11908746285987501,0.9693669162695712
1605,0.11948020900925514,0.9693669162695712
1606,0.11948020900925514,0.9697072838665759
1607,0.1197704996414057,0.9697072838665759
1608,0.1197704996414057,0.9700476514635806
1609,0.12000956251494142,0.9700476514635806
1610,0.12000956251494142,0.9703880190605855
1611,0.12009494211263276,0.9703880190605855
1612,0.12009494211263276,0.9707283866575902
1613,0.12026570130801544,0.9707283866575902
1614,0.12026570130801544,0.9710687542545949
1615,0.12088043441139305,0.9710687542545949
1616,0.12088043441139305,0.9714091218515998
1617,0.12233188757214576,0.9714091218515998
1618,0.12233188757214576,0.9717494894486045
1619,0.12292954475598511,0.9717494894486045
1620,0.12292954475598511,0.9720898570456092
1621,0.12308322803182951,0.9720898570456092
1622,0.12308322803182951,0.972430224642614
1623,0.12366380929613059,0.972430224642614
1624,0.12366380929613059,0.9727705922396188
1625,0.12518356613503637,0.9727705922396188
1626,0.12518356613503637,0.9731109598366235
1627,0.1294696219391414,0.9731109598366235
1628,0.1294696219391414,0.9734513274336283
1629,0.12975991257129196,0.9734513274336283
1630,0.12975991257129196,0.9737916950306331
1631,0.13133089716881255,0.9737916950306331
1632,0.13133089716881255,0.9741320626276379
1633,0.13163826372050136,0.9741320626276379
1634,0.13163826372050136,0.9744724302246426
1635,0.1347290051569277,0.9744724302246426
1636,0.1347290051569277,0.9748127978216474
1637,0.1367098118233667,0.9748127978216474
1638,0.1367098118233667,0.9751531654186522
1639,0.1369659506164407,0.9751531654186522
1640,0.1369659506164407,0.9754935330156569
1641,0.13770021515658618,0.9754935330156569
1642,0.13770021515658618,0.9758339006126616
1643,0.13817834090365766,0.9758339006126616
1644,0.13817834090365766,0.9761742682096665
1645,0.1396127181448721,0.9761742682096665
1646,0.1396127181448721,0.9765146358066712
1647,0.13968102182302516,0.9765146358066712
1648,0.13968102182302516,0.9768550034036759
1649,0.1398688569379461,0.9768550034036759
1650,0.1398688569379461,0.9771953710006808
1651,0.142481472627301,0.9771953710006808
1652,0.142481472627301,0.9775357385976855
1653,0.1434548000409822,0.9775357385976855
1654,0.1434548000409822,0.9778761061946902
1655,0.14456473481096957,0.9778761061946902
1656,0.14456473481096957,0.9782164737916951
1657,0.14722857825893923,0.9782164737916951
1658,0.14722857825893923,0.9785568413886998
1659,0.147979918718623,0.9785568413886998
1660,0.147979918718623,0.9788972089857045
1661,0.14828728527031182,0.9788972089857045
1662,0.14828728527031182,0.9792375765827094
1663,0.148492196304771,0.9792375765827094
1664,0.148492196304771,0.9795779441797141
1665,0.1494313718793757,0.9795779441797141
1666,0.1494313718793757,0.9799183117767188
1667,0.1497387384310645,0.9799183117767188
1668,0.1497387384310645,0.9802586793737236
1669,0.14997780130460026,0.9802586793737236
1670,0.1500119531436768,0.9802586793737236
1671,0.15248796147672553,0.9802586793737236
1672,0.15248796147672553,0.9805990469707284
1673,0.15376865544209556,0.9805990469707284
1674,0.15376865544209556,0.9809394145677331
1675,0.15629589153375908,0.9809394145677331
1676,0.15629589153375908,0.9812797821647379
1677,0.15703015607390458,0.9812797821647379
1678,0.15703015607390458,0.9816201497617427
1679,0.15923294969434104,0.9816201497617427
1680,0.15923294969434104,0.9819605173587475
1681,0.1600355179126396,0.9819605173587475
1682,0.1600355179126396,0.9823008849557522
1683,0.1662682285441071,0.9823008849557522
1684,0.16630238038318362,0.9823008849557522
1685,0.16727570779686485,0.9823008849557522
1686,0.1673098596359414,0.9823008849557522
1687,0.16874423687715584,0.9823008849557522
1688,0.16874423687715584,0.982641252552757
1689,0.16961510877360747,0.982641252552757
1690,0.16961510877360747,0.9829816201497618
1691,0.17154468768143163,0.9829816201497618
1692,0.17154468768143163,0.9833219877467665
1693,0.1717666746354291,0.9833219877467665
1694,0.1717666746354291,0.9836623553437712
1695,0.17241555957788327,0.9836623553437712
1696,0.17241555957788327,0.9840027229407761
1697,0.17253509101465114,0.9840027229407761
1698,0.17253509101465114,0.9843430905377808
1699,0.17263754653188074,0.9843430905377808
1700,0.17263754653188074,0.9846834581347855
1701,0.17451589768109013,0.9846834581347855
1702,0.17455004952016667,0.9846834581347855
1703,0.17939961066903454,0.9846834581347855
1704,0.17939961066903454,0.9850238257317904
1705,0.18249035210546088,0.9850238257317904
1706,0.18249035210546088,0.9853641933287951
1707,0.18264403538130528,0.9853641933287951
1708,0.18264403538130528,0.9857045609257998
1709,0.184351627335132,0.9857045609257998
1710,0.184351627335132,0.9860449285228047
1711,0.18552986578327244,0.9860449285228047
1712,0.18552986578327244,0.9863852961198094
1713,0.1857006249786551,0.9863852961198094
1714,0.1857006249786551,0.9867256637168141
1715,0.18769850756463236,0.9867256637168141
1716,0.18769850756463236,0.9870660313138189
1717,0.1877155834841706,0.9870660313138189
1718,0.1877155834841706,0.9874063989108237
1719,0.19294081486288037,0.9874063989108237
1720,0.19294081486288037,0.9877467665078284
1721,0.19399952187425293,0.9877467665078284
1722,0.19399952187425293,0.9880871341048332
1723,0.19476793825347494,0.9880871341048332
1724,0.19476793825347494,0.988427501701838
1725,0.196817048598067,0.988427501701838
1726,0.196817048598067,0.9887678692988427
1727,0.19707318739114102,0.9887678692988427
1728,0.19707318739114102,0.9891082368958475
1729,0.20091526928725112,0.9891082368958475
1730,0.20091526928725112,0.9894486044928523
1731,0.20544038796489192,0.9894486044928523
1732,0.20547453980396843,0.9894486044928523
1733,0.20791639629794065,0.9894486044928523
1734,0.2079505481370172,0.9894486044928523
1735,0.20817253509101466,0.9894486044928523
1736,0.20817253509101466,0.989788972089857
1737,0.21088760629759912,0.989788972089857
1738,0.21088760629759912,0.9901293396868618
1739,0.2137051330214132,0.9901293396868618
1740,0.21373928486048974,0.9901293396868618
1741,0.2179228851473652,0.9901293396868618
1742,0.2179228851473652,0.9904697072838666
1743,0.21826440353813054,0.9904697072838666
1744,0.21826440353813054,0.9908100748808714
1745,0.21906697175642909,0.9908100748808714
1746,0.21906697175642909,0.9911504424778761
1747,0.2213380690550186,0.9911504424778761
1748,0.2213380690550186,0.9914908100748808
1749,0.22854410710016734,0.9914908100748808
1750,0.22854410710016734,0.9918311776718857
1751,0.22910761244493016,0.9918311776718857
1752,0.22910761244493016,0.9921715452688904
1753,0.2310542672722926,0.9921715452688904
1754,0.2310542672722926,0.9925119128658951
1755,0.2312250264676753,0.9925119128658951
1756,0.2312250264676753,0.9928522804629
1757,0.23849936819097708,0.9928522804629
1758,0.23853352003005363,0.9928522804629
1759,0.24054847853556913,0.9928522804629
1760,0.24054847853556913,0.9931926480599047
1761,0.2421194631330897,0.9931926480599047
1762,0.2421194631330897,0.9935330156569094
1763,0.24659335405211572,0.9935330156569094
1764,0.24659335405211572,0.9938733832539143
1765,0.24847170520132508,0.9938733832539143
1766,0.24847170520132508,0.994213750850919
1767,0.2493938048563915,0.994213750850919
1768,0.2493938048563915,0.9945541184479237
1769,0.25473856767186914,0.9945541184479237
1770,0.25477271951094566,0.9945541184479237
1771,0.2571462723267648,0.9945541184479237
1772,0.2571804241658413,0.9945541184479237
1773,0.26225197226870667,0.9945541184479237
1774,0.2622861241077832,0.9945541184479237
1775,0.2676650387623373,0.9945541184479237
1776,0.2676650387623373,0.9948944860449285
1777,0.2678528738772583,0.9948944860449285
1778,0.2678528738772583,0.9952348536419333
1779,0.26938970663570233,0.9952348536419333
1780,0.26938970663570233,0.995575221238938
1781,0.2753492025545576,0.995575221238938
1782,0.2753492025545576,0.9959155888359428
1783,0.2782862607151395,0.9959155888359428
1784,0.2782862607151395,0.9962559564329476
1785,0.28605580410505105,0.9962559564329476
1786,0.2860899559441276,0.9962559564329476
1787,0.286499778013046,0.9962559564329476
1788,0.28653392985212256,0.9962559564329476
1789,0.2926471090468222,0.9962559564329476
1790,0.2926812608858987,0.9962559564329476
1791,0.29853830128752434,0.9962559564329476
1792,0.29853830128752434,0.9965963240299524
1793,0.3007410949079608,0.9965963240299524
1794,0.3007410949079608,0.9969366916269571
1795,0.30565895973498175,0.9969366916269571
1796,0.30565895973498175,0.9972770592239619
1797,0.3067176667463543,0.9972770592239619
1798,0.3067518185854308,0.9972770592239619
1799,0.30787882927495647,0.9972770592239619
1800,0.307912981114033,0.9972770592239619
1801,0.31834636795191423,0.9972770592239619
1802,0.31838051979099075,0.9972770592239619
1803,0.3236911307673918,0.9972770592239619
1804,0.3236911307673918,0.9976174268209667
1805,0.3278405792151907,0.9976174268209667
1806,0.3278747310542673,0.9976174268209667
1807,0.3427137051330214,0.9976174268209667
1808,0.3427137051330214,0.9979577944179714
1809,0.34778525323588677,0.9979577944179714
1810,0.34778525323588677,0.9982981620149761
1811,0.3496806803046344,0.9982981620149761
1812,0.34971483214371096,0.9982981620149761
1813,0.35270311806290766,0.9982981620149761
1814,0.35270311806290766,0.998638529611981
1815,0.36146306478603873,0.998638529611981
1816,0.36149721662511525,0.998638529611981
1817,0.3639219971995492,0.998638529611981
1818,0.3639561490386257,0.998638529611981
1819,0.3747822820258871,0.998638529611981
1820,0.3748164338649636,0.998638529611981
1821,0.37526040777295855,0.998638529611981
1822,0.37526040777295855,0.9989788972089857
1823,0.39667361087394554,0.9989788972089857
1824,0.39667361087394554,0.9993192648059904
1825,0.3971175847819405,0.9993192648059904
1826,0.3971175847819405,0.9996596324029953
1827,0.3979030770807008,0.9996596324029953
1828,0.39793722891977734,0.9996596324029953
1829,0.39819336771285135,0.9996596324029953
1830,0.39822751955192787,0.9996596324029953
1831,0.4012158054711246,0.9996596324029953
1832,0.40124995731020113,0.9996596324029953
1833,0.41335678426283257,0.9996596324029953
1834,0.4133909361019091,0.9996596324029953
1835,0.4134763156996004,0.9996596324029953
1836,0.413510467538677,0.9996596324029953
1837,0.42437075236501487,0.9996596324029953
1838,0.4244049042040914,0.9996596324029953
1839,0.42460981523855057,0.9996596324029953
1840,0.42464396707762714,0.9996596324029953
1841,0.4395341689149961,0.9996596324029953
1842,0.4395683207540726,0.9996596324029953
1843,0.4422663160411188,0.9996596324029953
1844,0.4422663160411188,1.0
1845,0.45439021891328846,1.0
1846,0.454424370752365,1.0
1847,0.45478296506266863,1.0
1848,0.45481711690174514,1.0
1849,0.4552610908097401,1.0
1850,0.45529524264881666,1.0
1851,0.4592397800621563,1.0
1852,0.4592739319012329,1.0
1853,0.46837539701512926,1.0
1854,0.4684095488542058,1.0
1855,0.49530412212697655,1.0
1856,0.49533827396605307,1.0
1857,0.500443973907995,1.0
1858,0.5004781257470715,1.0
1859,0.5022540213790513,1.0
1860,0.5022881732181278,1.0
1861,0.5136095078719989,1.0
1862,0.5136436597110754,1.0
1863,0.5189030429288617,1.0
1864,0.5189371947679382,1.0
1865,0.5204740275263823,1.0
1866,0.5205081793654588,1.0
1867,0.5468050954543903,1.0
1868,0.5468392472934668,1.0
1869,0.5472490693623852,1.0
1870,0.5472832212014617,1.0
1871,0.5551893719476794,1.0
1872,0.5552235237867559,1.0
1873,0.5667497694750863,1.0
1874,0.5667839213141628,1.0
1875,0.5768928656808169,1.0
1876,0.5769270175198934,1.0
1877,0.5771148526348144,1.0
1878,0.577149004473891,1.0
1879,0.5941395444144667,1.0
1880,0.5941736962535432,1.0
1881,0.6032922372869779,1.0
1882,0.6033263891260544,1.0
1883,0.6044363238960418,1.0
1884,0.6044704757351184,1.0
1885,0.6046070830914245,1.0
1886,0.604641234930501,1.0
1887,0.6051193606775724,1.0
1888,0.6051535125166491,1.0
1889,0.6122741709641064,1.0
1890,0.6123083228031829,1.0
1891,0.6177726170554284,1.0
1892,0.6178067688945049,1.0
1893,0.6226563300433728,1.0
1894,0.6226904818824494,1.0
1895,0.6248761995833476,1.0
1896,0.6249103514224241,1.0
1897,0.6345753218810833,1.0
1898,0.6346094737201599,1.0
1899,0.6418496636043851,1.0
1900,0.6418838154434616,1.0
1901,0.645674669580957,1.0
1902,0.6457088214200335,1.0
1903,0.6468870598681739,1.0
1904,0.6469212117072505,1.0
1905,0.6614357433147775,1.0
1906,0.661469895153854,1.0
1907,0.6634165499812165,1.0
1908,0.663450701820293,1.0
1909,0.673491342508794,1.0
1910,0.6735254943478707,1.0
1911,0.6797582049793381,1.0
1912,0.6797923568184147,1.0
1913,0.6828660223353028,1.0
1914,0.6829001741743793,1.0
1915,0.6890645811276938,1.0
1916,0.6890987329667703,1.0
1917,0.6951777603223933,1.0
1918,0.6952119121614699,1.0
1919,0.6985587923909703,1.0
1920,0.6985929442300468,1.0
1921,0.707813940780711,1.0
1922,0.7078480926197875,1.0
1923,0.7087360404357774,1.0
1924,0.708770192274854,1.0
1925,0.7168641781359926,1.0
1926,0.7168983299750692,1.0
1927,0.7181960998599775,1.0
1928,0.718230251699054,1.0
1929,0.7217137392848605,1.0
1930,0.721747891123937,1.0
1931,0.7229090536525392,1.0
1932,0.7229432054916157,1.0
1933,0.7231139646869984,1.0
1934,0.7231481165260749,1.0
1935,0.7236433181926847,1.0
1936,0.7236774700317612,1.0
1937,0.7465250503739627,1.0
1938,0.7465592022130392,1.0
1939,0.7518015095112872,1.0
1940,0.7518356613503637,1.0
1941,0.754345821522489,1.0
1942,0.7543799733615655,1.0
1943,0.7553533007752468,1.0
1944,0.7553874526143233,1.0
1945,0.7569584372118439,1.0
1946,0.7569925890509204,1.0
1947,0.7577780813496807,1.0
1948,0.7578122331887572,1.0
1949,0.7620641371537857,1.0
1950,0.7620982889928622,1.0
1951,0.7637888050271507,1.0
1952,0.7638229568662273,1.0
1953,0.7749735323247157,1.0
1954,0.7750076841637922,1.0
1955,0.7806256616918821,1.0
1956,0.7806598135309586,1.0
1957,0.7867388408865817,1.0
1958,0.7867729927256583,1.0
1959,0.7895905194494723,1.0
1960,0.7896246712885489,1.0
1961,0.7977357330692257,1.0
1962,0.7977698849083024,1.0
1963,0.8008606263447287,1.0
1964,0.8008947781838052,1.0
1965,0.8057955670912879,1.0
1966,0.8058297189303644,1.0
1967,0.8151702469177965,1.0
1968,0.815204398756873,1.0
1969,0.8152214746764114,1.0
1970,0.8152556265154879,1.0
1971,0.8316143574331478,1.0
1972,0.8316485092722243,1.0
1973,0.8543424063385814,1.0
1974,0.8543765581776579,1.0
1975,0.8578941976025409,1.0
1976,0.8579283494416174,1.0
1977,0.8604214336942044,1.0
1978,0.8604555855332809,1.0
1979,0.8707182131757795,1.0
1980,0.8707523650148561,1.0
1981,0.8732625251869813,1.0
1982,0.8732966770260578,1.0
1983,0.8802636521976709,1.0
1984,0.8802978040367474,1.0
1985,0.8947611078856597,1.0
1986,0.8947952597247362,1.0
1987,0.8970492811037875,1.0
1988,0.897083432942864,1.0
1989,0.8995082135172979,1.0
1990,0.8995423653563744,1.0
1991,0.91830880092893,1.0
1992,0.9183429527680066,1.0
1993,0.9234315767904102,1.0
1994,0.9234657286294867,1.0
1995,0.9403879648919095,1.0
1996,0.940422116730986,1.0
1997,0.95358765069499,1.0
1998,0.9536218025340665,1.0
1999,0.9566271643728015,1.0
2000,0.956661316211878,1.0
2001,0.9647553020730166,1.0
2002,0.9647894539120931,1.0
2003,0.9703049759229535,1.0
2004,0.97033912776203,1.0
2005,0.9740104504627575,1.0
2006,0.974044602301834,1.0
2007,1.0,1.0
