,fpr,tpr
0,0.0,0.0
1,0.0,0.0006944444444444445
2,0.0,0.001388888888888889
3,4.955401387512388e-05,0.001388888888888889
4,4.955401387512388e-05,0.03194444444444444
5,6.607201850016519e-05,0.03194444444444444
6,6.607201850016519e-05,0.05486111111111111
7,8.259002312520647e-05,0.05486111111111111
8,8.259002312520647e-05,0.06597222222222222
9,8.259002312520647e-05,0.06736111111111111
10,8.259002312520647e-05,0.09583333333333334
11,9.910802775024777e-05,0.09583333333333334
12,9.910802775024777e-05,0.11458333333333333
13,0.00011562603237528906,0.11458333333333333
14,0.00011562603237528906,0.13819444444444445
15,0.00013214403700033037,0.13819444444444445
16,0.00013214403700033037,0.14583333333333334
17,0.00014866204162537167,0.14583333333333334
18,0.00014866204162537167,0.14652777777777778
19,0.00014866204162537167,0.14791666666666667
20,0.00014866204162537167,0.15625
21,0.00014866204162537167,0.15763888888888888
22,0.00014866204162537167,0.16319444444444445
23,0.00016518004625041294,0.16319444444444445
24,0.00016518004625041294,0.17152777777777778
25,0.00018169805087545423,0.17152777777777778
26,0.00018169805087545423,0.17430555555555555
27,0.00019821605550049553,0.17430555555555555
28,0.00019821605550049553,0.17777777777777778
29,0.00021473406012553683,0.17777777777777778
30,0.00021473406012553683,0.18194444444444444
31,0.00023125206475057812,0.18194444444444444
32,0.00023125206475057812,0.19375
33,0.0002477700693756194,0.19375
34,0.0002477700693756194,0.19791666666666666
35,0.0002477700693756194,0.19930555555555557
36,0.0002477700693756194,0.20833333333333334
37,0.00026428807400066074,0.20902777777777778
38,0.00026428807400066074,0.20972222222222223
39,0.000280806078625702,0.20972222222222223
40,0.000280806078625702,0.2125
41,0.00029732408325074334,0.2125
42,0.00029732408325074334,0.21805555555555556
43,0.00029732408325074334,0.21944444444444444
44,0.00029732408325074334,0.22152777777777777
45,0.0003138420878757846,0.22152777777777777
46,0.0003138420878757846,0.23541666666666666
47,0.0003303600925008259,0.23541666666666666
48,0.0003303600925008259,0.24444444444444444
49,0.0003468780971258672,0.24444444444444444
50,0.0003468780971258672,0.2465277777777778
51,0.00036339610175090847,0.2465277777777778
52,0.00036339610175090847,0.25277777777777777
53,0.0003799141063759498,0.25277777777777777
54,0.0003799141063759498,0.25555555555555554
55,0.00039643211100099106,0.25555555555555554
56,0.00039643211100099106,0.26944444444444443
57,0.0004129501156260324,0.26944444444444443
58,0.0004129501156260324,0.2708333333333333
59,0.00042946812025107365,0.2708333333333333
60,0.00042946812025107365,0.2722222222222222
61,0.000445986124876115,0.2722222222222222
62,0.000445986124876115,0.27569444444444446
63,0.00046250412950115625,0.27569444444444446
64,0.00046250412950115625,0.2777777777777778
65,0.00047902213412619757,0.2777777777777778
66,0.00047902213412619757,0.29097222222222224
67,0.00047902213412619757,0.2923611111111111
68,0.00047902213412619757,0.2972222222222222
69,0.0004955401387512388,0.2972222222222222
70,0.0004955401387512388,0.3034722222222222
71,0.0005285761480013215,0.3034722222222222
72,0.0005285761480013215,0.30625
73,0.0005450941526263627,0.30625
74,0.0005450941526263627,0.30972222222222223
75,0.000561612157251404,0.30972222222222223
76,0.000561612157251404,0.31527777777777777
77,0.0005781301618764453,0.31527777777777777
78,0.0005781301618764453,0.32013888888888886
79,0.0005946481665014867,0.32013888888888886
80,0.0005946481665014867,0.3215277777777778
81,0.0005946481665014867,0.3263888888888889
82,0.0006111661711265279,0.3263888888888889
83,0.0006111661711265279,0.3277777777777778
84,0.0006442021803766105,0.3277777777777778
85,0.0006607201850016518,0.3284722222222222
86,0.0006607201850016518,0.33194444444444443
87,0.0006772381896266931,0.33194444444444443
88,0.0006772381896266931,0.33402777777777776
89,0.0006937561942517344,0.33402777777777776
90,0.0006937561942517344,0.33541666666666664
91,0.0007102741988767757,0.33541666666666664
92,0.0007102741988767757,0.3375
93,0.0007267922035018169,0.3375
94,0.0007267922035018169,0.3486111111111111
95,0.0007433102081268583,0.3486111111111111
96,0.0007433102081268583,0.3548611111111111
97,0.0007763462173769409,0.3548611111111111
98,0.0007763462173769409,0.35833333333333334
99,0.0007928642220019821,0.35833333333333334
100,0.0007928642220019821,0.3590277777777778
101,0.0008093822266270234,0.3590277777777778
102,0.0008093822266270234,0.36527777777777776
103,0.0008259002312520648,0.36527777777777776
104,0.0008259002312520648,0.36875
105,0.0008424182358771061,0.36875
106,0.0008424182358771061,0.36944444444444446
107,0.0008589362405021473,0.36944444444444446
108,0.0008589362405021473,0.38125
109,0.0008754542451271886,0.38125
110,0.0008754542451271886,0.3861111111111111
111,0.0009084902543772713,0.3861111111111111
112,0.0009084902543772713,0.3888888888888889
113,0.0009250082590023125,0.3888888888888889
114,0.0009250082590023125,0.39166666666666666
115,0.0009415262636273538,0.39166666666666666
116,0.0009415262636273538,0.3958333333333333
117,0.0009580442682523951,0.3958333333333333
118,0.0009580442682523951,0.3972222222222222
119,0.0009745622728774364,0.3972222222222222
120,0.0009745622728774364,0.39791666666666664
121,0.0009910802775024777,0.39791666666666664
122,0.0009910802775024777,0.4013888888888889
123,0.001007598282127519,0.4013888888888889
124,0.001007598282127519,0.4027777777777778
125,0.0010241162867525603,0.4027777777777778
126,0.0010241162867525603,0.4083333333333333
127,0.001057152296002643,0.4083333333333333
128,0.001057152296002643,0.41041666666666665
129,0.0010901883052527254,0.41041666666666665
130,0.0010901883052527254,0.41597222222222224
131,0.0011067063098777667,0.41597222222222224
132,0.0011067063098777667,0.4201388888888889
133,0.0011397423191278494,0.4201388888888889
134,0.0011397423191278494,0.4222222222222222
135,0.0011562603237528907,0.4222222222222222
136,0.0011562603237528907,0.42430555555555555
137,0.001172778328377932,0.42430555555555555
138,0.001172778328377932,0.4263888888888889
139,0.0011892963330029733,0.4263888888888889
140,0.0011892963330029733,0.4284722222222222
141,0.0012223323422530558,0.4284722222222222
142,0.0012223323422530558,0.4305555555555556
143,0.001238850346878097,0.4305555555555556
144,0.001238850346878097,0.4340277777777778
145,0.0012553683515031384,0.4340277777777778
146,0.0012553683515031384,0.43472222222222223
147,0.001288404360753221,0.43472222222222223
148,0.001288404360753221,0.4354166666666667
149,0.0013049223653782624,0.4354166666666667
150,0.0013049223653782624,0.43680555555555556
151,0.0013214403700033035,0.43680555555555556
152,0.0013214403700033035,0.4395833333333333
153,0.0013379583746283448,0.4395833333333333
154,0.0013379583746283448,0.44166666666666665
155,0.0013709943838784275,0.44166666666666665
156,0.0013709943838784275,0.44375
157,0.0013875123885034688,0.44375
158,0.0013875123885034688,0.45208333333333334
159,0.0014040303931285101,0.45208333333333334
160,0.0014040303931285101,0.4527777777777778
161,0.0014205483977535514,0.4527777777777778
162,0.0014205483977535514,0.45694444444444443
163,0.0014370664023785928,0.45694444444444443
164,0.0014370664023785928,0.4576388888888889
165,0.0014535844070036339,0.4576388888888889
166,0.0014535844070036339,0.4583333333333333
167,0.0014535844070036339,0.4597222222222222
168,0.0014535844070036339,0.4618055555555556
169,0.0014701024116286752,0.4618055555555556
170,0.0014701024116286752,0.46319444444444446
171,0.0015031384208787578,0.46319444444444446
172,0.0015031384208787578,0.4638888888888889
173,0.0015196564255037992,0.4638888888888889
174,0.0015196564255037992,0.46597222222222223
175,0.0015526924347538818,0.46597222222222223
176,0.0015526924347538818,0.46805555555555556
177,0.0015857284440039642,0.46805555555555556
178,0.0015857284440039642,0.4708333333333333
179,0.0016352824578790882,0.4708333333333333
180,0.0016352824578790882,0.4722222222222222
181,0.0016518004625041295,0.4722222222222222
182,0.0016518004625041295,0.47430555555555554
183,0.0016683184671291709,0.47430555555555554
184,0.0016683184671291709,0.47847222222222224
185,0.0016848364717542122,0.47847222222222224
186,0.0016848364717542122,0.4826388888888889
187,0.0017013544763792533,0.4826388888888889
188,0.0017013544763792533,0.48333333333333334
189,0.0017178724810042946,0.48333333333333334
190,0.0017178724810042946,0.4840277777777778
191,0.0017178724810042946,0.48680555555555555
192,0.0017178724810042946,0.4895833333333333
193,0.001734390485629336,0.4895833333333333
194,0.001734390485629336,0.4909722222222222
195,0.0017674264948794186,0.4909722222222222
196,0.0017674264948794186,0.4930555555555556
197,0.0018004625041295012,0.4930555555555556
198,0.0018004625041295012,0.4965277777777778
199,0.0018334985133795837,0.4965277777777778
200,0.0018334985133795837,0.5013888888888889
201,0.001850016518004625,0.5013888888888889
202,0.001850016518004625,0.5027777777777778
203,0.0018665345226296663,0.5027777777777778
204,0.0018665345226296663,0.5090277777777777
205,0.0018665345226296663,0.5104166666666666
206,0.0018665345226296663,0.5152777777777777
207,0.0018830525272547076,0.5152777777777777
208,0.0018830525272547076,0.5159722222222223
209,0.001899570531879749,0.5159722222222223
210,0.001899570531879749,0.5173611111111112
211,0.0019160885365047903,0.5173611111111112
212,0.0019160885365047903,0.51875
213,0.0019491245457548727,0.51875
214,0.0019491245457548727,0.5194444444444445
215,0.0019821605550049554,0.5194444444444445
216,0.0019821605550049554,0.5201388888888889
217,0.0019986785596299967,0.5201388888888889
218,0.0019986785596299967,0.5208333333333334
219,0.0020482325735051207,0.5208333333333334
220,0.0020482325735051207,0.5229166666666667
221,0.0020812685827552033,0.5229166666666667
222,0.0020812685827552033,0.5263888888888889
223,0.0020977865873802446,0.5263888888888889
224,0.0020977865873802446,0.5270833333333333
225,0.002114304592005286,0.5270833333333333
226,0.002114304592005286,0.5284722222222222
227,0.0021638586058804095,0.5284722222222222
228,0.0021638586058804095,0.5291666666666667
229,0.002180376610505451,0.5291666666666667
230,0.002180376610505451,0.53125
231,0.002196894615130492,0.53125
232,0.002196894615130492,0.5326388888888889
233,0.002246448629005616,0.5326388888888889
234,0.002246448629005616,0.5347222222222222
235,0.0022629666336306574,0.5347222222222222
236,0.0022629666336306574,0.5361111111111111
237,0.00229600264288074,0.5361111111111111
238,0.00229600264288074,0.5430555555555555
239,0.0023125206475057814,0.5430555555555555
240,0.0023125206475057814,0.5444444444444444
241,0.0023290386521308227,0.5444444444444444
242,0.0023290386521308227,0.5451388888888888
243,0.002345556656755864,0.5451388888888888
244,0.002345556656755864,0.5465277777777777
245,0.0023620746613809054,0.5465277777777777
246,0.0023620746613809054,0.5513888888888889
247,0.0023951106706309876,0.5513888888888889
248,0.0023951106706309876,0.5520833333333334
249,0.002411628675256029,0.5520833333333334
250,0.002411628675256029,0.5527777777777778
251,0.0024281466798810702,0.5527777777777778
252,0.0024281466798810702,0.5548611111111111
253,0.0024446646845061116,0.5548611111111111
254,0.0024446646845061116,0.5576388888888889
255,0.0024942186983812355,0.5576388888888889
256,0.0024942186983812355,0.5590277777777778
257,0.002510736703006277,0.5590277777777778
258,0.002510736703006277,0.5597222222222222
259,0.0025437727122563595,0.5597222222222222
260,0.0025437727122563595,0.5604166666666667
261,0.002560290716881401,0.5604166666666667
262,0.002560290716881401,0.56875
263,0.002576808721506442,0.56875
264,0.002576808721506442,0.5694444444444444
265,0.0025933267261314835,0.5694444444444444
266,0.0025933267261314835,0.5701388888888889
267,0.002626362735381566,0.5701388888888889
268,0.002626362735381566,0.5708333333333333
269,0.0026759167492566896,0.5708333333333333
270,0.0026759167492566896,0.5722222222222222
271,0.0027254707631318136,0.5722222222222222
272,0.0027254707631318136,0.5736111111111111
273,0.002741988767756855,0.5736111111111111
274,0.002741988767756855,0.575
275,0.0027585067723818963,0.575
276,0.0027585067723818963,0.5777777777777777
277,0.002791542781631979,0.5777777777777777
278,0.002791542781631979,0.5784722222222223
279,0.0028245787908820616,0.5784722222222223
280,0.0028245787908820616,0.5798611111111112
281,0.002841096795507103,0.5798611111111112
282,0.002841096795507103,0.5826388888888889
283,0.002857614800132144,0.5826388888888889
284,0.002857614800132144,0.5840277777777778
285,0.0028741328047571855,0.5840277777777778
286,0.0028741328047571855,0.5868055555555556
287,0.0028906508093822264,0.5868055555555556
288,0.0028906508093822264,0.5881944444444445
289,0.0029071688140072677,0.5881944444444445
290,0.0029071688140072677,0.5888888888888889
291,0.002923686818632309,0.5888888888888889
292,0.002923686818632309,0.5895833333333333
293,0.0029402048232573504,0.5895833333333333
294,0.0029402048232573504,0.5902777777777778
295,0.0029567228278823917,0.5902777777777778
296,0.0029567228278823917,0.5930555555555556
297,0.002973240832507433,0.5930555555555556
298,0.002973240832507433,0.59375
299,0.0029897588371324744,0.59375
300,0.0029897588371324744,0.5944444444444444
301,0.0029897588371324744,0.5958333333333333
302,0.0029897588371324744,0.5972222222222222
303,0.0030062768417575157,0.5972222222222222
304,0.0030062768417575157,0.5979166666666667
305,0.003022794846382557,0.5979166666666667
306,0.003022794846382557,0.5986111111111111
307,0.0030393128510075983,0.5986111111111111
308,0.0030393128510075983,0.6
309,0.0030558308556326397,0.6
310,0.0030558308556326397,0.6013888888888889
311,0.003072348860257681,0.6013888888888889
312,0.003072348860257681,0.6020833333333333
313,0.003121902874132805,0.6020833333333333
314,0.003121902874132805,0.6034722222222222
315,0.003138420878757846,0.6034722222222222
316,0.003138420878757846,0.6048611111111111
317,0.0031714568880079285,0.6048611111111111
318,0.0031714568880079285,0.6055555555555555
319,0.00318797489263297,0.6055555555555555
320,0.00318797489263297,0.60625
321,0.0032705649157581764,0.60625
322,0.0032705649157581764,0.6069444444444444
323,0.0032870829203832178,0.6069444444444444
324,0.0032870829203832178,0.6090277777777777
325,0.0033366369342583417,0.6090277777777777
326,0.0033366369342583417,0.6111111111111112
327,0.003353154938883383,0.6111111111111112
328,0.003353154938883383,0.6125
329,0.0033696729435084244,0.6125
330,0.0033696729435084244,0.6138888888888889
331,0.0033861909481334653,0.6138888888888889
332,0.0033861909481334653,0.6145833333333334
333,0.003419226957383548,0.6145833333333334
334,0.003419226957383548,0.6152777777777778
335,0.0034522629666336306,0.6152777777777778
336,0.0034522629666336306,0.6159722222222223
337,0.003485298975883713,0.6159722222222223
338,0.003485298975883713,0.6166666666666667
339,0.003518334985133796,0.6166666666666667
340,0.003518334985133796,0.6173611111111111
341,0.003534852989758837,0.6173611111111111
342,0.003534852989758837,0.6180555555555556
343,0.003650479022134126,0.6180555555555556
344,0.003650479022134126,0.6194444444444445
345,0.0036835150313842087,0.6194444444444445
346,0.0036835150313842087,0.6222222222222222
347,0.0037165510406342913,0.6222222222222222
348,0.0037165510406342913,0.6236111111111111
349,0.0037826230591344566,0.6236111111111111
350,0.0037826230591344566,0.625
351,0.0038156590683845392,0.625
352,0.0038156590683845392,0.6270833333333333
353,0.0038321770730095806,0.6270833333333333
354,0.0038321770730095806,0.6277777777777778
355,0.003865213082259663,0.6277777777777778
356,0.003865213082259663,0.6284722222222222
357,0.0038817310868847045,0.6284722222222222
358,0.0038817310868847045,0.6298611111111111
359,0.0038982490915097454,0.6298611111111111
360,0.0038982490915097454,0.63125
361,0.003914767096134787,0.63125
362,0.003914767096134787,0.6368055555555555
363,0.003931285100759828,0.6368055555555555
364,0.003931285100759828,0.6395833333333333
365,0.003997357119259993,0.6395833333333333
366,0.003997357119259993,0.6416666666666667
367,0.004013875123885034,0.6416666666666667
368,0.004013875123885034,0.6423611111111112
369,0.004030393128510076,0.6423611111111112
370,0.004030393128510076,0.6444444444444445
371,0.004046911133135117,0.6444444444444445
372,0.004046911133135117,0.6451388888888889
373,0.004112983151635282,0.6451388888888889
374,0.004112983151635282,0.6458333333333334
375,0.004129501156260324,0.6458333333333334
376,0.004129501156260324,0.6465277777777778
377,0.004146019160885365,0.6465277777777778
378,0.004146019160885365,0.6493055555555556
379,0.00421209117938553,0.6493055555555556
380,0.00421209117938553,0.6534722222222222
381,0.004228609184010572,0.6534722222222222
382,0.004228609184010572,0.6541666666666667
383,0.004245127188635613,0.6541666666666667
384,0.004245127188635613,0.6555555555555556
385,0.0042781631978856954,0.6555555555555556
386,0.0042781631978856954,0.65625
387,0.004311199207135778,0.65625
388,0.004311199207135778,0.6576388888888889
389,0.004377271225635943,0.6576388888888889
390,0.004377271225635943,0.6604166666666667
391,0.004410307234886026,0.6604166666666667
392,0.004410307234886026,0.6611111111111111
393,0.004426825239511067,0.6611111111111111
394,0.004426825239511067,0.6618055555555555
395,0.004476379253386191,0.6618055555555555
396,0.004476379253386191,0.6631944444444444
397,0.004492897258011232,0.6631944444444444
398,0.004492897258011232,0.6645833333333333
399,0.004509415262636274,0.6645833333333333
400,0.004509415262636274,0.6652777777777777
401,0.004575487281136438,0.6652777777777777
402,0.004575487281136438,0.6666666666666666
403,0.00459200528576148,0.6666666666666666
404,0.00459200528576148,0.6680555555555555
405,0.004608523290386521,0.6680555555555555
406,0.004608523290386521,0.66875
407,0.004641559299636604,0.66875
408,0.004641559299636604,0.6722222222222223
409,0.0046580773042616454,0.6722222222222223
410,0.0046580773042616454,0.6736111111111112
411,0.004674595308886686,0.6736111111111112
412,0.004674595308886686,0.6743055555555556
413,0.004790221341261975,0.6743055555555556
414,0.004790221341261975,0.6756944444444445
415,0.004806739345887017,0.6756944444444445
416,0.004806739345887017,0.6763888888888889
417,0.004823257350512058,0.6763888888888889
418,0.004823257350512058,0.6777777777777778
419,0.004872811364387182,0.6777777777777778
420,0.004872811364387182,0.6784722222222223
421,0.004905847373637265,0.6784722222222223
422,0.004905847373637265,0.6798611111111111
423,0.004988437396762471,0.6798611111111111
424,0.004988437396762471,0.6805555555555556
425,0.005087545424512719,0.6805555555555556
426,0.005087545424512719,0.68125
427,0.005120581433762802,0.68125
428,0.005120581433762802,0.6833333333333333
429,0.0051370994383878425,0.6833333333333333
430,0.005170135447637925,0.6833333333333333
431,0.005170135447637925,0.6840277777777778
432,0.005203171456888008,0.6840277777777778
433,0.005203171456888008,0.6847222222222222
434,0.005285761480013214,0.6847222222222222
435,0.005285761480013214,0.6861111111111111
436,0.005318797489263297,0.6861111111111111
437,0.005318797489263297,0.6875
438,0.005351833498513379,0.6875
439,0.005351833498513379,0.6881944444444444
440,0.005368351503138421,0.6881944444444444
441,0.005368351503138421,0.6895833333333333
442,0.005417905517013545,0.6895833333333333
443,0.005417905517013545,0.6930555555555555
444,0.005467459530888669,0.6930555555555555
445,0.005467459530888669,0.69375
446,0.00548397753551371,0.69375
447,0.00548397753551371,0.6944444444444444
448,0.005500495540138752,0.6944444444444444
449,0.005500495540138752,0.6958333333333333
450,0.005583085563263958,0.6958333333333333
451,0.0056161215725140405,0.6958333333333333
452,0.005632639577139081,0.6958333333333333
453,0.005632639577139081,0.6972222222222222
454,0.005682193591014206,0.6972222222222222
455,0.005682193591014206,0.6979166666666666
456,0.005698711595639247,0.6979166666666666
457,0.005698711595639247,0.6986111111111111
458,0.005731747604889329,0.6986111111111111
459,0.005731747604889329,0.6993055555555555
460,0.005797819623389495,0.6993055555555555
461,0.005797819623389495,0.7013888888888888
462,0.005830855632639577,0.7013888888888888
463,0.005830855632639577,0.7034722222222223
464,0.005880409646514701,0.7034722222222223
465,0.005880409646514701,0.7041666666666667
466,0.0058969276511397425,0.7041666666666667
467,0.0058969276511397425,0.7048611111111112
468,0.006012553683515031,0.7048611111111112
469,0.006012553683515031,0.7069444444444445
470,0.006029071688140072,0.7069444444444445
471,0.006029071688140072,0.7076388888888889
472,0.006045589692765114,0.7076388888888889
473,0.006045589692765114,0.7104166666666667
474,0.00612817971589032,0.7104166666666667
475,0.00612817971589032,0.7145833333333333
476,0.006161215725140403,0.7145833333333333
477,0.006161215725140403,0.7152777777777778
478,0.0061942517343904855,0.7152777777777778
479,0.0061942517343904855,0.7159722222222222
480,0.006210769739015527,0.7159722222222222
481,0.006210769739015527,0.7166666666666667
482,0.006227287743640568,0.7166666666666667
483,0.006227287743640568,0.7180555555555556
484,0.006276841757515692,0.7180555555555556
485,0.006276841757515692,0.7194444444444444
486,0.006342913776015857,0.7194444444444444
487,0.006342913776015857,0.7201388888888889
488,0.00637594978526594,0.7201388888888889
489,0.00637594978526594,0.7208333333333333
490,0.006425503799141064,0.7208333333333333
491,0.006425503799141064,0.7229166666666667
492,0.006557647836141394,0.7229166666666667
493,0.006557647836141394,0.7243055555555555
494,0.006590683845391476,0.7243055555555555
495,0.006590683845391476,0.7256944444444444
496,0.006607201850016518,0.7256944444444444
497,0.006607201850016518,0.7263888888888889
498,0.006623719854641559,0.7263888888888889
499,0.006623719854641559,0.7270833333333333
500,0.006739345887016849,0.7270833333333333
501,0.006739345887016849,0.7277777777777777
502,0.006821935910142055,0.7277777777777777
503,0.006821935910142055,0.7284722222222222
504,0.0068714899240171785,0.7284722222222222
505,0.0068714899240171785,0.7291666666666666
506,0.00688800792864222,0.7291666666666666
507,0.00688800792864222,0.7298611111111111
508,0.006904525933267261,0.7298611111111111
509,0.006904525933267261,0.7305555555555555
510,0.006937561942517344,0.7305555555555555
511,0.006937561942517344,0.7319444444444444
512,0.006987115956392468,0.7319444444444444
513,0.006987115956392468,0.7326388888888888
514,0.007069705979517674,0.7326388888888888
515,0.007069705979517674,0.7333333333333333
516,0.007102741988767757,0.7333333333333333
517,0.007102741988767757,0.7347222222222223
518,0.007119259993392798,0.7347222222222223
519,0.007119259993392798,0.7354166666666667
520,0.007168814007267922,0.7354166666666667
521,0.007168814007267922,0.7361111111111112
522,0.007185332011892963,0.7361111111111112
523,0.007185332011892963,0.7375
524,0.007234886025768088,0.7375
525,0.007234886025768088,0.7388888888888889
526,0.0072514040303931285,0.7388888888888889
527,0.0072514040303931285,0.7402777777777778
528,0.007300958044268252,0.7402777777777778
529,0.007300958044268252,0.7423611111111111
530,0.007333994053518335,0.7423611111111111
531,0.007333994053518335,0.7430555555555556
532,0.007449620085893624,0.7430555555555556
533,0.007449620085893624,0.74375
534,0.007466138090518665,0.74375
535,0.007466138090518665,0.7444444444444445
536,0.007482656095143707,0.7444444444444445
537,0.007482656095143707,0.7451388888888889
538,0.007763462173769409,0.7451388888888889
539,0.007763462173769409,0.7472222222222222
540,0.007829534192269574,0.7472222222222222
541,0.007829534192269574,0.7479166666666667
542,0.00789560621076974,0.7479166666666667
543,0.00789560621076974,0.7486111111111111
544,0.007945160224644863,0.7486111111111111
545,0.007945160224644863,0.7493055555555556
546,0.007961678229269905,0.7493055555555556
547,0.007961678229269905,0.75
548,0.008011232243145028,0.75
549,0.008011232243145028,0.7506944444444444
550,0.008192930294020483,0.7506944444444444
551,0.008192930294020483,0.7513888888888889
552,0.008242484307895606,0.7513888888888889
553,0.008242484307895606,0.7520833333333333
554,0.008259002312520648,0.7520833333333333
555,0.008259002312520648,0.7541666666666667
556,0.008325074331020813,0.7541666666666667
557,0.008325074331020813,0.75625
558,0.008440700363396102,0.75625
559,0.008440700363396102,0.7576388888888889
560,0.008523290386521309,0.7576388888888889
561,0.008523290386521309,0.7583333333333333
562,0.008556326395771391,0.7583333333333333
563,0.008556326395771391,0.7590277777777777
564,0.008622398414271556,0.7590277777777777
565,0.008622398414271556,0.7597222222222222
566,0.008738024446646845,0.7597222222222222
567,0.008738024446646845,0.7604166666666666
568,0.008771060455896929,0.7604166666666666
569,0.008771060455896929,0.7611111111111111
570,0.00880409646514701,0.7611111111111111
571,0.00880409646514701,0.7618055555555555
572,0.008837132474397092,0.7618055555555555
573,0.008837132474397092,0.7625
574,0.008903204492897257,0.7625
575,0.008903204492897257,0.7631944444444444
576,0.008919722497522299,0.7631944444444444
577,0.008919722497522299,0.7652777777777777
578,0.009002312520647506,0.7652777777777777
579,0.009002312520647506,0.7659722222222223
580,0.00905186653452263,0.7659722222222223
581,0.00905186653452263,0.7666666666666667
582,0.009101420548397753,0.7666666666666667
583,0.009101420548397753,0.7673611111111112
584,0.009134456557647837,0.7673611111111112
585,0.009134456557647837,0.7680555555555556
586,0.009150974562272877,0.7680555555555556
587,0.009150974562272877,0.76875
588,0.009167492566897919,0.76875
589,0.00918401057152296,0.7694444444444445
590,0.00918401057152296,0.7701388888888889
591,0.009217046580773042,0.7701388888888889
592,0.009217046580773042,0.7708333333333334
593,0.009299636603898249,0.7708333333333334
594,0.009299636603898249,0.7715277777777778
595,0.009332672613148331,0.7715277777777778
596,0.009332672613148331,0.7722222222222223
597,0.009398744631648496,0.7722222222222223
598,0.009398744631648496,0.7729166666666667
599,0.009415262636273538,0.7729166666666667
600,0.009415262636273538,0.7743055555555556
601,0.009448298645523621,0.7743055555555556
602,0.009448298645523621,0.775
603,0.009464816650148661,0.775
604,0.009464816650148661,0.7756944444444445
605,0.009464816650148661,0.7770833333333333
606,0.009497852659398745,0.7770833333333333
607,0.009497852659398745,0.7784722222222222
608,0.009613478691774034,0.7784722222222222
609,0.009613478691774034,0.7791666666666667
610,0.009762140733399406,0.7791666666666667
611,0.009762140733399406,0.7798611111111111
612,0.009795176742649488,0.7798611111111111
613,0.009795176742649488,0.7805555555555556
614,0.00982821275189957,0.7805555555555556
615,0.00982821275189957,0.78125
616,0.009844730756524612,0.78125
617,0.009844730756524612,0.7826388888888889
618,0.009861248761149653,0.7826388888888889
619,0.009861248761149653,0.7833333333333333
620,0.009910802775024777,0.7833333333333333
621,0.009910802775024777,0.7840277777777778
622,0.010175090849025438,0.7840277777777778
623,0.010175090849025438,0.7854166666666667
624,0.01019160885365048,0.7854166666666667
625,0.01019160885365048,0.7875
626,0.010241162867525603,0.7875
627,0.010241162867525603,0.7881944444444444
628,0.01034027089527585,0.7881944444444444
629,0.01034027089527585,0.7888888888888889
630,0.010422860918401057,0.7888888888888889
631,0.010422860918401057,0.7895833333333333
632,0.010521968946151304,0.7895833333333333
633,0.010521968946151304,0.7902777777777777
634,0.010538486950776346,0.7902777777777777
635,0.010538486950776346,0.7916666666666666
636,0.010670630987776677,0.7916666666666666
637,0.010670630987776677,0.7923611111111111
638,0.010819293029402047,0.7923611111111111
639,0.010852329038652131,0.7923611111111111
640,0.010934919061777338,0.7923611111111111
641,0.010934919061777338,0.7930555555555555
642,0.011034027089527585,0.7930555555555555
643,0.011034027089527585,0.79375
644,0.011149653121902874,0.79375
645,0.011149653121902874,0.7944444444444444
646,0.011265279154278163,0.7944444444444444
647,0.011265279154278163,0.7958333333333333
648,0.011298315163528246,0.7958333333333333
649,0.011298315163528246,0.7972222222222223
650,0.011331351172778328,0.7972222222222223
651,0.011331351172778328,0.7979166666666667
652,0.011463495209778659,0.7979166666666667
653,0.011463495209778659,0.7986111111111112
654,0.011496531219028742,0.7986111111111112
655,0.011496531219028742,0.8
656,0.011628675256029071,0.8
657,0.011628675256029071,0.8006944444444445
658,0.011661711265279154,0.8006944444444445
659,0.011661711265279154,0.8020833333333334
660,0.011711265279154278,0.8020833333333334
661,0.011711265279154278,0.8027777777777778
662,0.011925999339279816,0.8027777777777778
663,0.011925999339279816,0.8034722222222223
664,0.011942517343904856,0.8034722222222223
665,0.011942517343904856,0.8048611111111111
666,0.012025107367030063,0.8048611111111111
667,0.012025107367030063,0.8055555555555556
668,0.012058143376280145,0.8055555555555556
669,0.012058143376280145,0.80625
670,0.012074661380905186,0.80625
671,0.012074661380905186,0.8069444444444445
672,0.012190287413280475,0.8069444444444445
673,0.012190287413280475,0.8076388888888889
674,0.012206805417905517,0.8076388888888889
675,0.012206805417905517,0.8083333333333333
676,0.0122398414271556,0.8083333333333333
677,0.0122398414271556,0.8090277777777778
678,0.01237198546415593,0.8090277777777778
679,0.012405021473406013,0.8090277777777778
680,0.012570201519656425,0.8090277777777778
681,0.012570201519656425,0.8097222222222222
682,0.012586719524281467,0.8097222222222222
683,0.012586719524281467,0.8104166666666667
684,0.012652791542781632,0.8104166666666667
685,0.012652791542781632,0.8118055555555556
686,0.012718863561281797,0.8118055555555556
687,0.012718863561281797,0.8125
688,0.012768417575156921,0.8125
689,0.012768417575156921,0.8131944444444444
690,0.012834489593657086,0.8131944444444444
691,0.012834489593657086,0.8138888888888889
692,0.012983151635282459,0.8138888888888889
693,0.012983151635282459,0.8152777777777778
694,0.013214403700033036,0.8152777777777778
695,0.013214403700033036,0.8159722222222222
696,0.013230921704658078,0.8159722222222222
697,0.013230921704658078,0.8166666666666667
698,0.013280475718533202,0.8166666666666667
699,0.013280475718533202,0.8173611111111111
700,0.013330029732408325,0.8173611111111111
701,0.013330029732408325,0.8180555555555555
702,0.013445655764783614,0.8180555555555555
703,0.013478691774033697,0.8180555555555555
704,0.013495209778658738,0.8180555555555555
705,0.013495209778658738,0.8194444444444444
706,0.01351172778328378,0.8194444444444444
707,0.01351172778328378,0.8201388888888889
708,0.013544763792533861,0.8201388888888889
709,0.013544763792533861,0.8208333333333333
710,0.013594317806408986,0.8208333333333333
711,0.013594317806408986,0.8215277777777777
712,0.013759497852659399,0.8215277777777777
713,0.013759497852659399,0.8222222222222222
714,0.013941195903534853,0.8222222222222222
715,0.013941195903534853,0.8229166666666666
716,0.014122893954410307,0.8229166666666666
717,0.014122893954410307,0.8236111111111111
718,0.014139411959035349,0.8236111111111111
719,0.014139411959035349,0.8243055555555555
720,0.014205483977535514,0.8243055555555555
721,0.014205483977535514,0.825
722,0.014288074000660721,0.825
723,0.014288074000660721,0.8256944444444444
724,0.014800132144037,0.8256944444444444
725,0.014800132144037,0.8263888888888888
726,0.014899240171787249,0.8263888888888888
727,0.014899240171787249,0.8270833333333333
728,0.01504790221341262,0.8270833333333333
729,0.01504790221341262,0.8277777777777777
730,0.015113974231912785,0.8277777777777777
731,0.015113974231912785,0.8284722222222223
732,0.0155599603567889,0.8284722222222223
733,0.015592996366038982,0.8284722222222223
734,0.015609514370664023,0.8284722222222223
735,0.015642550379914105,0.8284722222222223
736,0.016154608523290388,0.8284722222222223
737,0.016154608523290388,0.8291666666666667
738,0.01633630657416584,0.8291666666666667
739,0.01633630657416584,0.8298611111111112
740,0.016402378592666005,0.8298611111111112
741,0.016402378592666005,0.8305555555555556
742,0.01698050875454245,0.8305555555555556
743,0.01698050875454245,0.83125
744,0.01734390485629336,0.83125
745,0.01734390485629336,0.8319444444444445
746,0.01759167492566898,0.8319444444444445
747,0.01759167492566898,0.8326388888888889
748,0.01774033696729435,0.8326388888888889
749,0.017773372976544435,0.8326388888888889
750,0.017806408985794515,0.8326388888888889
751,0.017806408985794515,0.8333333333333334
752,0.018136769078295343,0.8333333333333334
753,0.018136769078295343,0.8340277777777778
754,0.018318467129170797,0.8340277777777778
755,0.018318467129170797,0.8347222222222223
756,0.01850016518004625,0.8347222222222223
757,0.01850016518004625,0.8354166666666667
758,0.01851668318467129,0.8354166666666667
759,0.01851668318467129,0.8361111111111111
760,0.018549719193921375,0.8361111111111111
761,0.018549719193921375,0.8368055555555556
762,0.01871489924017179,0.8368055555555556
763,0.01871489924017179,0.8375
764,0.018797489263296992,0.8375
765,0.018797489263296992,0.8381944444444445
766,0.01886356128179716,0.8381944444444445
767,0.01886356128179716,0.8388888888888889
768,0.018929633300297323,0.8388888888888889
769,0.018929633300297323,0.8395833333333333
770,0.019557317476048892,0.8395833333333333
771,0.019590353485298976,0.8395833333333333
772,0.019838123554674594,0.8395833333333333
773,0.019871159563924677,0.8395833333333333
774,0.01990419557317476,0.8395833333333333
775,0.01990419557317476,0.8402777777777778
776,0.020218037661050545,0.8402777777777778
777,0.020218037661050545,0.8409722222222222
778,0.020482325735051207,0.8409722222222222
779,0.020482325735051207,0.8416666666666667
780,0.020498843739676247,0.8416666666666667
781,0.020498843739676247,0.8430555555555556
782,0.020597951767426494,0.8430555555555556
783,0.020597951767426494,0.84375
784,0.020713577799801784,0.84375
785,0.020713577799801784,0.8451388888888889
786,0.021126527915427816,0.8451388888888889
787,0.021126527915427816,0.8458333333333333
788,0.021638586058804095,0.8458333333333333
789,0.021638586058804095,0.8465277777777778
790,0.022018500165180047,0.8465277777777778
791,0.022018500165180047,0.8472222222222222
792,0.022117608192930294,0.8472222222222222
793,0.022117608192930294,0.8479166666666667
794,0.022134126197555334,0.8479166666666667
795,0.022134126197555334,0.8486111111111111
796,0.022249752229930624,0.8486111111111111
797,0.022249752229930624,0.85
798,0.022282788239180708,0.85
799,0.022282788239180708,0.8506944444444444
800,0.022662702345556656,0.8506944444444444
801,0.022662702345556656,0.8513888888888889
802,0.023059134456557648,0.8513888888888889
803,0.023059134456557648,0.8520833333333333
804,0.023141724479682855,0.8520833333333333
805,0.023141724479682855,0.8534722222222222
806,0.023356458539808393,0.8534722222222222
807,0.023356458539808393,0.8541666666666666
808,0.02421539478031054,0.8541666666666666
809,0.02424843078956062,0.8541666666666666
810,0.024264948794185663,0.8541666666666666
811,0.024264948794185663,0.8548611111111111
812,0.024463164849686157,0.8548611111111111
813,0.024463164849686157,0.8555555555555555
814,0.024661380905186655,0.8555555555555555
815,0.024661380905186655,0.85625
816,0.02487611496531219,0.85625
817,0.024909150974562273,0.85625
818,0.025156921043937894,0.85625
819,0.025156921043937894,0.8569444444444444
820,0.025536835150313842,0.8569444444444444
821,0.025536835150313842,0.8576388888888888
822,0.025553353154938882,0.8576388888888888
823,0.025553353154938882,0.8583333333333333
824,0.02563594317806409,0.8583333333333333
825,0.02563594317806409,0.8590277777777777
826,0.025966303270564917,0.8590277777777777
827,0.025999339279814997,0.8590277777777777
828,0.026280145358440702,0.8590277777777777
829,0.026280145358440702,0.8597222222222223
830,0.026296663363065742,0.8597222222222223
831,0.026296663363065742,0.8604166666666667
832,0.026759167492566897,0.8604166666666667
833,0.026759167492566897,0.8611111111111112
834,0.027254707631318136,0.8611111111111112
835,0.027254707631318136,0.8618055555555556
836,0.027386851668318467,0.8618055555555556
837,0.027386851668318467,0.8625
838,0.02741988767756855,0.8625
839,0.02741988767756855,0.8631944444444445
840,0.02755203171456888,0.8631944444444445
841,0.02755203171456888,0.8638888888888889
842,0.027618103733069044,0.8638888888888889
843,0.027618103733069044,0.8645833333333334
844,0.027634621737694088,0.8645833333333334
845,0.027634621737694088,0.8659722222222223
846,0.02806408985794516,0.8659722222222223
847,0.02806408985794516,0.8666666666666667
848,0.028163197885695407,0.8666666666666667
849,0.02819623389494549,0.8666666666666667
850,0.028576148001321442,0.8666666666666667
851,0.028576148001321442,0.8673611111111111
852,0.02869177403369673,0.8673611111111111
853,0.02869177403369673,0.8680555555555556
854,0.02908820614469772,0.8680555555555556
855,0.02908820614469772,0.86875
856,0.02943508424182359,0.86875
857,0.02943508424182359,0.8694444444444445
858,0.029501156260323753,0.8694444444444445
859,0.029501156260323753,0.8701388888888889
860,0.030161876445325406,0.8701388888888889
861,0.030161876445325406,0.8708333333333333
862,0.030442682523951107,0.8708333333333333
863,0.030442682523951107,0.8715277777777778
864,0.03097125867195243,0.8715277777777778
865,0.03097125867195243,0.8722222222222222
866,0.03149983481995375,0.8722222222222222
867,0.03149983481995375,0.8729166666666667
868,0.031830194912454576,0.8729166666666667
869,0.031830194912454576,0.8736111111111111
870,0.03191278493557978,0.8736111111111111
871,0.03191278493557978,0.8743055555555556
872,0.03206144697720515,0.8743055555555556
873,0.03206144697720515,0.875
874,0.032193591014205485,0.875
875,0.032193591014205485,0.8756944444444444
876,0.032457879088206146,0.8756944444444444
877,0.032457879088206146,0.8763888888888889
878,0.03250743310208127,0.8763888888888889
879,0.03250743310208127,0.8777777777777778
880,0.03262305913445656,0.8777777777777778
881,0.03262305913445656,0.8784722222222222
882,0.03262305913445656,0.8798611111111111
883,0.03277172117608193,0.8798611111111111
884,0.03277172117608193,0.8805555555555555
885,0.033267261314833166,0.8805555555555555
886,0.033267261314833166,0.88125
887,0.03331681532870829,0.88125
888,0.03331681532870829,0.8819444444444444
889,0.03333333333333333,0.8819444444444444
890,0.03333333333333333,0.8826388888888889
891,0.03458870168483647,0.8826388888888889
892,0.03458870168483647,0.8833333333333333
893,0.03533201189296333,0.8833333333333333
894,0.03533201189296333,0.8840277777777777
895,0.03569540799471424,0.8840277777777777
896,0.03569540799471424,0.8847222222222222
897,0.03635612817971589,0.8847222222222222
898,0.03638916418896597,0.8847222222222222
899,0.036488272216716224,0.8847222222222222
900,0.036488272216716224,0.8854166666666666
901,0.03718202841096795,0.8854166666666666
902,0.03718202841096795,0.8861111111111111
903,0.037528906508093825,0.8861111111111111
904,0.037528906508093825,0.8868055555555555
905,0.037594978526593985,0.8868055555555555
906,0.03762801453584407,0.8868055555555555
907,0.037826230591344566,0.8868055555555555
908,0.037826230591344566,0.8875
909,0.03812355467459531,0.8875
910,0.03812355467459531,0.8888888888888888
911,0.03865213082259663,0.8888888888888888
912,0.03865213082259663,0.8895833333333333
913,0.03906508093822266,0.8895833333333333
914,0.03906508093822266,0.8902777777777777
915,0.0392798149983482,0.8902777777777777
916,0.0392798149983482,0.8909722222222223
917,0.03941195903534853,0.8909722222222223
918,0.03944499504459861,0.8909722222222223
919,0.03952758506772382,0.8909722222222223
920,0.039560621076973904,0.8909722222222223
921,0.040006607201850015,0.8909722222222223
922,0.040006607201850015,0.8916666666666667
923,0.040336967294350844,0.8916666666666667
924,0.040336967294350844,0.8923611111111112
925,0.040749917409976875,0.8923611111111112
926,0.040749917409976875,0.8930555555555556
927,0.04096465147010241,0.8930555555555556
928,0.04096465147010241,0.89375
929,0.04104724149322762,0.89375
930,0.04104724149322762,0.8944444444444445
931,0.042005285761480014,0.8944444444444445
932,0.042005285761480014,0.8951388888888889
933,0.04202180376610506,0.8951388888888889
934,0.04202180376610506,0.8958333333333334
935,0.042269573835480675,0.8958333333333334
936,0.042302609844730756,0.8958333333333334
937,0.04235216385860588,0.8958333333333334
938,0.042385199867855966,0.8958333333333334
939,0.042814667988107034,0.8958333333333334
940,0.042814667988107034,0.8965277777777778
941,0.04306243805748266,0.8965277777777778
942,0.04309547406673274,0.8965277777777778
943,0.043161546085232906,0.8965277777777778
944,0.043161546085232906,0.8972222222222223
945,0.04317806408985794,0.8972222222222223
946,0.04321110009910803,0.8972222222222223
947,0.04350842418235877,0.8972222222222223
948,0.04350842418235877,0.8979166666666667
949,0.043822266270234556,0.8979166666666667
950,0.043855302279484636,0.8979166666666667
951,0.04403700033036009,0.8979166666666667
952,0.04403700033036009,0.8986111111111111
953,0.0459200528576148,0.8986111111111111
954,0.0459200528576148,0.8993055555555556
955,0.04649818301949125,0.8993055555555556
956,0.04649818301949125,0.9
957,0.04709283118599273,0.9
958,0.04709283118599273,0.9006944444444445
959,0.04739015526924348,0.9006944444444445
960,0.04742319127849356,0.9006944444444445
961,0.04750578130161876,0.9006944444444445
962,0.04753881731086885,0.9006944444444445
963,0.047786587380244466,0.9006944444444445
964,0.047819623389494546,0.9006944444444445
965,0.048265609514370665,0.9006944444444445
966,0.048265609514370665,0.9013888888888889
967,0.04928972580112322,0.9013888888888889
968,0.04928972580112322,0.9020833333333333
969,0.049306243805748266,0.9020833333333333
970,0.049306243805748266,0.9027777777777778
971,0.04975222993062438,0.9027777777777778
972,0.04975222993062438,0.9034722222222222
973,0.04983481995374959,0.9034722222222222
974,0.04983481995374959,0.9041666666666667
975,0.05062768417575157,0.9041666666666667
976,0.05066072018500165,0.9041666666666667
977,0.05201519656425504,0.9041666666666667
978,0.05201519656425504,0.9048611111111111
979,0.052775024777006935,0.9048611111111111
980,0.052775024777006935,0.90625
981,0.053254046911133134,0.90625
982,0.05328708292038322,0.90625
983,0.05365047902213413,0.90625
984,0.05365047902213413,0.9069444444444444
985,0.0538817310868847,0.9069444444444444
986,0.05394780310538487,0.9069444444444444
987,0.05493888338288735,0.9069444444444444
988,0.05493888338288735,0.9076388888888889
989,0.05528576148001321,0.9076388888888889
990,0.0553187974892633,0.9076388888888889
991,0.05558308556326396,0.9076388888888889
992,0.05558308556326396,0.9083333333333333
993,0.056408985794516024,0.9083333333333333
994,0.056442021803766104,0.9083333333333333
995,0.0571192599933928,0.9083333333333333
996,0.0571192599933928,0.9090277777777778
997,0.05746613809051866,0.9090277777777778
998,0.05749917409976875,0.9090277777777778
999,0.05761480013214404,0.9090277777777778
1000,0.057631318136769076,0.9097222222222222
1001,0.05771390815989429,0.9097222222222222
1002,0.05774694416914437,0.9097222222222222
1003,0.057961678229269904,0.9097222222222222
1004,0.057961678229269904,0.9104166666666667
1005,0.05801123224314503,0.9104166666666667
1006,0.05801123224314503,0.9111111111111111
1007,0.05830855632639577,0.9111111111111111
1008,0.05830855632639577,0.9118055555555555
1009,0.05853980839114635,0.9118055555555555
1010,0.05853980839114635,0.9125
1011,0.05910142054839775,0.9125
1012,0.05910142054839775,0.9138888888888889
1013,0.05918401057152296,0.9138888888888889
1014,0.05918401057152296,0.9145833333333333
1015,0.0597621407333994,0.9145833333333333
1016,0.0597621407333994,0.9152777777777777
1017,0.06012553683515032,0.9152777777777777
1018,0.06012553683515032,0.9159722222222222
1019,0.061331351172778326,0.9159722222222222
1020,0.061331351172778326,0.9166666666666666
1021,0.06157912124215395,0.9166666666666666
1022,0.06159563924677899,0.9173611111111111
1023,0.061925999339279815,0.9173611111111111
1024,0.061959035348529895,0.9173611111111111
1025,0.06323092170465808,0.9173611111111111
1026,0.06323092170465808,0.9180555555555555
1027,0.06326395771390816,0.9180555555555555
1028,0.06329699372315824,0.9180555555555555
1029,0.06387512388503469,0.9180555555555555
1030,0.06390815989428478,0.9180555555555555
1031,0.06415592996366039,0.9180555555555555
1032,0.06415592996366039,0.91875
1033,0.06437066402378593,0.91875
1034,0.06437066402378593,0.9194444444444444
1035,0.06440370003303601,0.9194444444444444
1036,0.06440370003303601,0.9201388888888888
1037,0.06554344235216386,0.9201388888888888
1038,0.06554344235216386,0.9208333333333333
1039,0.0656755863891642,0.9208333333333333
1040,0.0656755863891642,0.9215277777777777
1041,0.06850016518004624,0.9215277777777777
1042,0.06850016518004624,0.9222222222222223
1043,0.06881400726792203,0.9222222222222223
1044,0.06881400726792203,0.9229166666666667
1045,0.06949124545754873,0.9229166666666667
1046,0.06949124545754873,0.9236111111111112
1047,0.0696399074991741,0.9236111111111112
1048,0.0696399074991741,0.9243055555555556
1049,0.06965642550379914,0.9243055555555556
1050,0.06965642550379914,0.925
1051,0.0702015196564255,0.925
1052,0.0702015196564255,0.9256944444444445
1053,0.0702841096795507,0.9256944444444445
1054,0.07031714568880079,0.9256944444444445
1055,0.07104393789230261,0.9256944444444445
1056,0.07104393789230261,0.9263888888888889
1057,0.07175421209117938,0.9263888888888889
1058,0.07178724810042947,0.9263888888888889
1059,0.07272877436405682,0.9263888888888889
1060,0.07276181037330691,0.9263888888888889
1061,0.07289395441030723,0.9263888888888889
1062,0.07292699041955732,0.9263888888888889
1063,0.07325735051205814,0.9263888888888889
1064,0.07325735051205814,0.9270833333333334
1065,0.07713908159894285,0.9270833333333334
1066,0.07718863561281797,0.9270833333333334
1067,0.0776841757515692,0.9270833333333334
1068,0.07771721176081929,0.9270833333333334
1069,0.07786587380244467,0.9270833333333334
1070,0.07786587380244467,0.9277777777777778
1071,0.07831185992732077,0.9277777777777778
1072,0.07831185992732077,0.9284722222222223
1073,0.07875784605219689,0.9284722222222223
1074,0.07875784605219689,0.9291666666666667
1075,0.0792368681863231,0.9291666666666667
1076,0.07926990419557317,0.9291666666666667
1077,0.07930294020482326,0.9291666666666667
1078,0.07930294020482326,0.9298611111111111
1079,0.0793194582094483,0.9298611111111111
1080,0.0793194582094483,0.9305555555555556
1081,0.07983151635282458,0.9305555555555556
1082,0.07983151635282458,0.93125
1083,0.07986455236207467,0.93125
1084,0.07986455236207467,0.9319444444444445
1085,0.08004625041295012,0.9319444444444445
1086,0.08004625041295012,0.9326388888888889
1087,0.08082259663032705,0.9326388888888889
1088,0.08082259663032705,0.9333333333333333
1089,0.08116947472745292,0.9333333333333333
1090,0.08116947472745292,0.9340277777777778
1091,0.08146679881070366,0.9340277777777778
1092,0.08146679881070366,0.9354166666666667
1093,0.08192930294020483,0.9354166666666667
1094,0.0819623389494549,0.9354166666666667
1095,0.08197885695407994,0.9354166666666667
1096,0.08197885695407994,0.9361111111111111
1097,0.08230921704658077,0.9361111111111111
1098,0.08230921704658077,0.9368055555555556
1099,0.08234225305583086,0.9368055555555556
1100,0.08237528906508094,0.9368055555555556
1101,0.08326726131483317,0.9368055555555556
1102,0.08326726131483317,0.9375
1103,0.08354806739345887,0.9375
1104,0.08354806739345887,0.9381944444444444
1105,0.08363065741658407,0.9381944444444444
1106,0.08363065741658407,0.9388888888888889
1107,0.08364717542120911,0.9388888888888889
1108,0.08364717542120911,0.9395833333333333
1109,0.08508424182358772,0.9395833333333333
1110,0.08508424182358772,0.9402777777777778
1111,0.08549719193921375,0.9402777777777778
1112,0.08553022794846382,0.9402777777777778
1113,0.08615791212421539,0.9402777777777778
1114,0.08619094813346548,0.9402777777777778
1115,0.08630657416584077,0.9402777777777778
1116,0.08633961017509086,0.9402777777777778
1117,0.08642220019821606,0.9402777777777778
1118,0.08645523620746613,0.9402777777777778
1119,0.08785926660059465,0.9402777777777778
1120,0.08789230260984474,0.9402777777777778
1121,0.08800792864222003,0.9402777777777778
1122,0.08800792864222003,0.9409722222222222
1123,0.0882391807069706,0.9409722222222222
1124,0.08827221671622068,0.9409722222222222
1125,0.09144367360422861,0.9409722222222222
1126,0.09147670961347869,0.9409722222222222
1127,0.09205483977535514,0.9409722222222222
1128,0.09208787578460521,0.9409722222222222
1129,0.09274859596960687,0.9409722222222222
1130,0.09278163197885696,0.9409722222222222
1131,0.09355797819623389,0.9409722222222222
1132,0.09355797819623389,0.9416666666666667
1133,0.0939213742979848,0.9416666666666667
1134,0.09395441030723489,0.9416666666666667
1135,0.09613478691774034,0.9416666666666667
1136,0.09616782292699042,0.9416666666666667
1137,0.09793524942186983,0.9416666666666667
1138,0.09796828543111992,0.9416666666666667
1139,0.09852989758837133,0.9416666666666667
1140,0.09852989758837133,0.9423611111111111
1141,0.09884373967624711,0.9423611111111111
1142,0.09884373967624711,0.9430555555555555
1143,0.09892632969937232,0.9430555555555555
1144,0.09892632969937232,0.94375
1145,0.10016518004625041,0.94375
1146,0.10016518004625041,0.9444444444444444
1147,0.10100759828212752,0.9444444444444444
1148,0.10100759828212752,0.9451388888888889
1149,0.10102411628675256,0.9451388888888889
1150,0.10102411628675256,0.9458333333333333
1151,0.10133795837462835,0.9458333333333333
1152,0.10133795837462835,0.9465277777777777
1153,0.10391476709613479,0.9465277777777777
1154,0.10391476709613479,0.9472222222222222
1155,0.10409646514701024,0.9472222222222222
1156,0.10409646514701024,0.9479166666666666
1157,0.10417905517013545,0.9479166666666666
1158,0.10421209117938553,0.9479166666666666
1159,0.1056821935910142,0.9479166666666666
1160,0.1056821935910142,0.9486111111111111
1161,0.10581433762801454,0.9486111111111111
1162,0.10581433762801454,0.9493055555555555
1163,0.10617773372976544,0.9493055555555555
1164,0.10617773372976544,0.95
1165,0.10624380574826561,0.95
1166,0.10627684175751569,0.95
1167,0.1078790882061447,0.95
1168,0.1078790882061447,0.9506944444444444
1169,0.10820944829864552,0.9506944444444444
1170,0.10824248430789561,0.9506944444444444
1171,0.10865543442352164,0.9506944444444444
1172,0.10865543442352164,0.9513888888888888
1173,0.1099603567888999,0.9513888888888888
1174,0.10999339279814999,0.9513888888888888
1175,0.11085232903865214,0.9513888888888888
1176,0.11085232903865214,0.9520833333333333
1177,0.11157912124215395,0.9520833333333333
1178,0.11161215725140403,0.9520833333333333
1179,0.11341261975553353,0.9520833333333333
1180,0.11344565576478362,0.9520833333333333
1181,0.11590683845391477,0.9520833333333333
1182,0.11590683845391477,0.9527777777777777
1183,0.116798810703667,0.9527777777777777
1184,0.116798810703667,0.9534722222222223
1185,0.11790551701354476,0.9534722222222223
1186,0.11793855302279485,0.9534722222222223
1187,0.11797158903204492,0.9534722222222223
1188,0.11800462504129501,0.9534722222222223
1189,0.11826891311529568,0.9534722222222223
1190,0.11830194912454575,0.9534722222222223
1191,0.11947472745292369,0.9534722222222223
1192,0.11947472745292369,0.9541666666666667
1193,0.11960687148992402,0.9541666666666667
1194,0.11960687148992402,0.9548611111111112
1195,0.12109349190617773,0.9548611111111112
1196,0.12109349190617773,0.9555555555555556
1197,0.12173769408655434,0.9555555555555556
1198,0.12173769408655434,0.95625
1199,0.12185332011892963,0.95625
1200,0.12185332011892963,0.9569444444444445
1201,0.12193591014205483,0.9569444444444445
1202,0.12196894615130492,0.9569444444444445
1203,0.12253055830855633,0.9569444444444445
1204,0.12253055830855633,0.9576388888888889
1205,0.12330690452593326,0.9576388888888889
1206,0.12333994053518335,0.9576388888888889
1207,0.12383548067393459,0.9576388888888889
1208,0.12383548067393459,0.9583333333333334
1209,0.1244796828543112,0.9583333333333334
1210,0.12451271886356129,0.9583333333333334
1211,0.12614800132144036,0.9583333333333334
1212,0.12614800132144036,0.9590277777777778
1213,0.12702345556656755,0.9590277777777778
1214,0.12705649157581764,0.9590277777777778
1215,0.12708952758506772,0.9590277777777778
1216,0.1271225635943178,0.9590277777777778
1217,0.12776676577469442,0.9590277777777778
1218,0.1277998017839445,0.9590277777777778
1219,0.1282292699041956,0.9590277777777778
1220,0.12826230591344565,0.9590277777777778
1221,0.12900561612157252,0.9590277777777778
1222,0.12900561612157252,0.9597222222222223
1223,0.12907168814007267,0.9597222222222223
1224,0.12910472414932275,0.9597222222222223
1225,0.129203832177073,0.9597222222222223
1226,0.1292368681863231,0.9597222222222223
1227,0.12983151635282458,0.9597222222222223
1228,0.12986455236207467,0.9597222222222223
1229,0.12989758837132476,0.9597222222222223
1230,0.12993062438057482,0.9597222222222223
1231,0.13006276841757516,0.9597222222222223
1232,0.13009580442682525,0.9597222222222223
1233,0.13098777667657746,0.9597222222222223
1234,0.13098777667657746,0.9604166666666667
1235,0.13121902874132804,0.9604166666666667
1236,0.13125206475057813,0.9604166666666667
1237,0.13176412289395442,0.9604166666666667
1238,0.13176412289395442,0.9611111111111111
1239,0.1335645853980839,0.9611111111111111
1240,0.133597621407334,0.9611111111111111
1241,0.13372976544433432,0.9611111111111111
1242,0.13372976544433432,0.9618055555555556
1243,0.1337628014535844,0.9618055555555556
1244,0.1342748595969607,0.9618055555555556
1245,0.13430789560621076,0.9618055555555556
1246,0.1344730756524612,0.9618055555555556
1247,0.13448959365708624,0.9625
1248,0.13521638586058804,0.9625
1249,0.13523290386521308,0.9631944444444445
1250,0.13577799801783944,0.9631944444444445
1251,0.13581103402708952,0.9631944444444445
1252,0.1358771060455897,0.9631944444444445
1253,0.1358771060455897,0.9638888888888889
1254,0.13648827221671622,0.9638888888888889
1255,0.13648827221671622,0.9645833333333333
1256,0.1377931945820945,0.9645833333333333
1257,0.13782623059134458,0.9645833333333333
1258,0.13797489263296994,0.9645833333333333
1259,0.13797489263296994,0.9652777777777778
1260,0.1393954410307235,0.9652777777777778
1261,0.13942847703997358,0.9652777777777778
1262,0.1400396432111001,0.9652777777777778
1263,0.1400726792203502,0.9652777777777778
1264,0.14349190617773372,0.9652777777777778
1265,0.1435249421869838,0.9652777777777778
1266,0.14453254046911132,0.9652777777777778
1267,0.14453254046911132,0.9659722222222222
1268,0.14834819953749587,0.9659722222222222
1269,0.14838123554674595,0.9659722222222222
1270,0.1497191939213743,0.9659722222222222
1271,0.1497191939213743,0.9666666666666667
1272,0.15193260654112983,0.9666666666666667
1273,0.15193260654112983,0.9673611111111111
1274,0.15298975883713248,0.9673611111111111
1275,0.15298975883713248,0.9680555555555556
1276,0.15454245127188634,0.9680555555555556
1277,0.15457548728113643,0.9680555555555556
1278,0.15460852329038652,0.9680555555555556
1279,0.15460852329038652,0.96875
1280,0.15469111331351174,0.96875
1281,0.15469111331351174,0.9694444444444444
1282,0.1551701354476379,0.9694444444444444
1283,0.155203171456888,0.9694444444444444
1284,0.15746613809051865,0.9694444444444444
1285,0.15746613809051865,0.9701388888888889
1286,0.15766435414601915,0.9701388888888889
1287,0.15769739015526923,0.9701388888888889
1288,0.15938222662702345,0.9701388888888889
1289,0.15938222662702345,0.9708333333333333
1290,0.1594813346547737,0.9708333333333333
1291,0.1594813346547737,0.9715277777777778
1292,0.16050545094152627,0.9715277777777778
1293,0.16050545094152627,0.9722222222222222
1294,0.16129831516352824,0.9722222222222222
1295,0.16133135117277833,0.9722222222222222
1296,0.1613974231912785,0.9722222222222222
1297,0.16143045920052856,0.9722222222222222
1298,0.16534522629666337,0.9722222222222222
1299,0.16534522629666337,0.9729166666666667
1300,0.16585728444003964,0.9729166666666667
1301,0.16589032044928972,0.9729166666666667
1302,0.16623719854641558,0.9729166666666667
1303,0.16627023455566567,0.9729166666666667
1304,0.16663363065741657,0.9729166666666667
1305,0.16663363065741657,0.9736111111111111
1306,0.16737694086554344,0.9736111111111111
1307,0.16737694086554344,0.9743055555555555
1308,0.16745953088866866,0.9743055555555555
1309,0.16749256689791872,0.9743055555555555
1310,0.16785596299966965,0.9743055555555555
1311,0.1678889990089197,0.9743055555555555
1312,0.16873141724479682,0.9743055555555555
1313,0.1687644532540469,0.9743055555555555
1314,0.16988767756854972,0.9743055555555555
1315,0.1699207135777998,0.9743055555555555
1316,0.17385199867855963,0.9743055555555555
1317,0.17388503468780972,0.9743055555555555
1318,0.17590023125206475,0.9743055555555555
1319,0.17590023125206475,0.975
1320,0.177601585728444,0.975
1321,0.177601585728444,0.9756944444444444
1322,0.17765113974231914,0.9756944444444444
1323,0.17768417575156922,0.9756944444444444
1324,0.1783283779319458,0.9756944444444444
1325,0.1783283779319458,0.9763888888888889
1326,0.17841096795507103,0.9763888888888889
1327,0.1784440039643211,0.9763888888888889
1328,0.17956722827882393,0.9763888888888889
1329,0.179600264288074,0.9763888888888889
1330,0.18126858275520316,0.9763888888888889
1331,0.18126858275520316,0.9770833333333333
1332,0.1825569871159564,0.9770833333333333
1333,0.1825569871159564,0.9777777777777777
1334,0.18265609514370665,0.9777777777777777
1335,0.18268913115295674,0.9777777777777777
1336,0.18401057152296002,0.9777777777777777
1337,0.1840436075322101,0.9777777777777777
1338,0.18429137760158573,0.9777777777777777
1339,0.18432441361083582,0.9777777777777777
1340,0.18586058804096464,0.9777777777777777
1341,0.18589362405021473,0.9777777777777777
1342,0.1866864882722167,0.9777777777777777
1343,0.1867195242814668,0.9777777777777777
1344,0.18799141063759497,0.9777777777777777
1345,0.18802444664684506,0.9777777777777777
1346,0.1955236207466138,0.9777777777777777
1347,0.1955566567558639,0.9777777777777777
1348,0.19877766765774693,0.9777777777777777
1349,0.19881070366699702,0.9777777777777777
1350,0.2003633961017509,0.9777777777777777
1351,0.200396432111001,0.9777777777777777
1352,0.20049554013875123,0.9777777777777777
1353,0.20049554013875123,0.9784722222222222
1354,0.20289065080938223,0.9784722222222222
1355,0.20292368681863232,0.9784722222222222
1356,0.20333663693425835,0.9784722222222222
1357,0.20333663693425835,0.9791666666666666
1358,0.2036835150313842,0.9791666666666666
1359,0.2036835150313842,0.9798611111111111
1360,0.20419557317476048,0.9798611111111111
1361,0.20426164519326065,0.9798611111111111
1362,0.20487281136438718,0.9798611111111111
1363,0.20490584737363726,0.9798611111111111
1364,0.2056326395771391,0.9798611111111111
1365,0.20566567558638915,0.9798611111111111
1366,0.20741658407664354,0.9798611111111111
1367,0.20744962008589363,0.9798611111111111
1368,0.20774694416914435,0.9798611111111111
1369,0.20774694416914435,0.9805555555555555
1370,0.2089197224975223,0.9805555555555555
1371,0.2089197224975223,0.98125
1372,0.21110009910802774,0.98125
1373,0.21110009910802774,0.9819444444444444
1374,0.21333002973240833,0.9819444444444444
1375,0.21336306574165842,0.9819444444444444
1376,0.21521308225966304,0.9819444444444444
1377,0.21524611826891313,0.9819444444444444
1378,0.2162041625371655,0.9819444444444444
1379,0.2162041625371655,0.9826388888888888
1380,0.21665014866204163,0.9826388888888888
1381,0.21668318467129172,0.9826388888888888
1382,0.21959035348529898,0.9826388888888888
1383,0.21962338949454907,0.9826388888888888
1384,0.22106045589692766,0.9826388888888888
1385,0.22109349190617775,0.9826388888888888
1386,0.22167162206805419,0.9826388888888888
1387,0.22170465807730427,0.9826388888888888
1388,0.2219193921374298,0.9826388888888888
1389,0.2219193921374298,0.9833333333333333
1390,0.22286091840105715,0.9833333333333333
1391,0.22289395441030724,0.9833333333333333
1392,0.22555335315493888,0.9833333333333333
1393,0.22555335315493888,0.9840277777777777
1394,0.22588371324743972,0.9840277777777777
1395,0.22591674925668978,0.9840277777777777
1396,0.22609844730756526,0.9840277777777777
1397,0.22613148331681532,0.9840277777777777
1398,0.2263296993723158,0.9840277777777777
1399,0.2263627353815659,0.9840277777777777
1400,0.2284770399735712,0.9840277777777777
1401,0.22851007598282128,0.9840277777777777
1402,0.22852659398744632,0.9840277777777777
1403,0.2285596299966964,0.9840277777777777
1404,0.228790882061447,0.9840277777777777
1405,0.22882391807069705,0.9840277777777777
1406,0.22903865213082258,0.9840277777777777
1407,0.22907168814007267,0.9840277777777777
1408,0.23549719193921373,0.9840277777777777
1409,0.23553022794846382,0.9840277777777777
1410,0.23820614469772053,0.9840277777777777
1411,0.2382391807069706,0.9840277777777777
1412,0.2385199867855963,0.9840277777777777
1413,0.2385199867855963,0.9847222222222223
1414,0.23967624710934918,0.9847222222222223
1415,0.23970928311859926,0.9847222222222223
1416,0.23977535513709944,0.9847222222222223
1417,0.23977535513709944,0.9854166666666667
1418,0.23985794516022466,0.9854166666666667
1419,0.23989098116947472,0.9854166666666667
1420,0.24068384539147672,0.9854166666666667
1421,0.24071688140072678,0.9854166666666667
1422,0.24089857945160226,0.9854166666666667
1423,0.24089857945160226,0.9861111111111112
1424,0.24112983151635284,0.9861111111111112
1425,0.2411628675256029,0.9861111111111112
1426,0.24213742979848035,0.9861111111111112
1427,0.24217046580773044,0.9861111111111112
1428,0.24246778989098117,0.9861111111111112
1429,0.24250082590023125,0.9861111111111112
1430,0.2433927981499835,0.9861111111111112
1431,0.24342583415923358,0.9861111111111112
1432,0.24390485629335976,0.9861111111111112
1433,0.24393789230260984,0.9861111111111112
1434,0.24537495870498843,0.9861111111111112
1435,0.24540799471423852,0.9861111111111112
1436,0.24910802775024776,0.9861111111111112
1437,0.24914106375949785,0.9861111111111112
1438,0.24919061777337298,0.9861111111111112
1439,0.24922365378262307,0.9861111111111112
1440,0.2493557978196234,0.9861111111111112
1441,0.24938883382887347,0.9861111111111112
1442,0.2502973240832507,0.9861111111111112
1443,0.2503303600925008,0.9861111111111112
1444,0.25037991410637594,0.9861111111111112
1445,0.25041295011562603,0.9861111111111112
1446,0.25145358440700366,0.9861111111111112
1447,0.2514866204162537,0.9861111111111112
1448,0.25249421869838123,0.9861111111111112
1449,0.2525272547076313,0.9861111111111112
1450,0.25290716881400727,0.9861111111111112
1451,0.25294020482325735,0.9861111111111112
1452,0.2537661050545094,0.9861111111111112
1453,0.2537991410637595,0.9861111111111112
1454,0.2545920052857615,0.9861111111111112
1455,0.25462504129501157,0.9861111111111112
1456,0.2564255037991411,0.9861111111111112
1457,0.2564585398083912,0.9861111111111112
1458,0.25738354806739344,0.9861111111111112
1459,0.25741658407664353,0.9861111111111112
1460,0.25878757846052197,0.9861111111111112
1461,0.25878757846052197,0.9868055555555556
1462,0.25898579451602244,0.9868055555555556
1463,0.2590188305252725,0.9868055555555556
1464,0.2611661711265279,0.9868055555555556
1465,0.261199207135778,0.9868055555555556
1466,0.26253716551040635,0.9868055555555556
1467,0.26257020151965643,0.9868055555555556
1468,0.2627023455566568,0.9868055555555556
1469,0.2627353815659068,0.9868055555555556
1470,0.263197885695408,0.9868055555555556
1471,0.26323092170465806,0.9868055555555556
1472,0.2644532540469111,0.9868055555555556
1473,0.2644862900561612,0.9868055555555556
1474,0.2685992732077965,0.9868055555555556
1475,0.26863230921704656,0.9868055555555556
1476,0.26869838123554673,0.9868055555555556
1477,0.2687314172447968,0.9868055555555556
1478,0.2712751899570532,0.9868055555555556
1479,0.2712751899570532,0.9875
1480,0.2718698381235547,0.9875
1481,0.2719028741328048,0.9875
1482,0.2735216385860588,0.9875
1483,0.2735546745953089,0.9875
1484,0.2737528906508094,0.9875
1485,0.2737528906508094,0.9881944444444445
1486,0.2741658407664354,0.9881944444444445
1487,0.2741988767756855,0.9881944444444445
1488,0.27466138090518666,0.9881944444444445
1489,0.27469441691443675,0.9881944444444445
1490,0.27857614800132147,0.9881944444444445
1491,0.2786091840105715,0.9881944444444445
1492,0.279203832177073,0.9881944444444445
1493,0.279203832177073,0.9888888888888889
1494,0.28108688470432774,0.9888888888888889
1495,0.2811199207135778,0.9888888888888889
1496,0.281598942847704,0.9888888888888889
1497,0.281598942847704,0.9895833333333334
1498,0.28201189296333,0.9895833333333334
1499,0.2820449289725801,0.9895833333333334
1500,0.2827552031714569,0.9895833333333334
1501,0.28278823918070695,0.9895833333333334
1502,0.28305252725470764,0.9895833333333334
1503,0.28308556326395773,0.9895833333333334
1504,0.2834654773703337,0.9895833333333334
1505,0.28349851337958376,0.9895833333333334
1506,0.28402708952758504,0.9895833333333334
1507,0.28406012553683513,0.9895833333333334
1508,0.2841261975553353,0.9895833333333334
1509,0.2841592335645854,0.9895833333333334
1510,0.2876445325404691,0.9895833333333334
1511,0.2876775685497192,0.9895833333333334
1512,0.28802444664684507,0.9895833333333334
1513,0.28805748265609515,0.9895833333333334
1514,0.28814007267922037,0.9895833333333334
1515,0.28817310868847046,0.9895833333333334
1516,0.28842087875784606,0.9895833333333334
1517,0.28845391476709614,0.9895833333333334
1518,0.2898249091509746,0.9895833333333334
1519,0.2898579451602247,0.9895833333333334
1520,0.29258341592335646,0.9895833333333334
1521,0.29261645193260655,0.9895833333333334
1522,0.2942847703997357,0.9895833333333334
1523,0.2943178064089858,0.9895833333333334
1524,0.29454905847373636,0.9895833333333334
1525,0.29458209448298645,0.9895833333333334
1526,0.2946316484968616,0.9895833333333334
1527,0.29466468450611166,0.9895833333333334
1528,0.2948298645523621,0.9895833333333334
1529,0.2948629005616122,0.9895833333333334
1530,0.29554013875123886,0.9895833333333334
1531,0.29557317476048894,0.9895833333333334
1532,0.29629996696399075,0.9895833333333334
1533,0.29633300297324083,0.9895833333333334
1534,0.2964651470102412,0.9895833333333334
1535,0.29649818301949127,0.9895833333333334
1536,0.2983151635282458,0.9895833333333334
1537,0.29834819953749586,0.9895833333333334
1538,0.3003633961017509,0.9895833333333334
1539,0.300396432111001,0.9895833333333334
1540,0.3006607201850017,0.9895833333333334
1541,0.30069375619425176,0.9895833333333334
1542,0.30198216055500493,0.9895833333333334
1543,0.302015196564255,0.9895833333333334
1544,0.30297324083250743,0.9895833333333334
1545,0.3030062768417575,0.9895833333333334
1546,0.3030723488602577,0.9895833333333334
1547,0.3031053848695078,0.9895833333333334
1548,0.3061116617112653,0.9895833333333334
1549,0.30614469772051534,0.9895833333333334
1550,0.30662371985464154,0.9895833333333334
1551,0.30665675586389163,0.9895833333333334
1552,0.30693756194251737,0.9895833333333334
1553,0.3069705979517674,0.9895833333333334
1554,0.30797819623389494,0.9895833333333334
1555,0.30801123224314503,0.9895833333333334
1556,0.31057152296002644,0.9895833333333334
1557,0.3105880409646515,0.9902777777777778
1558,0.31152956722827885,0.9902777777777778
1559,0.3115626032375289,0.9902777777777778
1560,0.3121902874132805,0.9902777777777778
1561,0.31222332342253056,0.9902777777777778
1562,0.31549388833828873,0.9902777777777778
1563,0.3155269243475388,0.9902777777777778
1564,0.31615460852329036,0.9902777777777778
1565,0.31618764453254045,0.9902777777777778
1566,0.31638586058804097,0.9902777777777778
1567,0.31641889659729105,0.9902777777777778
1568,0.31703006276841755,0.9902777777777778
1569,0.31706309877766764,0.9902777777777778
1570,0.31762471093491906,0.9902777777777778
1571,0.31765774694416915,0.9902777777777778
1572,0.3189957053187975,0.9902777777777778
1573,0.3190287413280476,0.9902777777777778
1574,0.32053187974892633,0.9902777777777778
1575,0.3205649157581764,0.9902777777777778
1576,0.32079616782292697,0.9902777777777778
1577,0.32082920383217706,0.9902777777777778
1578,0.32641228939544104,0.9902777777777778
1579,0.3264453254046911,0.9902777777777778
1580,0.32652791542781634,0.9902777777777778
1581,0.3265609514370664,0.9902777777777778
1582,0.3270895275850677,0.9902777777777778
1583,0.3271225635943178,0.9902777777777778
1584,0.32834489593657085,0.9902777777777778
1585,0.32834489593657085,0.9909722222222223
1586,0.3285265939874463,0.9909722222222223
1587,0.3285596299966964,0.9909722222222223
1588,0.3287743640568219,0.9909722222222223
1589,0.328807400066072,0.9909722222222223
1590,0.32882391807069705,0.9909722222222223
1591,0.32885695407994714,0.9909722222222223
1592,0.32936901222332343,0.9909722222222223
1593,0.3294020482325735,0.9909722222222223
1594,0.32945160224644865,0.9909722222222223
1595,0.32945160224644865,0.9916666666666667
1596,0.32955071027419885,0.9916666666666667
1597,0.32958374628344894,0.9916666666666667
1598,0.3301288404360753,0.9916666666666667
1599,0.3301618764453254,0.9916666666666667
1600,0.3320779649818302,0.9916666666666667
1601,0.33211100099108026,0.9916666666666667
1602,0.3322761810373307,0.9916666666666667
1603,0.3323092170465808,0.9916666666666667
1604,0.33422530558308555,0.9916666666666667
1605,0.33425834159233564,0.9916666666666667
1606,0.33619094813346545,0.9916666666666667
1607,0.33619094813346545,0.9923611111111111
1608,0.33673604228609183,0.9923611111111111
1609,0.33673604228609183,0.9930555555555556
1610,0.33901552692434755,0.9930555555555556
1611,0.33904856293359764,0.9930555555555556
1612,0.3419557317476049,0.9930555555555556
1613,0.341988767756855,0.9930555555555556
1614,0.34213742979848033,0.9930555555555556
1615,0.3421704658077304,0.9930555555555556
1616,0.34620085893624053,0.9930555555555556
1617,0.34623389494549056,0.9930555555555556
1618,0.34750578130161874,0.9930555555555556
1619,0.34753881731086883,0.9930555555555556
1620,0.34871159563924675,0.9930555555555556
1621,0.34874463164849684,0.9930555555555556
1622,0.34879418566237197,0.9930555555555556
1623,0.34882722167162206,0.9930555555555556
1624,0.3531549388833829,0.9930555555555556
1625,0.353187974892633,0.9930555555555556
1626,0.3538486950776346,0.9930555555555556
1627,0.3538817310868847,0.9930555555555556
1628,0.35455896927651137,0.9930555555555556
1629,0.35459200528576146,0.9930555555555556
1630,0.3557482656095144,0.9930555555555556
1631,0.3557813016187645,0.9930555555555556
1632,0.3570862239841427,0.9930555555555556
1633,0.3571192599933928,0.9930555555555556
1634,0.3574331020812686,0.9930555555555556
1635,0.3574661380905187,0.9930555555555556
1636,0.35797819623389493,0.9930555555555556
1637,0.358011232243145,0.9930555555555556
1638,0.3582424843078956,0.9930555555555556
1639,0.3582755203171457,0.9930555555555556
1640,0.3594648166501487,0.9930555555555556
1641,0.35949785265939876,0.9930555555555556
1642,0.3597621407333994,0.9930555555555556
1643,0.3597951767426495,0.9930555555555556
1644,0.3601255368351503,0.9930555555555556
1645,0.3601585728444004,0.9930555555555556
1646,0.36157912124215397,0.9930555555555556
1647,0.36161215725140405,0.9930555555555556
1648,0.3632309217046581,0.9930555555555556
1649,0.3632639577139082,0.9930555555555556
1650,0.36329699372315827,0.9930555555555556
1651,0.3633300297324083,0.9930555555555556
1652,0.3633961017509085,0.9930555555555556
1653,0.36342913776015856,0.9930555555555556
1654,0.3646514701024116,0.9930555555555556
1655,0.3646845061116617,0.9930555555555556
1656,0.36506442021803764,0.9930555555555556
1657,0.36509745622728773,0.9930555555555556
1658,0.36580773042616455,0.9930555555555556
1659,0.3658407664354146,0.9930555555555556
1660,0.36608853650479023,0.9930555555555556
1661,0.3661215725140403,0.9930555555555556
1662,0.3666997026759167,0.9930555555555556
1663,0.3667327386851668,0.9930555555555556
1664,0.36674925668979186,0.9930555555555556
1665,0.36678229269904195,0.9930555555555556
1666,0.36942517343904857,0.9930555555555556
1667,0.36945820944829866,0.9930555555555556
1668,0.3696399074991741,0.9930555555555556
1669,0.36967294350842417,0.9930555555555556
1670,0.3722001982160555,0.9930555555555556
1671,0.3722332342253056,0.9930555555555556
1672,0.37266270234555665,0.9930555555555556
1673,0.37269573835480674,0.9930555555555556
1674,0.3730921704658077,0.9930555555555556
1675,0.3730921704658077,0.99375
1676,0.3744301288404361,0.99375
1677,0.37446316484968617,0.99375
1678,0.3753055830855633,0.99375
1679,0.37533861909481336,0.99375
1680,0.37737033366369344,0.99375
1681,0.3774033696729435,0.99375
1682,0.37751899570531877,0.99375
1683,0.37755203171456886,0.99375
1684,0.378410967955071,0.99375
1685,0.3784440039643211,0.99375
1686,0.37902213412619756,0.99375
1687,0.37905517013544765,0.99375
1688,0.3797984803435745,0.99375
1689,0.3798315163528246,0.99375
1690,0.3798480343574496,0.99375
1691,0.3798480343574496,0.9944444444444445
1692,0.3807565246118269,0.9944444444444445
1693,0.380789560621077,0.9944444444444445
1694,0.3835645853980839,0.9944444444444445
1695,0.383597621407334,0.9944444444444445
1696,0.38926329699372314,0.9944444444444445
1697,0.3892963330029732,0.9944444444444445
1698,0.38949454905847375,0.9944444444444445
1699,0.38952758506772384,0.9944444444444445
1700,0.39046911133135115,0.9944444444444445
1701,0.3905351833498513,0.9944444444444445
1702,0.392401717872481,0.9944444444444445
1703,0.3924347538817311,0.9944444444444445
1704,0.39714238519986783,0.9944444444444445
1705,0.3971754212091179,0.9944444444444445
1706,0.39781962338949456,0.9944444444444445
1707,0.39785265939874465,0.9944444444444445
1708,0.40199867855963,0.9944444444444445
1709,0.4020647505781302,0.9944444444444445
1710,0.40421209117938556,0.9944444444444445
1711,0.4042451271886356,0.9944444444444445
1712,0.4055665675586389,0.9944444444444445
1713,0.405599603567889,0.9944444444444445
1714,0.40594648166501485,0.9944444444444445
1715,0.40597951767426493,0.9944444444444445
1716,0.40713577799801787,0.9944444444444445
1717,0.4071688140072679,0.9944444444444445
1718,0.4082094482986455,0.9944444444444445
1719,0.4082424843078956,0.9944444444444445
1720,0.40868847043277173,0.9944444444444445
1721,0.4087215064420218,0.9944444444444445
1722,0.41121572514040305,0.9944444444444445
1723,0.41124876114965314,0.9944444444444445
1724,0.4113974231912785,0.9944444444444445
1725,0.41143045920052856,0.9944444444444445
1726,0.4128344895936571,0.9944444444444445
1727,0.4128675256029072,0.9944444444444445
1728,0.41394119590353484,0.9944444444444445
1729,0.41397423191278493,0.9944444444444445
1730,0.41475057813016186,0.9944444444444445
1731,0.41478361413941195,0.9944444444444445
1732,0.4152791542781632,0.9944444444444445
1733,0.4153121902874133,0.9944444444444445
1734,0.4157581764122894,0.9944444444444445
1735,0.4157912124215395,0.9944444444444445
1736,0.41701354476379254,0.9944444444444445
1737,0.41701354476379254,0.9951388888888889
1738,0.418417575156921,0.9951388888888889
1739,0.4184506111661711,0.9951388888888889
1740,0.41881400726792206,0.9951388888888889
1741,0.4188470432771721,0.9951388888888889
1742,0.4188800792864222,0.9951388888888889
1743,0.4188800792864222,0.9958333333333333
1744,0.4188965972910472,0.9958333333333333
1745,0.4189296333002973,0.9958333333333333
1746,0.4192599933927981,0.9958333333333333
1747,0.4192930294020482,0.9958333333333333
1748,0.4195077634621738,0.9958333333333333
1749,0.41954079947142386,0.9958333333333333
1750,0.4198381235546746,0.9958333333333333
1751,0.4198711595639247,0.9958333333333333
1752,0.42066402378592666,0.9958333333333333
1753,0.42069705979517674,0.9958333333333333
1754,0.4207631318136769,0.9958333333333333
1755,0.420796167822927,0.9958333333333333
1756,0.42718863561281795,0.9958333333333333
1757,0.42718863561281795,0.9965277777777778
1758,0.4290056161215725,0.9965277777777778
1759,0.4290386521308226,0.9965277777777778
1760,0.4306408985794516,0.9965277777777778
1761,0.4306739345887017,0.9965277777777778
1762,0.430789560621077,0.9965277777777778
1763,0.43082259663032707,0.9965277777777778
1764,0.4308721506442022,0.9965277777777778
1765,0.4309051866534523,0.9965277777777778
1766,0.43557978196233893,0.9965277777777778
1767,0.435612817971589,0.9965277777777778
1768,0.43800792864222005,0.9965277777777778
1769,0.4380409646514701,0.9965277777777778
1770,0.4387512388503469,0.9965277777777778
1771,0.438784274859597,0.9965277777777778
1772,0.44081598942847705,0.9965277777777778
1773,0.44084902543772714,0.9965277777777778
1774,0.4409150974562273,0.9965277777777778
1775,0.44094813346547734,0.9965277777777778
1776,0.44250082590023126,0.9965277777777778
1777,0.44253386190948135,0.9965277777777778
1778,0.4429137760158573,0.9965277777777778
1779,0.4429468120251074,0.9965277777777778
1780,0.44340931615460855,0.9965277777777778
1781,0.44344235216385863,0.9965277777777778
1782,0.44525933267261314,0.9965277777777778
1783,0.4452923686818632,0.9965277777777778
1784,0.44565576478361413,0.9965277777777778
1785,0.4456888007928642,0.9965277777777778
1786,0.446415592996366,0.9965277777777778
1787,0.4464486290056161,0.9965277777777778
1788,0.4474066732738685,0.9965277777777778
1789,0.4474397092831186,0.9965277777777778
1790,0.44930624380574824,0.9965277777777778
1791,0.4493392798149983,0.9965277777777778
1792,0.4500660720185002,0.9965277777777778
1793,0.45009910802775027,0.9965277777777778
1794,0.45014866204162535,0.9965277777777778
1795,0.45018169805087543,0.9965277777777778
1796,0.4507267922035018,0.9965277777777778
1797,0.4507598282127519,0.9965277777777778
1798,0.45282457879088206,0.9965277777777778
1799,0.45285761480013215,0.9965277777777778
1800,0.45297324083250745,0.9965277777777778
1801,0.45300627684175754,0.9965277777777778
1802,0.45698711595639246,0.9965277777777778
1803,0.45702015196564255,0.9965277777777778
1804,0.4597786587380244,0.9965277777777778
1805,0.4598116947472745,0.9965277777777778
1806,0.46380905186653454,0.9965277777777778
1807,0.4638420878757846,0.9965277777777778
1808,0.46417244796828544,0.9965277777777778
1809,0.46417244796828544,0.9972222222222222
1810,0.4646019160885365,0.9972222222222222
1811,0.4646349520977866,0.9972222222222222
1812,0.46509745622728776,0.9972222222222222
1813,0.46513049223653785,0.9972222222222222
1814,0.4684340931615461,0.9972222222222222
1815,0.4684671291707962,0.9972222222222222
1816,0.4700693756194252,0.9972222222222222
1817,0.4701024116286753,0.9972222222222222
1818,0.4729930624380575,0.9972222222222222
1819,0.4730260984473076,0.9972222222222222
1820,0.4742319127849356,0.9972222222222222
1821,0.4742649487941857,0.9972222222222222
1822,0.47606541129831514,0.9972222222222222
1823,0.47609844730756523,0.9972222222222222
1824,0.4774033696729435,0.9972222222222222
1825,0.4774364056821936,0.9972222222222222
1826,0.47874132804757186,0.9972222222222222
1827,0.47877436405682194,0.9972222222222222
1828,0.48009580442682526,0.9972222222222222
1829,0.48012884043607534,0.9972222222222222
1830,0.48230921704658075,0.9972222222222222
1831,0.48234225305583084,0.9972222222222222
1832,0.48333333333333334,0.9972222222222222
1833,0.4833663693425834,0.9972222222222222
1834,0.4838784274859597,0.9972222222222222
1835,0.4839114634952098,0.9972222222222222
1836,0.4841592335645854,0.9972222222222222
1837,0.4841922695738355,0.9972222222222222
1838,0.4870498843739676,0.9972222222222222
1839,0.4870829203832177,0.9972222222222222
1840,0.488404360753221,0.9972222222222222
1841,0.4884373967624711,0.9972222222222222
1842,0.48889990089197227,0.9972222222222222
1843,0.48893293690122236,0.9972222222222222
1844,0.49373967624710935,0.9972222222222222
1845,0.49377271225635944,0.9972222222222222
1846,0.49428477039973573,0.9972222222222222
1847,0.4943178064089858,0.9972222222222222
1848,0.4962504129501156,0.9972222222222222
1849,0.4962834489593657,0.9972222222222222
1850,0.4964816650148662,0.9972222222222222
1851,0.49651470102411627,0.9972222222222222
1852,0.49672943508424183,0.9972222222222222
1853,0.4967624710934919,0.9972222222222222
1854,0.4979187314172448,0.9972222222222222
1855,0.4979517674264949,0.9972222222222222
1856,0.5017839444995045,0.9972222222222222
1857,0.5018169805087546,0.9972222222222222
1858,0.5024777006937562,0.9972222222222222
1859,0.5025107367030063,0.9972222222222222
1860,0.5026428807400066,0.9972222222222222
1861,0.5026759167492567,0.9972222222222222
1862,0.5040303931285101,0.9972222222222222
1863,0.5040634291377601,0.9972222222222222
1864,0.5050710274198876,0.9972222222222222
1865,0.5051040634291377,0.9972222222222222
1866,0.5114965312190287,0.9972222222222222
1867,0.5114965312190287,0.9979166666666667
1868,0.5129996696399075,0.9979166666666667
1869,0.5130327056491576,0.9979166666666667
1870,0.5140568219359102,0.9979166666666667
1871,0.5140898579451603,0.9979166666666667
1872,0.5169309547406673,0.9979166666666667
1873,0.5169639907499174,0.9979166666666667
1874,0.5188965972910472,0.9979166666666667
1875,0.5189296333002973,0.9979166666666667
1876,0.5193260654112983,0.9979166666666667
1877,0.5193591014205484,0.9979166666666667
1878,0.5194912454575488,0.9979166666666667
1879,0.5195242814667989,0.9979166666666667
1880,0.5205649157581764,0.9979166666666667
1881,0.5205979517674265,0.9979166666666667
1882,0.5210109018830525,0.9979166666666667
1883,0.5210439378923026,0.9979166666666667
1884,0.5228939544103073,0.9979166666666667
1885,0.5229269904195574,0.9979166666666667
1886,0.5229600264288073,0.9979166666666667
1887,0.5229930624380574,0.9979166666666667
1888,0.5240667327386852,0.9979166666666667
1889,0.5240997687479353,0.9979166666666667
1890,0.5244796828543112,0.9979166666666667
1891,0.5245127188635613,0.9979166666666667
1892,0.5256689791873141,0.9979166666666667
1893,0.5257020151965642,0.9979166666666667
1894,0.5265939874463165,0.9979166666666667
1895,0.5266270234555666,0.9979166666666667
1896,0.5317971589032044,0.9979166666666667
1897,0.5318301949124545,0.9979166666666667
1898,0.5333168153287083,0.9979166666666667
1899,0.5333498513379584,0.9979166666666667
1900,0.5333828873472085,0.9979166666666667
1901,0.5334159233564585,0.9979166666666667
1902,0.5338949454905847,0.9979166666666667
1903,0.5339279814998348,0.9979166666666667
1904,0.5365047902213412,0.9979166666666667
1905,0.5365378262305913,0.9979166666666667
1906,0.5388999008919723,0.9979166666666667
1907,0.5389329369012223,0.9979166666666667
1908,0.5411463495209778,0.9979166666666667
1909,0.5411793855302279,0.9979166666666667
1910,0.5416418896597291,0.9979166666666667
1911,0.5416749256689792,0.9979166666666667
1912,0.5436405682193591,0.9979166666666667
1913,0.5436736042286092,0.9979166666666667
1914,0.5439378923026098,0.9979166666666667
1915,0.5439709283118599,0.9979166666666667
1916,0.5447307565246118,0.9979166666666667
1917,0.5447637925338619,0.9979166666666667
1918,0.5465477370333663,0.9979166666666667
1919,0.5465807730426164,0.9979166666666667
1920,0.5471258671952428,0.9979166666666667
1921,0.5471589032044929,0.9979166666666667
1922,0.5473571192599934,0.9979166666666667
1923,0.5473901552692435,0.9979166666666667
1924,0.5486455236207466,0.9979166666666667
1925,0.5486785596299967,0.9979166666666667
1926,0.55,0.9979166666666667
1927,0.5500330360092501,0.9979166666666667
1928,0.5507433102081268,0.9979166666666667
1929,0.5507763462173769,0.9979166666666667
1930,0.553221010901883,0.9979166666666667
1931,0.5532540469111331,0.9979166666666667
1932,0.5554013875123885,0.9979166666666667
1933,0.5554344235216386,0.9979166666666667
1934,0.556788899900892,0.9979166666666667
1935,0.5568219359101421,0.9979166666666667
1936,0.5580442682523951,0.9979166666666667
1937,0.5580773042616451,0.9979166666666667
1938,0.5615130492236537,0.9979166666666667
1939,0.5615460852329038,0.9979166666666667
1940,0.561612157251404,0.9979166666666667
1941,0.5616451932606541,0.9979166666666667
1942,0.561975553353155,0.9979166666666667
1943,0.562008589362405,0.9979166666666667
1944,0.5630327056491575,0.9979166666666667
1945,0.5630657416584076,0.9979166666666667
1946,0.5643376280145358,0.9979166666666667
1947,0.5643706640237859,0.9979166666666667
1948,0.5650809382226627,0.9979166666666667
1949,0.5651139742319128,0.9979166666666667
1950,0.5665180046250413,0.9979166666666667
1951,0.5665510406342914,0.9979166666666667
1952,0.5670796167822927,0.9979166666666667
1953,0.5671126527915428,0.9979166666666667
1954,0.5675586389164189,0.9979166666666667
1955,0.5676081929302941,0.9979166666666667
1956,0.5678064089857945,0.9979166666666667
1957,0.5678394449950446,0.9979166666666667
1958,0.568004625041295,0.9979166666666667
1959,0.5680376610505451,0.9979166666666667
1960,0.57198546415593,0.9979166666666667
1961,0.5720185001651801,0.9979166666666667
1962,0.5722497522299306,0.9979166666666667
1963,0.5722827882391807,0.9979166666666667
1964,0.573191278493558,0.9979166666666667
1965,0.5732243145028081,0.9979166666666667
1966,0.574810042946812,0.9979166666666667
1967,0.5748430789560621,0.9979166666666667
1968,0.576808721506442,0.9979166666666667
1969,0.5768417575156921,0.9979166666666667
1970,0.5785926660059465,0.9979166666666667
1971,0.5786257020151966,0.9979166666666667
1972,0.579220350181698,0.9979166666666667
1973,0.5792533861909481,0.9979166666666667
1974,0.5798480343574496,0.9979166666666667
1975,0.5798480343574496,0.9986111111111111
1976,0.5801618764453254,0.9986111111111111
1977,0.5801949124545754,0.9986111111111111
1978,0.5815328708292038,0.9986111111111111
1979,0.5815659068384539,0.9986111111111111
1980,0.5831020812685828,0.9986111111111111
1981,0.5831351172778328,0.9986111111111111
1982,0.5841096795507102,0.9986111111111111
1983,0.5841427155599603,0.9986111111111111
1984,0.5843739676247109,0.9986111111111111
1985,0.584407003633961,0.9986111111111111
1986,0.5846052196894616,0.9986111111111111
1987,0.5846382556987116,0.9986111111111111
1988,0.5851337958374628,0.9986111111111111
1989,0.5851668318467129,0.9986111111111111
1990,0.5858440700363396,0.9986111111111111
1991,0.5858771060455897,0.9986111111111111
1992,0.5861083581103402,0.9986111111111111
1993,0.5861413941195903,0.9986111111111111
1994,0.5878097125867195,0.9986111111111111
1995,0.5878427485959696,0.9986111111111111
1996,0.5886025768087215,0.9986111111111111
1997,0.5886356128179716,0.9986111111111111
1998,0.5904525933267262,0.9986111111111111
1999,0.5904856293359763,0.9986111111111111
2000,0.5927155599603567,0.9986111111111111
2001,0.5927485959696068,0.9986111111111111
2002,0.5953088866864883,0.9986111111111111
2003,0.5953419226957384,0.9986111111111111
2004,0.5965642550379914,0.9986111111111111
2005,0.5965972910472415,0.9986111111111111
2006,0.5974892632969937,0.9986111111111111
2007,0.5975222993062438,0.9986111111111111
2008,0.5998017839444995,0.9986111111111111
2009,0.5998348199537495,0.9986111111111111
2010,0.6005616121572515,0.9986111111111111
2011,0.6005946481665014,0.9986111111111111
2012,0.6006442021803766,0.9986111111111111
2013,0.6006772381896267,0.9986111111111111
2014,0.6022299306243806,0.9986111111111111
2015,0.6022629666336307,0.9986111111111111
2016,0.6032705649157581,0.9986111111111111
2017,0.6033036009250082,0.9986111111111111
2018,0.6039147670961348,0.9986111111111111
2019,0.6039478031053849,0.9986111111111111
2020,0.6060951437066402,0.9986111111111111
2021,0.6061281797158903,0.9986111111111111
2022,0.6093657086223984,0.9986111111111111
2023,0.6093987446316484,0.9986111111111111
2024,0.60999339279815,0.9986111111111111
2025,0.6100264288074001,0.9986111111111111
2026,0.6113148331681533,0.9986111111111111
2027,0.6113478691774034,0.9986111111111111
2028,0.6122563594317807,0.9986111111111111
2029,0.6122893954410307,0.9986111111111111
2030,0.6198216055500495,0.9986111111111111
2031,0.6198546415592996,0.9986111111111111
2032,0.6231252064750578,0.9986111111111111
2033,0.6231582424843078,0.9986111111111111
2034,0.6246778989098117,0.9986111111111111
2035,0.6247109349190618,0.9986111111111111
2036,0.6250082590023125,0.9986111111111111
2037,0.6250412950115626,0.9986111111111111
2038,0.6253881731086884,0.9986111111111111
2039,0.6254212091179385,0.9986111111111111
2040,0.6260984473075653,0.9986111111111111
2041,0.6261314833168153,0.9986111111111111
2042,0.6265939874463164,0.9986111111111111
2043,0.6266270234555665,0.9986111111111111
2044,0.6266600594648166,0.9986111111111111
2045,0.6266930954740667,0.9986111111111111
2046,0.6270234555665676,0.9986111111111111
2047,0.6270564915758177,0.9986111111111111
2048,0.6273207796498182,0.9986111111111111
2049,0.6273538156590683,0.9986111111111111
2050,0.6301453584407004,0.9986111111111111
2051,0.6301783944499505,0.9986111111111111
2052,0.6302114304592006,0.9986111111111111
2053,0.6302444664684506,0.9986111111111111
2054,0.6321275189957053,0.9986111111111111
2055,0.6321605550049554,0.9986111111111111
2056,0.6326065411298315,0.9986111111111111
2057,0.6326395771390816,0.9986111111111111
2058,0.6359431780640898,0.9986111111111111
2059,0.6359762140733399,0.9986111111111111
2060,0.6362570201519656,0.9986111111111111
2061,0.6362900561612157,0.9986111111111111
2062,0.6371489924017179,0.9986111111111111
2063,0.6371820284109679,0.9986111111111111
2064,0.6385034687809713,0.9986111111111111
2065,0.6385365047902214,0.9986111111111111
2066,0.6385695407994714,0.9986111111111111
2067,0.6386025768087215,0.9986111111111111
2068,0.6418896597291047,0.9986111111111111
2069,0.6419226957383548,0.9986111111111111
2070,0.6423851998678559,0.9986111111111111
2071,0.642418235877106,0.9986111111111111
2072,0.6436901222332342,0.9986111111111111
2073,0.6437231582424843,0.9986111111111111
2074,0.6461347869177403,0.9986111111111111
2075,0.6461678229269904,0.9986111111111111
2076,0.6477865873802444,0.9986111111111111
2077,0.6478196233894945,0.9986111111111111
2078,0.6482490915097456,0.9986111111111111
2079,0.6482821275189957,0.9986111111111111
2080,0.6502477700693756,0.9986111111111111
2081,0.6502808060786257,0.9986111111111111
2082,0.6563594317806409,0.9986111111111111
2083,0.656392467789891,0.9986111111111111
2084,0.6602411628675257,0.9986111111111111
2085,0.6602741988767756,0.9986111111111111
2086,0.662008589362405,0.9986111111111111
2087,0.6620416253716551,0.9986111111111111
2088,0.6620581433762801,0.9986111111111111
2089,0.6620911793855302,0.9986111111111111
2090,0.6643376280145359,0.9986111111111111
2091,0.664370664023786,0.9986111111111111
2092,0.6646349520977866,0.9986111111111111
2093,0.6646679881070366,0.9986111111111111
2094,0.6667162206805418,0.9986111111111111
2095,0.6667492566897919,0.9986111111111111
2096,0.667624710934919,0.9986111111111111
2097,0.6676577469441691,0.9986111111111111
2098,0.6677733729765445,0.9986111111111111
2099,0.6678064089857945,0.9986111111111111
2100,0.671192599933928,0.9986111111111111
2101,0.6712256359431781,0.9986111111111111
2102,0.6732738685166831,0.9986111111111111
2103,0.6733069045259332,0.9986111111111111
2104,0.6746283448959366,0.9986111111111111
2105,0.6746613809051867,0.9986111111111111
2106,0.6747274529236869,0.9986111111111111
2107,0.6747604889329369,0.9986111111111111
2108,0.6758671952428147,0.9986111111111111
2109,0.6759002312520648,0.9986111111111111
2110,0.6800627684175752,0.9986111111111111
2111,0.6800958044268253,0.9986111111111111
2112,0.6816650148662041,0.9986111111111111
2113,0.6816980508754542,0.9986111111111111
2114,0.6835315493888339,0.9986111111111111
2115,0.683564585398084,0.9986111111111111
2116,0.6859266600594648,0.9986111111111111
2117,0.6859596960687149,0.9986111111111111
2118,0.6866038982490915,0.9986111111111111
2119,0.6866369342583416,0.9986111111111111
2120,0.687991410637595,0.9986111111111111
2121,0.688024446646845,0.9986111111111111
2122,0.6885860588040965,0.9986111111111111
2123,0.6886190948133466,0.9986111111111111
2124,0.6890485629335976,0.9986111111111111
2125,0.6890815989428477,0.9986111111111111
2126,0.6902213412619755,0.9986111111111111
2127,0.6902543772712256,0.9986111111111111
2128,0.6907664354146019,0.9986111111111111
2129,0.690799471423852,0.9986111111111111
2130,0.6915097456227288,0.9986111111111111
2131,0.6915427816319789,0.9986111111111111
2132,0.6946977205153617,0.9986111111111111
2133,0.6947307565246118,0.9986111111111111
2134,0.6950941526263628,0.9986111111111111
2135,0.6951271886356128,0.9986111111111111
2136,0.695193260654113,0.9986111111111111
2137,0.6952262966633631,0.9986111111111111
2138,0.6973901552692435,0.9986111111111111
2139,0.6974231912784935,0.9986111111111111
2140,0.6975222993062438,0.9986111111111111
2141,0.6975553353154939,0.9986111111111111
2142,0.6976709613478692,0.9986111111111111
2143,0.6977039973571193,0.9986111111111111
2144,0.6981004294681202,0.9986111111111111
2145,0.6981334654773703,0.9986111111111111
2146,0.7057978196233895,0.9986111111111111
2147,0.7058308556326396,0.9986111111111111
2148,0.7065741658407665,0.9986111111111111
2149,0.7066072018500165,0.9986111111111111
2150,0.7069705979517674,0.9986111111111111
2151,0.7070036339610175,0.9986111111111111
2152,0.7071192599933928,0.9986111111111111
2153,0.7071522960026428,0.9986111111111111
2154,0.7082259663032706,0.9986111111111111
2155,0.7082590023125207,0.9986111111111111
2156,0.7100429468120251,0.9986111111111111
2157,0.7100759828212752,0.9986111111111111
2158,0.7102576808721507,0.9986111111111111
2159,0.7102907168814008,0.9986111111111111
2160,0.7111166171126528,0.9986111111111111
2161,0.7111496531219029,0.9986111111111111
2162,0.7114634952097787,0.9986111111111111
2163,0.7114965312190288,0.9986111111111111
2164,0.7127353815659069,0.9986111111111111
2165,0.712768417575157,0.9986111111111111
2166,0.7131648496861579,0.9986111111111111
2167,0.7132309217046581,0.9986111111111111
2168,0.7134126197555335,0.9986111111111111
2169,0.7134456557647836,0.9986111111111111
2170,0.7149487941856624,0.9986111111111111
2171,0.7149818301949125,0.9986111111111111
2172,0.7159398744631649,0.9986111111111111
2173,0.715972910472415,0.9986111111111111
2174,0.7189791873141724,0.9986111111111111
2175,0.7190122233234225,0.9986111111111111
2176,0.7192599933927981,0.9986111111111111
2177,0.7193095474066733,0.9986111111111111
2178,0.7199867855962999,0.9986111111111111
2179,0.72001982160555,0.9986111111111111
2180,0.7209943838784275,0.9986111111111111
2181,0.7210274198876776,0.9986111111111111
2182,0.721572514040304,0.9986111111111111
2183,0.7216055500495541,0.9986111111111111
2184,0.7226461843409316,0.9986111111111111
2185,0.7226792203501817,0.9986111111111111
2186,0.7237528906508094,0.9986111111111111
2187,0.7237859266600595,0.9986111111111111
2188,0.725602907168814,0.9986111111111111
2189,0.7256359431780641,0.9986111111111111
2190,0.7257515692104394,0.9986111111111111
2191,0.7257846052196895,0.9986111111111111
2192,0.7266105054509415,0.9986111111111111
2193,0.7266435414601916,0.9986111111111111
2194,0.7285431119920713,0.9986111111111111
2195,0.7285761480013214,0.9986111111111111
2196,0.7291707961678229,0.9986111111111111
2197,0.729203832177073,0.9986111111111111
2198,0.7306078625702015,0.9986111111111111
2199,0.7306408985794516,0.9986111111111111
2200,0.7310703666997027,0.9986111111111111
2201,0.7311034027089528,0.9986111111111111
2202,0.7312025107367031,0.9986111111111111
2203,0.731235546745953,0.9986111111111111
2204,0.7314667988107036,0.9986111111111111
2205,0.7314998348199537,0.9986111111111111
2206,0.7326891311529568,0.9986111111111111
2207,0.7327221671622068,0.9986111111111111
2208,0.7334159233564586,0.9986111111111111
2209,0.7334489593657086,0.9986111111111111
2210,0.7369012223323422,0.9986111111111111
2211,0.7369342583415923,0.9986111111111111
2212,0.7391476709613479,0.9986111111111111
2213,0.7391807069705979,0.9986111111111111
2214,0.7410637594978526,0.9986111111111111
2215,0.7410967955071027,0.9986111111111111
2216,0.7440700363396102,0.9986111111111111
2217,0.7440700363396102,0.9993055555555556
2218,0.7463164849686158,0.9993055555555556
2219,0.7463495209778659,0.9993055555555556
2220,0.7469111331351173,0.9993055555555556
2221,0.7469441691443673,0.9993055555555556
2222,0.7471258671952428,0.9993055555555556
2223,0.7471589032044929,0.9993055555555556
2224,0.7489758837132474,0.9993055555555556
2225,0.7490089197224975,0.9993055555555556
2226,0.7506276841757515,0.9993055555555556
2227,0.7506607201850016,0.9993055555555556
2228,0.7513875123885034,0.9993055555555556
2229,0.7514205483977535,0.9993055555555556
2230,0.7526263627353815,0.9993055555555556
2231,0.7526593987446316,0.9993055555555556
2232,0.7528906508093822,0.9993055555555556
2233,0.7529236868186323,0.9993055555555556
2234,0.7547076313181368,0.9993055555555556
2235,0.754773703336637,0.9993055555555556
2236,0.7554839775355137,0.9993055555555556
2237,0.7555170135447637,0.9993055555555556
2238,0.7566072018500165,0.9993055555555556
2239,0.7566402378592666,0.9993055555555556
2240,0.7568384539147671,0.9993055555555556
2241,0.7568714899240172,0.9993055555555556
2242,0.7595308886686488,0.9993055555555556
2243,0.7595639246778989,0.9993055555555556
2244,0.7602246448629005,0.9993055555555556
2245,0.7602576808721506,0.9993055555555556
2246,0.7620911793855303,0.9993055555555556
2247,0.7621242153947803,0.9993055555555556
2248,0.762784935579782,0.9993055555555556
2249,0.7628179715890321,0.9993055555555556
2250,0.7633795837462835,0.9993055555555556
2251,0.7634126197555335,0.9993055555555556
2252,0.7636603898249091,0.9993055555555556
2253,0.7636934258341592,0.9993055555555556
2254,0.7643045920052858,0.9993055555555556
2255,0.7643376280145359,0.9993055555555556
2256,0.7663032705649158,0.9993055555555556
2257,0.7663363065741658,0.9993055555555556
2258,0.766798810703667,0.9993055555555556
2259,0.766831846712917,0.9993055555555556
2260,0.7670135447637926,0.9993055555555556
2261,0.7670465807730427,0.9993055555555556
2262,0.7670796167822928,0.9993055555555556
2263,0.7671126527915427,0.9993055555555556
2264,0.7689791873141725,0.9993055555555556
2265,0.7690122233234226,0.9993055555555556
2266,0.7695077634621738,0.9993055555555556
2267,0.7695407994714238,0.9993055555555556
2268,0.7711265279154278,0.9993055555555556
2269,0.7711595639246779,0.9993055555555556
2270,0.771968946151305,0.9993055555555556
2271,0.772001982160555,0.9993055555555556
2272,0.7741328047571854,0.9993055555555556
2273,0.7741658407664355,0.9993055555555556
2274,0.7748595969606872,0.9993055555555556
2275,0.7748926329699373,0.9993055555555556
2276,0.7753386190948134,0.9993055555555556
2277,0.7753716551040635,0.9993055555555556
2278,0.7754542451271886,0.9993055555555556
2279,0.7754872811364387,0.9993055555555556
2280,0.7774033696729435,0.9993055555555556
2281,0.7774364056821936,0.9993055555555556
2282,0.7777172117608193,0.9993055555555556
2283,0.7777502477700694,0.9993055555555556
2284,0.7788569540799472,0.9993055555555556
2285,0.7788899900891972,0.9993055555555556
2286,0.7790221341261976,0.9993055555555556
2287,0.7790551701354477,0.9993055555555556
2288,0.7795011562603238,0.9993055555555556
2289,0.7795341922695739,0.9993055555555556
2290,0.7831681532870829,0.9993055555555556
2291,0.783201189296333,0.9993055555555556
2292,0.7839610175090849,0.9993055555555556
2293,0.783994053518335,0.9993055555555556
2294,0.7864222001982161,0.9993055555555556
2295,0.7864552362074662,0.9993055555555556
2296,0.7866204162537166,0.9993055555555556
2297,0.7866534522629667,0.9993055555555556
2298,0.786818632309217,0.9993055555555556
2299,0.7868516683184671,0.9993055555555556
2300,0.7875123885034688,0.9993055555555556
2301,0.7875454245127189,0.9993055555555556
2302,0.7890485629335976,0.9993055555555556
2303,0.7890815989428477,0.9993055555555556
2304,0.794813346547737,0.9993055555555556
2305,0.7948463825569871,0.9993055555555556
2306,0.7957548728113644,0.9993055555555556
2307,0.7957879088206145,0.9993055555555556
2308,0.7964321110009911,0.9993055555555556
2309,0.7964651470102412,0.9993055555555556
2310,0.7973901552692435,0.9993055555555556
2311,0.7974231912784936,0.9993055555555556
2312,0.7976874793524942,0.9993055555555556
2313,0.7977205153617443,0.9993055555555556
2314,0.7982325735051206,0.9993055555555556
2315,0.7982656095143706,0.9993055555555556
2316,0.8007102741988767,0.9993055555555556
2317,0.8007433102081268,0.9993055555555556
2318,0.8009084902543773,0.9993055555555556
2319,0.8009415262636274,0.9993055555555556
2320,0.8011562603237529,0.9993055555555556
2321,0.801189296333003,0.9993055555555556
2322,0.8024116286752561,0.9993055555555556
2323,0.8024446646845061,0.9993055555555556
2324,0.8027585067723819,0.9993055555555556
2325,0.802791542781632,0.9993055555555556
2326,0.8048893293690123,0.9993055555555556
2327,0.8049223653782623,0.9993055555555556
2328,0.8053683515031385,0.9993055555555556
2329,0.8054013875123885,0.9993055555555556
2330,0.8063263957713909,0.9993055555555556
2331,0.8063594317806408,0.9993055555555556
2332,0.8070697059795177,0.9993055555555556
2333,0.8071027419887677,0.9993055555555556
2334,0.8077964981830195,0.9993055555555556
2335,0.8078295341922695,0.9993055555555556
2336,0.8092170465807731,0.9993055555555556
2337,0.8092500825900232,0.9993055555555556
2338,0.8111661711265279,0.9993055555555556
2339,0.811199207135778,0.9993055555555556
2340,0.813197885695408,0.9993055555555556
2341,0.813230921704658,0.9993055555555556
2342,0.8141228939544103,0.9993055555555556
2343,0.8141559299636604,0.9993055555555556
2344,0.8156260323752891,0.9993055555555556
2345,0.8156590683845392,0.9993055555555556
2346,0.817228278823918,0.9993055555555556
2347,0.8172613148331681,0.9993055555555556
2348,0.8191278493557979,0.9993055555555556
2349,0.8191608853650479,0.9993055555555556
2350,0.8226792203501817,0.9993055555555556
2351,0.8227122563594318,0.9993055555555556
2352,0.8247274529236868,0.9993055555555556
2353,0.8247604889329369,0.9993055555555556
2354,0.8250743310208127,0.9993055555555556
2355,0.8251073670300628,0.9993055555555556
2356,0.8263792533861909,0.9993055555555556
2357,0.8264453254046911,0.9993055555555556
2358,0.8275189957053188,0.9993055555555556
2359,0.8275520317145689,0.9993055555555556
2360,0.8282953419226957,0.9993055555555556
2361,0.8283283779319458,0.9993055555555556
2362,0.8295672282788239,0.9993055555555556
2363,0.829600264288074,0.9993055555555556
2364,0.8300462504129501,0.9993055555555556
2365,0.8300792864222002,0.9993055555555556
2366,0.8335645853980839,0.9993055555555556
2367,0.833597621407334,0.9993055555555556
2368,0.834423521638586,0.9993055555555556
2369,0.834423521638586,1.0
2370,0.8354311199207136,1.0
2371,0.8354641559299637,1.0
2372,0.8387512388503469,1.0
2373,0.838784274859597,1.0
2374,0.8415097456227287,1.0
2375,0.8415427816319788,1.0
2376,0.8425173439048563,1.0
2377,0.8425503799141064,1.0
2378,0.843178064089858,1.0
2379,0.843211100099108,1.0
2380,0.845573174760489,1.0
2381,0.845606210769739,1.0
2382,0.847191939213743,1.0
2383,0.8472249752229931,1.0
2384,0.8473571192599934,1.0
2385,0.8473901552692434,1.0
2386,0.847588371324744,1.0
2387,0.847621407333994,1.0
2388,0.8498678559629996,1.0
2389,0.8499008919722497,1.0
2390,0.8522960026428807,1.0
2391,0.8523290386521308,1.0
2392,0.85399735711926,1.0
2393,0.85403039312851,1.0
2394,0.861612157251404,1.0
2395,0.8616451932606541,1.0
2396,0.8673273868516683,1.0
2397,0.8673604228609184,1.0
2398,0.8718863561281797,1.0
2399,0.8719524281466798,1.0
2400,0.872381896266931,1.0
2401,0.872414932276181,1.0
2402,0.8729269904195573,1.0
2403,0.8729600264288074,1.0
2404,0.8738354806739346,1.0
2405,0.8738685166831847,1.0
2406,0.8742153947803105,1.0
2407,0.8742484307895606,1.0
2408,0.8811694747274529,1.0
2409,0.881202510736703,1.0
2410,0.8823587710604559,1.0
2411,0.882391807069706,1.0
2412,0.8836967294350843,1.0
2413,0.8837297654443343,1.0
2414,0.8846712917079617,1.0
2415,0.8847373637264618,1.0
2416,0.8861579121242154,1.0
2417,0.8861909481334654,1.0
2418,0.8918566237198546,1.0
2419,0.8918896597291047,1.0
2420,0.8919392137429798,1.0
2421,0.8919722497522299,1.0
2422,0.89397092831186,1.0
2423,0.89400396432111,1.0
2424,0.8957879088206144,1.0
2425,0.8958209448298645,1.0
2426,0.8990089197224975,1.0
2427,0.8990419557317476,1.0
2428,0.9058804096465147,1.0
2429,0.9059134456557648,1.0
2430,0.9089032044928973,1.0
2431,0.9089362405021474,1.0
2432,0.9124545754872811,1.0
2433,0.9124876114965312,1.0
2434,0.9133961017509085,1.0
2435,0.9134291377601585,1.0
2436,0.9149983481995375,1.0
2437,0.9150313842087876,1.0
2438,0.9155434423521639,1.0
2439,0.915576478361414,1.0
2440,0.9179715890320449,1.0
2441,0.918004625041295,1.0
2442,0.9185332011892964,1.0
2443,0.9185662371985465,1.0
2444,0.9251073670300628,1.0
2445,0.9251404030393129,1.0
2446,0.9264122893954411,1.0
2447,0.9264453254046912,1.0
2448,0.9280971258671953,1.0
2449,0.9281301618764454,1.0
2450,0.9283448959365709,1.0
2451,0.928377931945821,1.0
2452,0.9295507102741989,1.0
2453,0.929583746283449,1.0
2454,0.9306904525933267,1.0
2455,0.9307234886025768,1.0
2456,0.9311859927320779,1.0
2457,0.931219028741328,1.0
2458,0.9319127849355798,1.0
2459,0.9319458209448299,1.0
2460,0.9324413610835811,1.0
2461,0.9324743970928312,1.0
2462,0.9332837793194582,1.0
2463,0.9333168153287082,1.0
2464,0.9383217707300958,1.0
2465,0.9383548067393459,1.0
2466,0.9391641889659729,1.0
2467,0.939197224975223,1.0
2468,0.9463495209778658,1.0
2469,0.9463825569871159,1.0
2470,0.9504459861248761,1.0
2471,0.9504790221341262,1.0
2472,0.9507102741988768,1.0
2473,0.9507433102081269,1.0
2474,0.9518665345226297,1.0
2475,0.9518995705318798,1.0
2476,0.9549554013875123,1.0
2477,0.9549884373967624,1.0
2478,0.9566567558638917,1.0
2479,0.9566897918731417,1.0
2480,0.9576148001321441,1.0
2481,0.9576478361413941,1.0
2482,0.961612157251404,1.0
2483,0.9616451932606541,1.0
2484,0.9625041295011563,1.0
2485,0.9625371655104064,1.0
2486,0.9657581764122894,1.0
2487,0.9657912124215394,1.0
2488,0.9667492566897918,1.0
2489,0.9667822926990419,1.0
2490,0.9675090849025437,1.0
2491,0.9675421209117938,1.0
2492,0.9708787578460522,1.0
2493,0.9709117938553022,1.0
2494,0.9714403700033036,1.0
2495,0.9714734060125537,1.0
2496,0.9730921704658078,1.0
2497,0.9731252064750578,1.0
2498,0.9753881731086884,1.0
2499,0.9754212091179385,1.0
2500,0.9810703666997027,1.0
2501,0.9811034027089528,1.0
2502,0.9834324413610835,1.0
2503,0.9834654773703336,1.0
2504,0.9853815659068385,1.0
2505,0.9854146019160885,1.0
2506,0.9857119259993393,1.0
2507,0.9857449620085894,1.0
2508,0.9881896266930955,1.0
2509,0.9882226627023456,1.0
2510,0.989990089197225,1.0
2511,0.9900231252064751,1.0
2512,0.9912950115626032,1.0
2513,0.9913280475718533,1.0
2514,0.9945986124876115,1.0
2515,0.9946316484968616,1.0
2516,0.9953914767096135,1.0
2517,0.9954245127188636,1.0
2518,0.9978031053848695,1.0
2519,0.9978361413941196,1.0
2520,1.0,1.0
