,fpr,tpr
0,0.0,0.0
1,0.0,0.0006944444444444445
2,0.0,0.001388888888888889
3,1.6518004625041296e-05,0.001388888888888889
4,1.6518004625041296e-05,0.0020833333333333333
5,3.303600925008259e-05,0.0020833333333333333
6,3.303600925008259e-05,0.002777777777777778
7,6.607201850016519e-05,0.002777777777777778
8,6.607201850016519e-05,0.01875
9,8.259002312520647e-05,0.01875
10,8.259002312520647e-05,0.03958333333333333
11,8.259002312520647e-05,0.04097222222222222
12,8.259002312520647e-05,0.04791666666666667
13,9.910802775024777e-05,0.04791666666666667
14,9.910802775024777e-05,0.04861111111111111
15,0.00011562603237528906,0.04861111111111111
16,0.00011562603237528906,0.06388888888888888
17,0.00011562603237528906,0.06527777777777778
18,0.00011562603237528906,0.06805555555555555
19,0.00013214403700033037,0.06805555555555555
20,0.00013214403700033037,0.08680555555555555
21,0.00014866204162537167,0.08680555555555555
22,0.00014866204162537167,0.09652777777777778
23,0.00016518004625041294,0.09652777777777778
24,0.00016518004625041294,0.09791666666666667
25,0.00016518004625041294,0.09930555555555555
26,0.00016518004625041294,0.10069444444444445
27,0.00018169805087545423,0.10069444444444445
28,0.00018169805087545423,0.11736111111111111
29,0.00019821605550049553,0.11736111111111111
30,0.00019821605550049553,0.11875
31,0.00019821605550049553,0.12013888888888889
32,0.00019821605550049553,0.13680555555555557
33,0.00021473406012553683,0.13680555555555557
34,0.00021473406012553683,0.14166666666666666
35,0.0002477700693756194,0.14166666666666666
36,0.0002477700693756194,0.15347222222222223
37,0.00026428807400066074,0.15347222222222223
38,0.00026428807400066074,0.15625
39,0.000280806078625702,0.15625
40,0.000280806078625702,0.16597222222222222
41,0.000280806078625702,0.1673611111111111
42,0.000280806078625702,0.16805555555555557
43,0.000280806078625702,0.16944444444444445
44,0.000280806078625702,0.17222222222222222
45,0.00029732408325074334,0.17222222222222222
46,0.00029732408325074334,0.17569444444444443
47,0.0003138420878757846,0.17569444444444443
48,0.0003138420878757846,0.18055555555555555
49,0.0003303600925008259,0.18055555555555555
50,0.0003303600925008259,0.18958333333333333
51,0.0003468780971258672,0.18958333333333333
52,0.0003468780971258672,0.19791666666666666
53,0.00036339610175090847,0.19791666666666666
54,0.00036339610175090847,0.20416666666666666
55,0.0003799141063759498,0.20416666666666666
56,0.0003799141063759498,0.20625
57,0.00039643211100099106,0.20625
58,0.00039643211100099106,0.21180555555555555
59,0.0004129501156260324,0.21180555555555555
60,0.0004129501156260324,0.2298611111111111
61,0.00042946812025107365,0.23055555555555557
62,0.00042946812025107365,0.2361111111111111
63,0.00046250412950115625,0.2361111111111111
64,0.00046250412950115625,0.24097222222222223
65,0.00047902213412619757,0.24097222222222223
66,0.00047902213412619757,0.2569444444444444
67,0.0004955401387512388,0.25763888888888886
68,0.0004955401387512388,0.26319444444444445
69,0.0005120581433762802,0.26319444444444445
70,0.0005120581433762802,0.26944444444444443
71,0.0005285761480013215,0.26944444444444443
72,0.0005285761480013215,0.27291666666666664
73,0.0005285761480013215,0.2743055555555556
74,0.0005285761480013215,0.275
75,0.000561612157251404,0.275
76,0.000561612157251404,0.2861111111111111
77,0.000561612157251404,0.2875
78,0.000561612157251404,0.2951388888888889
79,0.0006111661711265279,0.2951388888888889
80,0.0006111661711265279,0.30416666666666664
81,0.0006276841757515692,0.30416666666666664
82,0.0006276841757515692,0.3090277777777778
83,0.0006442021803766105,0.3090277777777778
84,0.0006442021803766105,0.3138888888888889
85,0.0006607201850016518,0.3138888888888889
86,0.0006607201850016518,0.31805555555555554
87,0.0006772381896266931,0.31805555555555554
88,0.0006772381896266931,0.32430555555555557
89,0.0006937561942517344,0.32430555555555557
90,0.0006937561942517344,0.3263888888888889
91,0.0007102741988767757,0.3263888888888889
92,0.0007102741988767757,0.33055555555555555
93,0.0007267922035018169,0.33055555555555555
94,0.0007267922035018169,0.33125
95,0.0007433102081268583,0.33125
96,0.0007433102081268583,0.3333333333333333
97,0.0007598282127518996,0.3333333333333333
98,0.0007598282127518996,0.33611111111111114
99,0.0007763462173769409,0.33611111111111114
100,0.0007763462173769409,0.3472222222222222
101,0.0008093822266270234,0.3472222222222222
102,0.0008093822266270234,0.34791666666666665
103,0.0008259002312520648,0.34791666666666665
104,0.0008259002312520648,0.35208333333333336
105,0.0008589362405021473,0.35208333333333336
106,0.0008589362405021473,0.3527777777777778
107,0.0008754542451271886,0.3527777777777778
108,0.0008754542451271886,0.3541666666666667
109,0.00089197224975223,0.3541666666666667
110,0.00089197224975223,0.35625
111,0.0009084902543772713,0.35625
112,0.0009084902543772713,0.36041666666666666
113,0.0009250082590023125,0.36041666666666666
114,0.0009250082590023125,0.37083333333333335
115,0.0009415262636273538,0.37083333333333335
116,0.0009415262636273538,0.37222222222222223
117,0.0009580442682523951,0.37222222222222223
118,0.0009580442682523951,0.3798611111111111
119,0.0009745622728774364,0.3798611111111111
120,0.0009745622728774364,0.3861111111111111
121,0.0009910802775024777,0.3861111111111111
122,0.0009910802775024777,0.38680555555555557
123,0.001007598282127519,0.38680555555555557
124,0.001007598282127519,0.3909722222222222
125,0.0010241162867525603,0.3909722222222222
126,0.0010241162867525603,0.3923611111111111
127,0.0010406342913776017,0.3923611111111111
128,0.0010406342913776017,0.39444444444444443
129,0.001057152296002643,0.39444444444444443
130,0.001057152296002643,0.3951388888888889
131,0.0010901883052527254,0.3951388888888889
132,0.0010901883052527254,0.39652777777777776
133,0.0010901883052527254,0.39791666666666664
134,0.0011067063098777667,0.39791666666666664
135,0.0011067063098777667,0.3993055555555556
136,0.001123224314502808,0.3993055555555556
137,0.001123224314502808,0.4
138,0.0011397423191278494,0.4
139,0.0011397423191278494,0.40208333333333335
140,0.0011397423191278494,0.40347222222222223
141,0.0011397423191278494,0.4097222222222222
142,0.0011562603237528907,0.4097222222222222
143,0.0011562603237528907,0.41805555555555557
144,0.001172778328377932,0.41805555555555557
145,0.001172778328377932,0.41875
146,0.0011892963330029733,0.41875
147,0.0011892963330029733,0.42291666666666666
148,0.0012058143376280145,0.42291666666666666
149,0.0012058143376280145,0.42986111111111114
150,0.0012223323422530558,0.42986111111111114
151,0.0012223323422530558,0.4326388888888889
152,0.001238850346878097,0.4326388888888889
153,0.001238850346878097,0.4375
154,0.0012718863561281797,0.4375
155,0.0012718863561281797,0.4395833333333333
156,0.001288404360753221,0.4395833333333333
157,0.001288404360753221,0.4423611111111111
158,0.0013049223653782624,0.4423611111111111
159,0.0013049223653782624,0.4444444444444444
160,0.0013214403700033035,0.4444444444444444
161,0.0013214403700033035,0.4465277777777778
162,0.0013544763792533861,0.4465277777777778
163,0.0013544763792533861,0.4513888888888889
164,0.0013709943838784275,0.4513888888888889
165,0.0013709943838784275,0.4527777777777778
166,0.0013875123885034688,0.4527777777777778
167,0.0013875123885034688,0.4576388888888889
168,0.0014040303931285101,0.4576388888888889
169,0.0014040303931285101,0.4597222222222222
170,0.0014370664023785928,0.4597222222222222
171,0.0014370664023785928,0.4618055555555556
172,0.0014535844070036339,0.4618055555555556
173,0.0014535844070036339,0.46597222222222223
174,0.0014701024116286752,0.46597222222222223
175,0.0014701024116286752,0.4722222222222222
176,0.0014866204162537165,0.4722222222222222
177,0.0014866204162537165,0.4736111111111111
178,0.0015196564255037992,0.4736111111111111
179,0.0015196564255037992,0.47847222222222224
180,0.0015361744301288405,0.47847222222222224
181,0.0015361744301288405,0.4798611111111111
182,0.0015526924347538818,0.4798611111111111
183,0.0015526924347538818,0.4826388888888889
184,0.001569210439378923,0.4826388888888889
185,0.001569210439378923,0.48333333333333334
186,0.0015857284440039642,0.48333333333333334
187,0.0015857284440039642,0.48680555555555555
188,0.0016022464486290056,0.48680555555555555
189,0.0016022464486290056,0.4895833333333333
190,0.001618764453254047,0.4895833333333333
191,0.001618764453254047,0.4930555555555556
192,0.0016352824578790882,0.4930555555555556
193,0.0016352824578790882,0.4965277777777778
194,0.0017013544763792533,0.4965277777777778
195,0.0017013544763792533,0.4986111111111111
196,0.0017178724810042946,0.4986111111111111
197,0.0017178724810042946,0.5013888888888889
198,0.0017509084902543773,0.5013888888888889
199,0.0017509084902543773,0.5034722222222222
200,0.0017674264948794186,0.5034722222222222
201,0.0017674264948794186,0.5041666666666667
202,0.0017674264948794186,0.5055555555555555
203,0.0017674264948794186,0.5083333333333333
204,0.0018334985133795837,0.5083333333333333
205,0.0018334985133795837,0.5111111111111111
206,0.0018665345226296663,0.5111111111111111
207,0.0018665345226296663,0.5125
208,0.0018665345226296663,0.5131944444444444
209,0.0018830525272547076,0.5131944444444444
210,0.0018830525272547076,0.5152777777777777
211,0.001899570531879749,0.5152777777777777
212,0.001899570531879749,0.5159722222222223
213,0.0019160885365047903,0.5159722222222223
214,0.0019160885365047903,0.5180555555555556
215,0.0019326065411298316,0.5180555555555556
216,0.0019326065411298316,0.5215277777777778
217,0.0019491245457548727,0.5215277777777778
218,0.0019491245457548727,0.5236111111111111
219,0.001965642550379914,0.5236111111111111
220,0.001965642550379914,0.5243055555555556
221,0.0019821605550049554,0.5243055555555556
222,0.0019821605550049554,0.5263888888888889
223,0.0019986785596299967,0.5263888888888889
224,0.0019986785596299967,0.5277777777777778
225,0.002015196564255038,0.5277777777777778
226,0.002015196564255038,0.5284722222222222
227,0.0020317145688800793,0.5284722222222222
228,0.0020317145688800793,0.5319444444444444
229,0.0020482325735051207,0.5319444444444444
230,0.0020482325735051207,0.5361111111111111
231,0.0020812685827552033,0.5361111111111111
232,0.0020812685827552033,0.5368055555555555
233,0.0020977865873802446,0.5368055555555555
234,0.0020977865873802446,0.5402777777777777
235,0.002114304592005286,0.5402777777777777
236,0.002114304592005286,0.5416666666666666
237,0.0021308225966303273,0.5416666666666666
238,0.0021308225966303273,0.5430555555555555
239,0.002196894615130492,0.5430555555555555
240,0.002196894615130492,0.5458333333333333
241,0.0022134126197555335,0.5458333333333333
242,0.0022134126197555335,0.5486111111111112
243,0.0022299306243805748,0.5486111111111112
244,0.0022299306243805748,0.5513888888888889
245,0.002246448629005616,0.5513888888888889
246,0.002246448629005616,0.5534722222222223
247,0.0023125206475057814,0.5534722222222223
248,0.0023125206475057814,0.5555555555555556
249,0.0023290386521308227,0.5555555555555556
250,0.0023290386521308227,0.55625
251,0.002345556656755864,0.55625
252,0.002345556656755864,0.5611111111111111
253,0.0023785926660059467,0.5611111111111111
254,0.0023785926660059467,0.5625
255,0.0024446646845061116,0.5625
256,0.0024446646845061116,0.5652777777777778
257,0.002461182689131153,0.5652777777777778
258,0.002461182689131153,0.5666666666666667
259,0.002477700693756194,0.5666666666666667
260,0.002477700693756194,0.5673611111111111
261,0.002477700693756194,0.56875
262,0.002477700693756194,0.5715277777777777
263,0.002510736703006277,0.5715277777777777
264,0.002510736703006277,0.5736111111111111
265,0.002527254707631318,0.5736111111111111
266,0.002527254707631318,0.5743055555555555
267,0.0025437727122563595,0.5743055555555555
268,0.0025437727122563595,0.5770833333333333
269,0.002560290716881401,0.5770833333333333
270,0.002560290716881401,0.5777777777777777
271,0.0025933267261314835,0.5777777777777777
272,0.0025933267261314835,0.5791666666666667
273,0.002609844730756525,0.5791666666666667
274,0.002609844730756525,0.5840277777777778
275,0.002626362735381566,0.5840277777777778
276,0.002626362735381566,0.5847222222222223
277,0.002642880740006607,0.5847222222222223
278,0.002642880740006607,0.5854166666666667
279,0.0027089527585067723,0.5854166666666667
280,0.0027089527585067723,0.5868055555555556
281,0.0027254707631318136,0.5868055555555556
282,0.0027254707631318136,0.5895833333333333
283,0.002741988767756855,0.5895833333333333
284,0.002741988767756855,0.5916666666666667
285,0.0027585067723818963,0.5916666666666667
286,0.0027585067723818963,0.5930555555555556
287,0.0027750247770069376,0.5930555555555556
288,0.0027750247770069376,0.59375
289,0.002791542781631979,0.59375
290,0.002791542781631979,0.5951388888888889
291,0.0028080607862570202,0.5951388888888889
292,0.0028080607862570202,0.5958333333333333
293,0.002857614800132144,0.5958333333333333
294,0.002857614800132144,0.5986111111111111
295,0.0028741328047571855,0.5986111111111111
296,0.0028741328047571855,0.6006944444444444
297,0.0029071688140072677,0.6006944444444444
298,0.0029071688140072677,0.6013888888888889
299,0.0029402048232573504,0.6013888888888889
300,0.0029402048232573504,0.6020833333333333
301,0.0029567228278823917,0.6020833333333333
302,0.0029567228278823917,0.6027777777777777
303,0.002973240832507433,0.6027777777777777
304,0.002973240832507433,0.6041666666666666
305,0.0029897588371324744,0.6041666666666666
306,0.0029897588371324744,0.6048611111111111
307,0.0030393128510075983,0.6048611111111111
308,0.0030393128510075983,0.6055555555555555
309,0.003121902874132805,0.6055555555555555
310,0.003121902874132805,0.60625
311,0.003138420878757846,0.60625
312,0.003138420878757846,0.6083333333333333
313,0.003154938883382887,0.6083333333333333
314,0.003154938883382887,0.6125
315,0.00318797489263297,0.6125
316,0.00318797489263297,0.6138888888888889
317,0.003237528906508094,0.6138888888888889
318,0.003237528906508094,0.6145833333333334
319,0.0032705649157581764,0.6145833333333334
320,0.0032705649157581764,0.6173611111111111
321,0.0033201189296333004,0.6173611111111111
322,0.0033201189296333004,0.61875
323,0.0033696729435084244,0.61875
324,0.0033696729435084244,0.6201388888888889
325,0.0033861909481334653,0.6201388888888889
326,0.0033861909481334653,0.6208333333333333
327,0.003419226957383548,0.6208333333333333
328,0.003419226957383548,0.6229166666666667
329,0.003485298975883713,0.6229166666666667
330,0.003485298975883713,0.6243055555555556
331,0.0035018169805087545,0.6243055555555556
332,0.0035018169805087545,0.6263888888888889
333,0.003617443012884044,0.6263888888888889
334,0.003617443012884044,0.6277777777777778
335,0.003650479022134126,0.6277777777777778
336,0.003650479022134126,0.6298611111111111
337,0.0036669970267591673,0.6298611111111111
338,0.0036669970267591673,0.63125
339,0.0037826230591344566,0.63125
340,0.0037826230591344566,0.6319444444444444
341,0.003799141063759498,0.6319444444444444
342,0.003799141063759498,0.6326388888888889
343,0.003865213082259663,0.6326388888888889
344,0.003865213082259663,0.6333333333333333
345,0.003914767096134787,0.6333333333333333
346,0.003914767096134787,0.6361111111111111
347,0.00394780310538487,0.6361111111111111
348,0.00394780310538487,0.6368055555555555
349,0.003964321110009911,0.6368055555555555
350,0.003964321110009911,0.6395833333333333
351,0.0039808391146349525,0.6395833333333333
352,0.0039808391146349525,0.6430555555555556
353,0.003997357119259993,0.6430555555555556
354,0.003997357119259993,0.64375
355,0.004129501156260324,0.64375
356,0.004129501156260324,0.6444444444444445
357,0.004146019160885365,0.6444444444444445
358,0.004146019160885365,0.6451388888888889
359,0.004162537165510407,0.6451388888888889
360,0.004162537165510407,0.6458333333333334
361,0.00421209117938553,0.6458333333333334
362,0.00421209117938553,0.6472222222222223
363,0.004245127188635613,0.6472222222222223
364,0.004245127188635613,0.65
365,0.004311199207135778,0.65
366,0.004311199207135778,0.6513888888888889
367,0.004327717211760819,0.6513888888888889
368,0.004327717211760819,0.6520833333333333
369,0.004360753221010902,0.6520833333333333
370,0.004360753221010902,0.6527777777777778
371,0.004393789230260984,0.6527777777777778
372,0.004393789230260984,0.6534722222222222
373,0.004426825239511067,0.6534722222222222
374,0.004426825239511067,0.6590277777777778
375,0.004492897258011232,0.6590277777777778
376,0.004492897258011232,0.6597222222222222
377,0.004509415262636274,0.6597222222222222
378,0.004509415262636274,0.6611111111111111
379,0.004525933267261315,0.6611111111111111
380,0.004525933267261315,0.6618055555555555
381,0.004575487281136438,0.6618055555555555
382,0.004575487281136438,0.6625
383,0.004608523290386521,0.6625
384,0.004608523290386521,0.6631944444444444
385,0.004625041295011563,0.6631944444444444
386,0.004625041295011563,0.6638888888888889
387,0.004641559299636604,0.6638888888888889
388,0.004641559299636604,0.6645833333333333
389,0.004707631318136769,0.6645833333333333
390,0.004707631318136769,0.6652777777777777
391,0.004724149322761811,0.6652777777777777
392,0.004724149322761811,0.6666666666666666
393,0.004773703336636934,0.6666666666666666
394,0.004773703336636934,0.6673611111111111
395,0.004790221341261975,0.6673611111111111
396,0.004790221341261975,0.66875
397,0.004806739345887017,0.66875
398,0.004806739345887017,0.6694444444444444
399,0.0048397753551371,0.6694444444444444
400,0.0048397753551371,0.6708333333333333
401,0.0049388833828873475,0.6708333333333333
402,0.0049388833828873475,0.6736111111111112
403,0.005021473406012554,0.6736111111111112
404,0.005021473406012554,0.6756944444444445
405,0.005037991410637595,0.6756944444444445
406,0.005037991410637595,0.6763888888888889
407,0.005054509415262636,0.6763888888888889
408,0.005054509415262636,0.6770833333333334
409,0.00510406342913776,0.6770833333333334
410,0.00510406342913776,0.6777777777777778
411,0.005203171456888008,0.6777777777777778
412,0.005203171456888008,0.6791666666666667
413,0.005269243475388173,0.6791666666666667
414,0.005269243475388173,0.6805555555555556
415,0.005302279484638256,0.6805555555555556
416,0.005302279484638256,0.68125
417,0.005318797489263297,0.68125
418,0.005318797489263297,0.6819444444444445
419,0.005335315493888338,0.6819444444444445
420,0.005335315493888338,0.6847222222222222
421,0.005368351503138421,0.6847222222222222
422,0.005368351503138421,0.6861111111111111
423,0.005384869507763462,0.6861111111111111
424,0.005384869507763462,0.6868055555555556
425,0.005401387512388504,0.6868055555555556
426,0.005401387512388504,0.6875
427,0.005434423521638586,0.6875
428,0.005434423521638586,0.6881944444444444
429,0.005533531549388833,0.6881944444444444
430,0.005566567558638916,0.6881944444444444
431,0.005566567558638916,0.6895833333333333
432,0.005599603567888999,0.6895833333333333
433,0.005599603567888999,0.6909722222222222
434,0.005632639577139081,0.6909722222222222
435,0.005632639577139081,0.6916666666666667
436,0.005682193591014206,0.6916666666666667
437,0.005682193591014206,0.6923611111111111
438,0.005748265609514371,0.6923611111111111
439,0.005748265609514371,0.6930555555555555
440,0.005781301618764453,0.6930555555555555
441,0.005781301618764453,0.69375
442,0.0058143376280145355,0.69375
443,0.0058143376280145355,0.6951388888888889
444,0.005847373637264618,0.6951388888888889
445,0.005847373637264618,0.6965277777777777
446,0.00586389164188966,0.6965277777777777
447,0.00586389164188966,0.6972222222222222
448,0.005979517674264949,0.6972222222222222
449,0.005979517674264949,0.6986111111111111
450,0.006045589692765114,0.6986111111111111
451,0.006045589692765114,0.6993055555555555
452,0.0060951437066402376,0.6993055555555555
453,0.0060951437066402376,0.7
454,0.006210769739015527,0.7
455,0.006210769739015527,0.7006944444444444
456,0.006260323752890651,0.7006944444444444
457,0.0062933597621407334,0.7006944444444444
458,0.0062933597621407334,0.7013888888888888
459,0.006326395771390816,0.7013888888888888
460,0.006326395771390816,0.7034722222222223
461,0.006359431780640899,0.7034722222222223
462,0.006359431780640899,0.7048611111111112
463,0.006408985794516022,0.7048611111111112
464,0.006408985794516022,0.7055555555555556
465,0.006475057813016188,0.7055555555555556
466,0.006475057813016188,0.70625
467,0.00650809382226627,0.70625
468,0.00650809382226627,0.7069444444444445
469,0.0065741658407664355,0.7069444444444445
470,0.0065741658407664355,0.7076388888888889
471,0.006607201850016518,0.7076388888888889
472,0.006607201850016518,0.7083333333333334
473,0.006623719854641559,0.7083333333333334
474,0.006623719854641559,0.7090277777777778
475,0.006722827882391807,0.7090277777777778
476,0.006722827882391807,0.7097222222222223
477,0.0067723818962669305,0.7097222222222223
478,0.0067723818962669305,0.7104166666666667
479,0.006838453914767096,0.7104166666666667
480,0.006838453914767096,0.7111111111111111
481,0.006854971919392138,0.7111111111111111
482,0.006854971919392138,0.7118055555555556
483,0.006970597951767426,0.7118055555555556
484,0.006970597951767426,0.7131944444444445
485,0.006987115956392468,0.7131944444444445
486,0.006987115956392468,0.7138888888888889
487,0.007003633961017509,0.7138888888888889
488,0.007003633961017509,0.7152777777777778
489,0.007020151965642551,0.7152777777777778
490,0.007020151965642551,0.7159722222222222
491,0.007102741988767757,0.7159722222222222
492,0.007102741988767757,0.7166666666666667
493,0.007185332011892963,0.7166666666666667
494,0.007185332011892963,0.7173611111111111
495,0.0072514040303931285,0.7173611111111111
496,0.0072514040303931285,0.7180555555555556
497,0.00726792203501817,0.7180555555555556
498,0.00726792203501817,0.71875
499,0.007284440039643211,0.71875
500,0.007284440039643211,0.7194444444444444
501,0.007317476048893294,0.7194444444444444
502,0.007317476048893294,0.7201388888888889
503,0.007350512058143376,0.7201388888888889
504,0.007350512058143376,0.7208333333333333
505,0.007433102081268583,0.7208333333333333
506,0.007433102081268583,0.7222222222222222
507,0.007482656095143707,0.7222222222222222
508,0.007482656095143707,0.7229166666666667
509,0.007499174099768748,0.7229166666666667
510,0.00751569210439379,0.7236111111111111
511,0.0076313181367690785,0.7236111111111111
512,0.0076313181367690785,0.7243055555555555
513,0.007697390155269244,0.7243055555555555
514,0.007697390155269244,0.725
515,0.00791212421539478,0.725
516,0.00791212421539478,0.7256944444444444
517,0.007928642220019821,0.7256944444444444
518,0.007928642220019821,0.7263888888888889
519,0.007994714238519987,0.7263888888888889
520,0.007994714238519987,0.7270833333333333
521,0.008060786257020152,0.7270833333333333
522,0.008060786257020152,0.7284722222222222
523,0.008093822266270234,0.7284722222222222
524,0.008093822266270234,0.7298611111111111
525,0.008110340270895276,0.7298611111111111
526,0.008110340270895276,0.73125
527,0.008192930294020483,0.73125
528,0.008192930294020483,0.7319444444444444
529,0.008325074331020813,0.7319444444444444
530,0.008325074331020813,0.7326388888888888
531,0.008358110340270895,0.7326388888888888
532,0.008358110340270895,0.7333333333333333
533,0.008374628344895937,0.7333333333333333
534,0.008374628344895937,0.7340277777777777
535,0.008407664354146019,0.7340277777777777
536,0.008407664354146019,0.7354166666666667
537,0.008473736372646184,0.7354166666666667
538,0.008473736372646184,0.7368055555555556
539,0.008506772381896267,0.7368055555555556
540,0.008506772381896267,0.7375
541,0.008572844400396433,0.7375
542,0.008572844400396433,0.7381944444444445
543,0.008589362405021473,0.7381944444444445
544,0.008589362405021473,0.7388888888888889
545,0.008638916418896598,0.7388888888888889
546,0.008638916418896598,0.7395833333333334
547,0.00880409646514701,0.7395833333333334
548,0.00880409646514701,0.7402777777777778
549,0.009101420548397753,0.7402777777777778
550,0.009101420548397753,0.7409722222222223
551,0.009117938553022795,0.7409722222222223
552,0.009117938553022795,0.7416666666666667
553,0.009250082590023126,0.7416666666666667
554,0.009250082590023126,0.7423611111111111
555,0.009266600594648167,0.7423611111111111
556,0.009266600594648167,0.7430555555555556
557,0.009448298645523621,0.7430555555555556
558,0.009448298645523621,0.74375
559,0.00956392467789891,0.74375
560,0.009596960687148992,0.74375
561,0.0096795507102742,0.74375
562,0.009712586719524281,0.74375
563,0.009894284770399735,0.74375
564,0.009894284770399735,0.7444444444444445
565,0.009993392798149984,0.7444444444444445
566,0.009993392798149984,0.7472222222222222
567,0.010109018830525273,0.7472222222222222
568,0.010109018830525273,0.7479166666666667
569,0.01020812685827552,0.7479166666666667
570,0.01020812685827552,0.7486111111111111
571,0.010604558969276512,0.7486111111111111
572,0.010604558969276512,0.7493055555555556
573,0.010637594978526593,0.7493055555555556
574,0.010670630987776677,0.7493055555555556
575,0.0107201850016518,0.7493055555555556
576,0.0107201850016518,0.75
577,0.010753221010901884,0.75
578,0.010753221010901884,0.7506944444444444
579,0.010786257020151966,0.7506944444444444
580,0.010786257020151966,0.7520833333333333
581,0.010819293029402047,0.7520833333333333
582,0.010819293029402047,0.7527777777777778
583,0.010918401057152296,0.7527777777777778
584,0.010918401057152296,0.7534722222222222
585,0.010934919061777338,0.7534722222222222
586,0.010934919061777338,0.7541666666666667
587,0.011017509084902543,0.7541666666666667
588,0.011017509084902543,0.7555555555555555
589,0.011034027089527585,0.7555555555555555
590,0.011034027089527585,0.75625
591,0.01110009910802775,0.75625
592,0.01110009910802775,0.7569444444444444
593,0.011133135117277832,0.7569444444444444
594,0.011133135117277832,0.7576388888888889
595,0.011331351172778328,0.7576388888888889
596,0.011331351172778328,0.7583333333333333
597,0.011364387182028412,0.7583333333333333
598,0.011364387182028412,0.7590277777777777
599,0.011397423191278493,0.7590277777777777
600,0.011397423191278493,0.7604166666666666
601,0.011463495209778659,0.7604166666666666
602,0.011463495209778659,0.7611111111111111
603,0.011826891311529567,0.7611111111111111
604,0.01185992732077965,0.7611111111111111
605,0.011942517343904856,0.7611111111111111
606,0.011942517343904856,0.7618055555555555
607,0.012008589362405021,0.7618055555555555
608,0.012008589362405021,0.7625
609,0.012058143376280145,0.7625
610,0.012058143376280145,0.7631944444444444
611,0.012074661380905186,0.7631944444444444
612,0.012074661380905186,0.7638888888888888
613,0.012157251404030393,0.7638888888888888
614,0.012157251404030393,0.7645833333333333
615,0.012289395441030724,0.7645833333333333
616,0.012289395441030724,0.7652777777777777
617,0.012305913445655764,0.7652777777777777
618,0.012305913445655764,0.7659722222222223
619,0.012338949454905847,0.7659722222222223
620,0.012338949454905847,0.7666666666666667
621,0.012388503468780971,0.7666666666666667
622,0.012388503468780971,0.7673611111111112
623,0.012438057482656095,0.7673611111111112
624,0.012438057482656095,0.76875
625,0.012454575487281136,0.76875
626,0.012454575487281136,0.7694444444444445
627,0.012586719524281467,0.7694444444444445
628,0.012586719524281467,0.7701388888888889
629,0.012669309547406674,0.7701388888888889
630,0.012702345556656756,0.7701388888888889
631,0.012718863561281797,0.7701388888888889
632,0.012718863561281797,0.7708333333333334
633,0.012817971589032045,0.7708333333333334
634,0.012817971589032045,0.7715277777777778
635,0.012999669639907499,0.7715277777777778
636,0.012999669639907499,0.7722222222222223
637,0.013148331681532871,0.7722222222222223
638,0.013148331681532871,0.7729166666666667
639,0.013197885695407995,0.7729166666666667
640,0.013197885695407995,0.7736111111111111
641,0.013247439709283118,0.7736111111111111
642,0.013247439709283118,0.7743055555555556
643,0.013296993723158242,0.7743055555555556
644,0.013296993723158242,0.775
645,0.013379583746283449,0.775
646,0.013379583746283449,0.7756944444444445
647,0.01339610175090849,0.7756944444444445
648,0.01339610175090849,0.7770833333333333
649,0.013528245787908821,0.7770833333333333
650,0.013528245787908821,0.7777777777777778
651,0.013594317806408986,0.7777777777777778
652,0.013594317806408986,0.7784722222222222
653,0.013627353815659068,0.7784722222222222
654,0.013627353815659068,0.7791666666666667
655,0.01389164188965973,0.7791666666666667
656,0.01389164188965973,0.7798611111111111
657,0.013990749917409976,0.7798611111111111
658,0.013990749917409976,0.7805555555555556
659,0.014040303931285102,0.7805555555555556
660,0.014040303931285102,0.78125
661,0.014073339940535183,0.78125
662,0.014073339940535183,0.7819444444444444
663,0.014122893954410307,0.7819444444444444
664,0.014122893954410307,0.7833333333333333
665,0.014205483977535514,0.7833333333333333
666,0.014205483977535514,0.7840277777777778
667,0.014370664023785926,0.7840277777777778
668,0.014370664023785926,0.7847222222222222
669,0.01440370003303601,0.7847222222222222
670,0.01440370003303601,0.7854166666666667
671,0.014469772051536175,0.7854166666666667
672,0.014469772051536175,0.7861111111111111
673,0.014486290056161215,0.7861111111111111
674,0.014486290056161215,0.7875
675,0.01478361413941196,0.7875
676,0.014816650148662042,0.7875
677,0.014882722167162207,0.7875
678,0.014882722167162207,0.7881944444444444
679,0.014965312190287414,0.7881944444444444
680,0.014998348199537496,0.7881944444444444
681,0.014998348199537496,0.7888888888888889
682,0.015014866204162538,0.7888888888888889
683,0.01504790221341262,0.7888888888888889
684,0.015196564255037992,0.7888888888888889
685,0.015196564255037992,0.7895833333333333
686,0.015592996366038982,0.7895833333333333
687,0.015592996366038982,0.7902777777777777
688,0.015774694416914436,0.7902777777777777
689,0.015774694416914436,0.7916666666666666
690,0.016022464486290057,0.7916666666666666
691,0.016022464486290057,0.7923611111111111
692,0.016055500495540137,0.7923611111111111
693,0.016055500495540137,0.79375
694,0.01608853650479022,0.79375
695,0.01608853650479022,0.7944444444444444
696,0.016286752560290718,0.7944444444444444
697,0.016319788569540798,0.7944444444444444
698,0.016402378592666005,0.7944444444444444
699,0.016402378592666005,0.7958333333333333
700,0.01645193260654113,0.7958333333333333
701,0.01645193260654113,0.7965277777777777
702,0.016501486620416252,0.7965277777777777
703,0.016501486620416252,0.7972222222222223
704,0.016518004625041296,0.7972222222222223
705,0.016518004625041296,0.7986111111111112
706,0.01656755863891642,0.7986111111111112
707,0.01656755863891642,0.7993055555555556
708,0.01669970267591675,0.7993055555555556
709,0.01669970267591675,0.8
710,0.016732738685166833,0.8
711,0.016732738685166833,0.8006944444444445
712,0.016782292699041957,0.8006944444444445
713,0.016782292699041957,0.8013888888888889
714,0.016881400726792204,0.8013888888888889
715,0.016881400726792204,0.8027777777777778
716,0.016930954740667328,0.8027777777777778
717,0.016930954740667328,0.8034722222222223
718,0.01698050875454245,0.8034722222222223
719,0.01698050875454245,0.8041666666666667
720,0.017509084902543774,0.8041666666666667
721,0.017509084902543774,0.8048611111111111
722,0.01759167492566898,0.8048611111111111
723,0.01759167492566898,0.8055555555555556
724,0.017839444995044598,0.8055555555555556
725,0.017839444995044598,0.80625
726,0.01798810703666997,0.80625
727,0.01798810703666997,0.8069444444444445
728,0.018037661050545096,0.8069444444444445
729,0.018037661050545096,0.8076388888888889
730,0.018136769078295343,0.8076388888888889
731,0.018136769078295343,0.8083333333333333
732,0.01825239511067063,0.8083333333333333
733,0.01825239511067063,0.8090277777777778
734,0.018450611166171128,0.8090277777777778
735,0.018450611166171128,0.8097222222222222
736,0.01850016518004625,0.8097222222222222
737,0.01850016518004625,0.8111111111111111
738,0.018648827221671622,0.8111111111111111
739,0.018648827221671622,0.8118055555555556
740,0.019045259332672614,0.8118055555555556
741,0.019045259332672614,0.8125
742,0.01925999339279815,0.8125
743,0.01925999339279815,0.8131944444444444
744,0.019474727452923685,0.8131944444444444
745,0.019474727452923685,0.8138888888888889
746,0.019573835480673936,0.8138888888888889
747,0.019606871489924016,0.8138888888888889
748,0.01978856954079947,0.8138888888888889
749,0.01978856954079947,0.8145833333333333
750,0.019871159563924677,0.8145833333333333
751,0.019871159563924677,0.8152777777777778
752,0.019937231582424844,0.8152777777777778
753,0.019937231582424844,0.8159722222222222
754,0.02005285761480013,0.8159722222222222
755,0.02005285761480013,0.8166666666666667
756,0.02025107367030063,0.8166666666666667
757,0.02025107367030063,0.8173611111111111
758,0.020432771721176083,0.8173611111111111
759,0.020432771721176083,0.8180555555555555
760,0.02053187974892633,0.8180555555555555
761,0.02053187974892633,0.81875
762,0.02054839775355137,0.81875
763,0.02054839775355137,0.8194444444444444
764,0.020730095804426824,0.8194444444444444
765,0.020730095804426824,0.8201388888888889
766,0.02129170796167823,0.8201388888888889
767,0.02129170796167823,0.8215277777777777
768,0.021341261975553354,0.8215277777777777
769,0.021341261975553354,0.8229166666666666
770,0.021622068054179055,0.8229166666666666
771,0.021622068054179055,0.8236111111111111
772,0.021704658077304262,0.8236111111111111
773,0.021704658077304262,0.8243055555555555
774,0.021886356128179716,0.8243055555555555
775,0.021886356128179716,0.825
776,0.021902874132804756,0.825
777,0.021902874132804756,0.8256944444444444
778,0.021968946151304923,0.8256944444444444
779,0.022001982160555007,0.8256944444444444
780,0.022266270234555664,0.8256944444444444
781,0.022266270234555664,0.8270833333333333
782,0.022893954410307234,0.8270833333333333
783,0.022893954410307234,0.8277777777777777
784,0.022943508424182357,0.8277777777777777
785,0.022943508424182357,0.8284722222222223
786,0.0229600264288074,0.8284722222222223
787,0.0229600264288074,0.8291666666666667
788,0.02297654443343244,0.8291666666666667
789,0.02297654443343244,0.8305555555555556
790,0.023009580442682524,0.8305555555555556
791,0.023009580442682524,0.83125
792,0.023835480673934588,0.83125
793,0.023835480673934588,0.8319444444444445
794,0.023984142715559962,0.8319444444444445
795,0.023984142715559962,0.8326388888888889
796,0.02408325074331021,0.8326388888888889
797,0.02408325074331021,0.8333333333333334
798,0.024281466798810703,0.8333333333333334
799,0.024281466798810703,0.8347222222222223
800,0.02449620085893624,0.8347222222222223
801,0.024529236868186324,0.8347222222222223
802,0.024892632969937233,0.8347222222222223
803,0.024892632969937233,0.8354166666666667
804,0.025041295011562603,0.8354166666666667
805,0.025041295011562603,0.8361111111111111
806,0.02514040303931285,0.8361111111111111
807,0.02514040303931285,0.8368055555555556
808,0.02548728113643872,0.8368055555555556
809,0.02548728113643872,0.8375
810,0.025602907168814006,0.8375
811,0.025602907168814006,0.8381944444444445
812,0.025850677238189627,0.8381944444444445
813,0.025850677238189627,0.8388888888888889
814,0.02603237528906508,0.8388888888888889
815,0.026065411298315164,0.8388888888888889
816,0.026230591344565575,0.8388888888888889
817,0.026230591344565575,0.8395833333333333
818,0.026494879418566236,0.8395833333333333
819,0.026494879418566236,0.8402777777777778
820,0.02679220350181698,0.8402777777777778
821,0.02679220350181698,0.8409722222222222
822,0.02680872150644202,0.8409722222222222
823,0.02680872150644202,0.8416666666666667
824,0.026891311529567228,0.8416666666666667
825,0.026891311529567228,0.8423611111111111
826,0.026973901552692435,0.8423611111111111
827,0.02700693756194252,0.8423611111111111
828,0.027254707631318136,0.8423611111111111
829,0.027254707631318136,0.8430555555555556
830,0.027618103733069044,0.8430555555555556
831,0.027618103733069044,0.84375
832,0.028014535844070036,0.84375
833,0.028014535844070036,0.8444444444444444
834,0.028262305913445657,0.8444444444444444
835,0.028262305913445657,0.8451388888888889
836,0.02870829203832177,0.8451388888888889
837,0.02870829203832177,0.8458333333333333
838,0.02897258011232243,0.8458333333333333
839,0.02897258011232243,0.8465277777777778
840,0.029385530227948462,0.8465277777777778
841,0.029385530227948462,0.8479166666666667
842,0.029418566237198546,0.8479166666666667
843,0.02945160224644863,0.8479166666666667
844,0.02958374628344896,0.8479166666666667
845,0.02958374628344896,0.8486111111111111
846,0.029649818301949123,0.8486111111111111
847,0.029649818301949123,0.8493055555555555
848,0.029781962338949454,0.8493055555555555
849,0.029781962338949454,0.85
850,0.030178394449950446,0.85
851,0.03021143045920053,0.85
852,0.03022794846382557,0.85
853,0.03022794846382557,0.8506944444444444
854,0.03062438057482656,0.8506944444444444
855,0.03062438057482656,0.8513888888888889
856,0.030723488602576808,0.8513888888888889
857,0.030723488602576808,0.8520833333333333
858,0.030921704658077306,0.8520833333333333
859,0.030921704658077306,0.8527777777777777
860,0.031053848695077636,0.8527777777777777
861,0.031053848695077636,0.8534722222222222
862,0.03146679881070367,0.8534722222222222
863,0.03146679881070367,0.8541666666666666
864,0.03148331681532871,0.8541666666666666
865,0.03148331681532871,0.8548611111111111
866,0.031598942847703995,0.8548611111111111
867,0.031598942847703995,0.8555555555555555
868,0.03194582094482987,0.8555555555555555
869,0.03201189296333003,0.8555555555555555
870,0.032077964981830194,0.8555555555555555
871,0.032077964981830194,0.85625
872,0.032193591014205485,0.85625
873,0.032193591014205485,0.8569444444444444
874,0.03240832507433102,0.8569444444444444
875,0.03240832507433102,0.8576388888888888
876,0.03262305913445656,0.8576388888888888
877,0.03262305913445656,0.8583333333333333
878,0.03268913115295672,0.8583333333333333
879,0.03268913115295672,0.8590277777777777
880,0.03270564915758176,0.8590277777777777
881,0.032738685166831843,0.8590277777777777
882,0.032738685166831843,0.8597222222222223
883,0.0329203832177073,0.8597222222222223
884,0.0329203832177073,0.8604166666666667
885,0.03330029732408325,0.8604166666666667
886,0.03330029732408325,0.8618055555555556
887,0.033415923356458536,0.8618055555555556
888,0.033415923356458536,0.8625
889,0.033597621407333994,0.8625
890,0.033597621407333994,0.8631944444444445
891,0.033861909481334655,0.8631944444444445
892,0.033861909481334655,0.8638888888888889
893,0.03473736372646184,0.8638888888888889
894,0.03473736372646184,0.8645833333333334
895,0.03480343574496201,0.8645833333333334
896,0.03480343574496201,0.8652777777777778
897,0.03510075982821275,0.8652777777777778
898,0.03510075982821275,0.8659722222222223
899,0.03518334985133796,0.8659722222222223
900,0.03518334985133796,0.8666666666666667
901,0.035232903865213085,0.8666666666666667
902,0.035232903865213085,0.8673611111111111
903,0.03524942186983812,0.8673611111111111
904,0.03528245787908821,0.8673611111111111
905,0.03533201189296333,0.8673611111111111
906,0.03533201189296333,0.8680555555555556
907,0.03543111992071358,0.8680555555555556
908,0.03543111992071358,0.86875
909,0.03559629996696399,0.86875
910,0.03559629996696399,0.8694444444444445
911,0.03579451602246449,0.8694444444444445
912,0.03579451602246449,0.8701388888888889
913,0.035860588040964654,0.8701388888888889
914,0.035860588040964654,0.8708333333333333
915,0.036124876114965315,0.8708333333333333
916,0.036124876114965315,0.8715277777777778
917,0.03703336636934258,0.8715277777777778
918,0.03703336636934258,0.8722222222222222
919,0.03769408655434423,0.8722222222222222
920,0.03769408655434423,0.8729166666666667
921,0.03790882061446977,0.8729166666666667
922,0.03790882061446977,0.8736111111111111
923,0.03876775685497192,0.8736111111111111
924,0.03876775685497192,0.8743055555555556
925,0.039114634952097785,0.8743055555555556
926,0.039114634952097785,0.875
927,0.03946151304922366,0.875
928,0.03946151304922366,0.8756944444444444
929,0.04013875123885035,0.8756944444444444
930,0.04013875123885035,0.8763888888888889
931,0.04017178724810043,0.8763888888888889
932,0.04017178724810043,0.8770833333333333
933,0.04099768747935249,0.8770833333333333
934,0.04099768747935249,0.8777777777777778
935,0.04104724149322762,0.8777777777777778
936,0.041080277502477704,0.8777777777777778
937,0.041113313511727784,0.8777777777777778
938,0.041113313511727784,0.8784722222222222
939,0.04124545754872811,0.8784722222222222
940,0.04124545754872811,0.8791666666666667
941,0.04210439378923026,0.8791666666666667
942,0.04210439378923026,0.8798611111111111
943,0.04339279814998348,0.8798611111111111
944,0.04339279814998348,0.8805555555555555
945,0.04360753221010902,0.8805555555555555
946,0.04360753221010902,0.88125
947,0.043855302279484636,0.88125
948,0.043855302279484636,0.8819444444444444
949,0.044482986455236205,0.8819444444444444
950,0.044482986455236205,0.8826388888888889
951,0.0456392467789891,0.8826388888888889
952,0.0456392467789891,0.8833333333333333
953,0.04595308886686488,0.8833333333333333
954,0.04595308886686488,0.8840277777777777
955,0.046448629005616124,0.8840277777777777
956,0.046481665014866204,0.8840277777777777
957,0.04649818301949125,0.8840277777777777
958,0.04649818301949125,0.8847222222222222
959,0.046778989098116945,0.8847222222222222
960,0.046778989098116945,0.8854166666666666
961,0.04710934919061777,0.8854166666666666
962,0.04710934919061777,0.8861111111111111
963,0.04780310538486951,0.8861111111111111
964,0.04780310538486951,0.8868055555555555
965,0.04795176742649488,0.8868055555555555
966,0.04795176742649488,0.8875
967,0.04859596960687149,0.8875
968,0.04862900561612157,0.8875
969,0.0486785596299967,0.8875
970,0.0486785596299967,0.8881944444444444
971,0.04879418566237199,0.8881944444444444
972,0.04879418566237199,0.8888888888888888
973,0.04932276181037331,0.8888888888888888
974,0.04932276181037331,0.8895833333333333
975,0.04940535183349851,0.8895833333333333
976,0.04940535183349851,0.8902777777777777
977,0.05014866204162537,0.8902777777777777
978,0.05014866204162537,0.8909722222222223
979,0.05109018830525273,0.8909722222222223
980,0.05112322431450281,0.8909722222222223
981,0.05153617443012884,0.8909722222222223
982,0.05153617443012884,0.8916666666666667
983,0.05158572844400396,0.8916666666666667
984,0.05158572844400396,0.8923611111111112
985,0.05191608853650479,0.8923611111111112
986,0.05191608853650479,0.8930555555555556
987,0.053600925008259005,0.8930555555555556
988,0.053600925008259005,0.89375
989,0.053964321110009913,0.89375
990,0.053964321110009913,0.8944444444444445
991,0.053997357119259994,0.8944444444444445
992,0.053997357119259994,0.8951388888888889
993,0.05431119920713578,0.8951388888888889
994,0.05431119920713578,0.8958333333333334
995,0.05459200528576148,0.8958333333333334
996,0.05459200528576148,0.8965277777777778
997,0.05495540138751239,0.8965277777777778
998,0.05495540138751239,0.8972222222222223
999,0.05535183349851338,0.8972222222222223
1000,0.05535183349851338,0.8979166666666667
1001,0.05556656755863892,0.8979166666666667
1002,0.05556656755863892,0.8986111111111111
1003,0.055896927651139745,0.8986111111111111
1004,0.055929963660389825,0.8986111111111111
1005,0.05627684175751569,0.8986111111111111
1006,0.05630987776676578,0.8986111111111111
1007,0.056326395771390814,0.8993055555555556
1008,0.0568384539147671,0.8993055555555556
1009,0.0568384539147671,0.9
1010,0.05725140403039313,0.9
1011,0.05728444003964321,0.9
1012,0.05777998017839445,0.9
1013,0.05777998017839445,0.9006944444444445
1014,0.057961678229269904,0.9006944444444445
1015,0.057961678229269904,0.9013888888888889
1016,0.05857284440039643,0.9013888888888889
1017,0.05857284440039643,0.9020833333333333
1018,0.058589362405021474,0.9020833333333333
1019,0.058589362405021474,0.9027777777777778
1020,0.058622398414271554,0.9027777777777778
1021,0.058622398414271554,0.9034722222222222
1022,0.058771060455896924,0.9034722222222222
1023,0.058771060455896924,0.9041666666666667
1024,0.05913445655764784,0.9041666666666667
1025,0.05913445655764784,0.9048611111111111
1026,0.05921704658077304,0.9048611111111111
1027,0.05921704658077304,0.9055555555555556
1028,0.0596795507102742,0.9055555555555556
1029,0.0596795507102742,0.90625
1030,0.059861248761149656,0.90625
1031,0.059894284770399736,0.90625
1032,0.05991080277502478,0.90625
1033,0.05991080277502478,0.9069444444444444
1034,0.06062107697390155,0.9069444444444444
1035,0.06065411298315163,0.9069444444444444
1036,0.06075322101090188,0.9069444444444444
1037,0.06075322101090188,0.9076388888888889
1038,0.06342913776015857,0.9076388888888889
1039,0.06342913776015857,0.9083333333333333
1040,0.06359431780640899,0.9083333333333333
1041,0.06362735381565907,0.9083333333333333
1042,0.06389164188965973,0.9083333333333333
1043,0.06389164188965973,0.9090277777777778
1044,0.06442021803766106,0.9090277777777778
1045,0.06442021803766106,0.9097222222222222
1046,0.06501486620416254,0.9097222222222222
1047,0.06501486620416254,0.9104166666666667
1048,0.06522960026428808,0.9104166666666667
1049,0.06522960026428808,0.9111111111111111
1050,0.0671622068054179,0.9111111111111111
1051,0.0671622068054179,0.9118055555555555
1052,0.06816980508754543,0.9118055555555555
1053,0.06816980508754543,0.9125
1054,0.06845061116617113,0.9125
1055,0.06845061116617113,0.9131944444444444
1056,0.06930954740667328,0.9131944444444444
1057,0.06934258341592335,0.9131944444444444
1058,0.0696399074991741,0.9131944444444444
1059,0.0696399074991741,0.9145833333333333
1060,0.06982160555004956,0.9145833333333333
1061,0.06982160555004956,0.9152777777777777
1062,0.06997026759167492,0.9152777777777777
1063,0.06997026759167492,0.9159722222222222
1064,0.07015196564255038,0.9159722222222222
1065,0.07018500165180046,0.9159722222222222
1066,0.07021803766105054,0.9159722222222222
1067,0.07021803766105054,0.9166666666666666
1068,0.07063098777667658,0.9166666666666666
1069,0.07066402378592666,0.9166666666666666
1070,0.07091179385530227,0.9166666666666666
1071,0.07091179385530227,0.9180555555555555
1072,0.07104393789230261,0.9180555555555555
1073,0.07104393789230261,0.91875
1074,0.072398414271556,0.91875
1075,0.072398414271556,0.9194444444444444
1076,0.07261314833168153,0.9194444444444444
1077,0.07264618434093162,0.9194444444444444
1078,0.07381896266930955,0.9194444444444444
1079,0.07381896266930955,0.9201388888888888
1080,0.07629666336306574,0.9201388888888888
1081,0.07632969937231582,0.9201388888888888
1082,0.07727122563594317,0.9201388888888888
1083,0.07727122563594317,0.9208333333333333
1084,0.07786587380244467,0.9208333333333333
1085,0.07786587380244467,0.9222222222222223
1086,0.07945160224644864,0.9222222222222223
1087,0.07948463825569871,0.9222222222222223
1088,0.07964981830194913,0.9222222222222223
1089,0.07964981830194913,0.9229166666666667
1090,0.07978196233894945,0.9229166666666667
1091,0.07981499834819954,0.9229166666666667
1092,0.08087215064420218,0.9229166666666667
1093,0.08090518665345227,0.9229166666666667
1094,0.08126858275520317,0.9229166666666667
1095,0.08126858275520317,0.9236111111111112
1096,0.08141724479682855,0.9236111111111112
1097,0.08145028080607862,0.9236111111111112
1098,0.0829203832177073,0.9236111111111112
1099,0.08295341922695738,0.9236111111111112
1100,0.08338288734720846,0.9236111111111112
1101,0.08341592335645855,0.9236111111111112
1102,0.08364717542120911,0.9236111111111112
1103,0.08364717542120911,0.9243055555555556
1104,0.0872811364387182,0.9243055555555556
1105,0.0872811364387182,0.925
1106,0.08800792864222003,0.925
1107,0.08800792864222003,0.9256944444444445
1108,0.08807400066072019,0.9256944444444445
1109,0.08807400066072019,0.9263888888888889
1110,0.0892798149983482,0.9263888888888889
1111,0.0892798149983482,0.9270833333333334
1112,0.08934588701684837,0.9270833333333334
1113,0.08937892302609844,0.9270833333333334
1114,0.08959365708622398,0.9270833333333334
1115,0.08959365708622398,0.9277777777777778
1116,0.08964321110009911,0.9277777777777778
1117,0.08964321110009911,0.9284722222222223
1118,0.09121242153947803,0.9284722222222223
1119,0.09124545754872812,0.9284722222222223
1120,0.0912784935579782,0.9284722222222223
1121,0.0912784935579782,0.9291666666666667
1122,0.09233564585398084,0.9291666666666667
1123,0.09233564585398084,0.9298611111111111
1124,0.09238519986785597,0.9298611111111111
1125,0.09241823587710604,0.9298611111111111
1126,0.092798149983482,0.9298611111111111
1127,0.092798149983482,0.9305555555555556
1128,0.09380574826560951,0.9305555555555556
1129,0.0938387842748596,0.9305555555555556
1130,0.09402048232573505,0.9305555555555556
1131,0.09405351833498514,0.9305555555555556
1132,0.09539147670961348,0.9305555555555556
1133,0.09542451271886356,0.9305555555555556
1134,0.09550710274198877,0.9305555555555556
1135,0.09554013875123885,0.9305555555555556
1136,0.09621737694086555,0.9305555555555556
1137,0.09621737694086555,0.93125
1138,0.09661380905186653,0.93125
1139,0.09664684506111662,0.93125
1140,0.09808391146349521,0.93125
1141,0.0981169474727453,0.93125
1142,0.09833168153287083,0.93125
1143,0.09833168153287083,0.9319444444444445
1144,0.1010406342913776,0.9319444444444445
1145,0.1010406342913776,0.9326388888888889
1146,0.10109018830525272,0.9326388888888889
1147,0.10112322431450281,0.9326388888888889
1148,0.10163528245787909,0.9326388888888889
1149,0.10163528245787909,0.9333333333333333
1150,0.10292368681863232,0.9333333333333333
1151,0.10295672282788239,0.9333333333333333
1152,0.10322101090188306,0.9333333333333333
1153,0.10325404691113313,0.9333333333333333
1154,0.10335315493888338,0.9333333333333333
1155,0.10338619094813346,0.9333333333333333
1156,0.10391476709613479,0.9333333333333333
1157,0.10391476709613479,0.9340277777777778
1158,0.10421209117938553,0.9340277777777778
1159,0.10424512718863561,0.9340277777777778
1160,0.1065576478361414,0.9340277777777778
1161,0.10659068384539147,0.9340277777777778
1162,0.10906838453914768,0.9340277777777778
1163,0.10910142054839775,0.9340277777777778
1164,0.10934919061777337,0.9340277777777778
1165,0.10934919061777337,0.9347222222222222
1166,0.1097621407333994,0.9347222222222222
1167,0.1097621407333994,0.9354166666666667
1168,0.10997687479352494,0.9354166666666667
1169,0.11000991080277503,0.9354166666666667
1170,0.11017509084902544,0.9354166666666667
1171,0.11020812685827552,0.9354166666666667
1172,0.11116617112652792,0.9354166666666667
1173,0.11116617112652792,0.9361111111111111
1174,0.11138090518665346,0.9361111111111111
1175,0.11141394119590353,0.9361111111111111
1176,0.11184340931615461,0.9361111111111111
1177,0.11184340931615461,0.9368055555555556
1178,0.11266930954740667,0.9368055555555556
1179,0.11266930954740667,0.9375
1180,0.11270234555665676,0.9375
1181,0.11270234555665676,0.9381944444444444
1182,0.11351172778328378,0.9381944444444444
1183,0.11354476379253386,0.9381944444444444
1184,0.11377601585728445,0.9381944444444444
1185,0.11380905186653452,0.9381944444444444
1186,0.11465147010241163,0.9381944444444444
1187,0.11465147010241163,0.9388888888888889
1188,0.11488272216716221,0.9388888888888889
1189,0.11488272216716221,0.9395833333333333
1190,0.11496531219028741,0.9395833333333333
1191,0.11496531219028741,0.9402777777777778
1192,0.11673273868516683,0.9402777777777778
1193,0.11673273868516683,0.9409722222222222
1194,0.11755863891641889,0.9409722222222222
1195,0.11759167492566898,0.9409722222222222
1196,0.11858275520317146,0.9409722222222222
1197,0.11861579121242154,0.9409722222222222
1198,0.11873141724479683,0.9409722222222222
1199,0.11876445325404691,0.9409722222222222
1200,0.11917740336967295,0.9409722222222222
1201,0.11917740336967295,0.9416666666666667
1202,0.11983812355467459,0.9416666666666667
1203,0.11987115956392468,0.9416666666666667
1204,0.1200363396101751,0.9416666666666667
1205,0.1200363396101751,0.9423611111111111
1206,0.12258011232243145,0.9423611111111111
1207,0.12261314833168153,0.9423611111111111
1208,0.12340601255368351,0.9423611111111111
1209,0.1234390485629336,0.9423611111111111
1210,0.12479352494218698,0.9423611111111111
1211,0.12482656095143707,0.9423611111111111
1212,0.12603237528906508,0.9423611111111111
1213,0.12603237528906508,0.9430555555555555
1214,0.1270399735711926,0.9430555555555555
1215,0.12707300958044268,0.9430555555555555
1216,0.12801453584407005,0.9430555555555555
1217,0.12801453584407005,0.94375
1218,0.12849355797819623,0.94375
1219,0.12849355797819623,0.9444444444444444
1220,0.1290386521308226,0.9444444444444444
1221,0.12907168814007267,0.9444444444444444
1222,0.12936901222332342,0.9444444444444444
1223,0.12936901222332342,0.9451388888888889
1224,0.1310042946812025,0.9451388888888889
1225,0.1310042946812025,0.9458333333333333
1226,0.13146679881070367,0.9458333333333333
1227,0.13149983481995375,0.9458333333333333
1228,0.13186323092170465,0.9458333333333333
1229,0.13186323092170465,0.9465277777777777
1230,0.13189626693095474,0.9465277777777777
1231,0.13189626693095474,0.9472222222222222
1232,0.13250743310208127,0.9472222222222222
1233,0.13250743310208127,0.9479166666666666
1234,0.13372976544433432,0.9479166666666666
1235,0.1337628014535844,0.9479166666666666
1236,0.13422530558308557,0.9479166666666666
1237,0.13425834159233566,0.9479166666666666
1238,0.13465477370333664,0.9479166666666666
1239,0.13468780971258673,0.9479166666666666
1240,0.1347208457218368,0.9479166666666666
1241,0.1347208457218368,0.9486111111111111
1242,0.13477039973571192,0.9486111111111111
1243,0.13477039973571192,0.9493055555555555
1244,0.13600925008259002,0.9493055555555555
1245,0.13600925008259002,0.95
1246,0.13602576808721506,0.95
1247,0.13605880409646515,0.95
1248,0.1363561281797159,0.95
1249,0.1363561281797159,0.9506944444444444
1250,0.13766105054509414,0.9506944444444444
1251,0.13769408655434423,0.9506944444444444
1252,0.1381235546745953,0.9506944444444444
1253,0.1381235546745953,0.9520833333333333
1254,0.1405186653452263,0.9520833333333333
1255,0.1405186653452263,0.9527777777777777
1256,0.1409646514701024,0.9527777777777777
1257,0.14099768747935248,0.9527777777777777
1258,0.14159233564585397,0.9527777777777777
1259,0.14162537165510405,0.9527777777777777
1260,0.14525933267261315,0.9527777777777777
1261,0.14529236868186324,0.9527777777777777
1262,0.14585398083911463,0.9527777777777777
1263,0.14585398083911463,0.9534722222222223
1264,0.14587049884373968,0.9534722222222223
1265,0.14587049884373968,0.9541666666666667
1266,0.1477205153617443,0.9541666666666667
1267,0.1477205153617443,0.9548611111111112
1268,0.14886025768087216,0.9548611111111112
1269,0.14889329369012225,0.9548611111111112
1270,0.15004955401387512,0.9548611111111112
1271,0.1500825900231252,0.9548611111111112
1272,0.1501651800462504,0.9548611111111112
1273,0.1501982160555005,0.9548611111111112
1274,0.15089197224975223,0.9548611111111112
1275,0.15092500825900232,0.9548611111111112
1276,0.151189296333003,0.9548611111111112
1277,0.15122233234225305,0.9548611111111112
1278,0.15302279484638256,0.9548611111111112
1279,0.15305583085563265,0.9548611111111112
1280,0.15399735711926,0.9548611111111112
1281,0.15403039312851008,0.9548611111111112
1282,0.15475718533201188,0.9548611111111112
1283,0.15475718533201188,0.9555555555555556
1284,0.15589692765113974,0.9555555555555556
1285,0.15592996366038983,0.9555555555555556
1286,0.15626032375289065,0.9555555555555556
1287,0.15629335976214073,0.9555555555555556
1288,0.1586389164188966,0.9555555555555556
1289,0.1586389164188966,0.95625
1290,0.1594813346547737,0.95625
1291,0.1594813346547737,0.9569444444444445
1292,0.16034027089527586,0.9569444444444445
1293,0.16034027089527586,0.9576388888888889
1294,0.1614469772051536,0.9576388888888889
1295,0.1614800132144037,0.9576388888888889
1296,0.16199207135778,0.9576388888888889
1297,0.16202510736703007,0.9576388888888889
1298,0.16227287743640567,0.9576388888888889
1299,0.16230591344565576,0.9576388888888889
1300,0.16253716551040634,0.9576388888888889
1301,0.16257020151965643,0.9576388888888889
1302,0.16427155599603568,0.9576388888888889
1303,0.16430459200528577,0.9576388888888889
1304,0.16483316815328708,0.9576388888888889
1305,0.16486620416253717,0.9576388888888889
1306,0.16506442021803766,0.9576388888888889
1307,0.16506442021803766,0.9583333333333334
1308,0.16681532870829205,0.9583333333333334
1309,0.1668483647175421,0.9583333333333334
1310,0.16932606541129833,0.9583333333333334
1311,0.16932606541129833,0.9590277777777778
1312,0.16939213742979847,0.9590277777777778
1313,0.16942517343904856,0.9590277777777778
1314,0.1702841096795507,0.9590277777777778
1315,0.1703171456888008,0.9590277777777778
1316,0.17041625371655103,0.9590277777777778
1317,0.17044928972580112,0.9590277777777778
1318,0.17091179385530228,0.9590277777777778
1319,0.17091179385530228,0.9597222222222223
1320,0.17094482986455237,0.9597222222222223
1321,0.17102741988767756,0.9597222222222223
1322,0.17102741988767756,0.9604166666666667
1323,0.17117608192930295,0.9604166666666667
1324,0.17120911793855303,0.9604166666666667
1325,0.172001982160555,0.9604166666666667
1326,0.1720350181698051,0.9604166666666667
1327,0.17206805417905516,0.9604166666666667
1328,0.17210109018830524,0.9604166666666667
1329,0.17310868847043276,0.9604166666666667
1330,0.17314172447968285,0.9604166666666667
1331,0.17461182689131152,0.9604166666666667
1332,0.1746448629005616,0.9604166666666667
1333,0.1750412950115626,0.9604166666666667
1334,0.17507433102081268,0.9604166666666667
1335,0.1756854971919392,0.9604166666666667
1336,0.1756854971919392,0.9611111111111111
1337,0.17702345556656757,0.9611111111111111
1338,0.17705649157581765,0.9611111111111111
1339,0.17860918401057152,0.9611111111111111
1340,0.17860918401057152,0.9618055555555556
1341,0.17926990419557318,0.9618055555555556
1342,0.17930294020482326,0.9618055555555556
1343,0.18031053848695078,0.9618055555555556
1344,0.18031053848695078,0.9625
1345,0.1816815328708292,0.9625
1346,0.18171456888007928,0.9625
1347,0.1825569871159564,0.9625
1348,0.18262305913445656,0.9625
1349,0.18270564915758175,0.9625
1350,0.18270564915758175,0.9631944444444445
1351,0.1837132474397093,0.9631944444444445
1352,0.18374628344895935,0.9631944444444445
1353,0.1861248761149653,0.9631944444444445
1354,0.1861248761149653,0.9638888888888889
1355,0.18833828873472083,0.9638888888888889
1356,0.18837132474397092,0.9638888888888889
1357,0.18926329699372316,0.9638888888888889
1358,0.18929633300297324,0.9638888888888889
1359,0.189990089197225,0.9638888888888889
1360,0.19002312520647505,0.9638888888888889
1361,0.19061777337297656,0.9638888888888889
1362,0.19061777337297656,0.9645833333333333
1363,0.19074991740997688,0.9645833333333333
1364,0.19074991740997688,0.9652777777777778
1365,0.19238519986785596,0.9652777777777778
1366,0.19241823587710605,0.9652777777777778
1367,0.19248430789560622,0.9652777777777778
1368,0.19251734390485628,0.9652777777777778
1369,0.19580442682523952,0.9652777777777778
1370,0.19582094482986456,0.9659722222222222
1371,0.19773703336636933,0.9659722222222222
1372,0.19777006937561942,0.9659722222222222
1373,0.19857945160224644,0.9659722222222222
1374,0.19861248761149652,0.9659722222222222
1375,0.20080938222662703,0.9659722222222222
1376,0.20080938222662703,0.9666666666666667
1377,0.2012884043607532,0.9666666666666667
1378,0.2012884043607532,0.9673611111111111
1379,0.20209778658738026,0.9673611111111111
1380,0.20213082259663032,0.9673611111111111
1381,0.20297324083250742,0.9673611111111111
1382,0.20297324083250742,0.9680555555555556
1383,0.20305583085563264,0.9680555555555556
1384,0.20308886686488273,0.9680555555555556
1385,0.2032375289065081,0.9680555555555556
1386,0.20327056491575818,0.9680555555555556
1387,0.2033201189296333,0.9680555555555556
1388,0.2033531549388834,0.9680555555555556
1389,0.20348529897588372,0.9680555555555556
1390,0.2035183349851338,0.9680555555555556
1391,0.20429468120251074,0.9680555555555556
1392,0.20429468120251074,0.96875
1393,0.2045920052857615,0.96875
1394,0.20462504129501155,0.96875
1395,0.2050875454245127,0.96875
1396,0.2051205814337628,0.96875
1397,0.207598282127519,0.96875
1398,0.207598282127519,0.9694444444444444
1399,0.20920052857614801,0.9694444444444444
1400,0.20923356458539807,0.9694444444444444
1401,0.20933267261314834,0.9694444444444444
1402,0.20936570862239842,0.9694444444444444
1403,0.20982821275189958,0.9694444444444444
1404,0.20982821275189958,0.9701388888888889
1405,0.21124876114965313,0.9701388888888889
1406,0.21124876114965313,0.9715277777777778
1407,0.21238850346878096,0.9715277777777778
1408,0.21238850346878096,0.9722222222222222
1409,0.21319788569540798,0.9722222222222222
1410,0.21323092170465807,0.9722222222222222
1411,0.21470102411628675,0.9722222222222222
1412,0.21473406012553684,0.9722222222222222
1413,0.21542781631978858,0.9722222222222222
1414,0.21542781631978858,0.9729166666666667
1415,0.21630327056491575,0.9729166666666667
1416,0.21630327056491575,0.9736111111111111
1417,0.21653452262966633,0.9736111111111111
1418,0.2165675586389164,0.9736111111111111
1419,0.216798810703667,0.9736111111111111
1420,0.21683184671291708,0.9736111111111111
1421,0.21703006276841758,0.9736111111111111
1422,0.21706309877766766,0.9736111111111111
1423,0.2170796167822927,0.9736111111111111
1424,0.2171126527915428,0.9736111111111111
1425,0.2178064089857945,0.9736111111111111
1426,0.2178064089857945,0.9743055555555555
1427,0.22026759167492566,0.9743055555555555
1428,0.22030062768417574,0.9743055555555555
1429,0.2209613478691774,0.9743055555555555
1430,0.22099438387842749,0.9743055555555555
1431,0.22129170796167824,0.9743055555555555
1432,0.2213247439709283,0.9743055555555555
1433,0.2216385860588041,0.9743055555555555
1434,0.22165510406342914,0.975
1435,0.22201850016518004,0.975
1436,0.22205153617443013,0.975
1437,0.22246448629005616,0.975
1438,0.22249752229930625,0.975
1439,0.22329038652130823,0.975
1440,0.2233234225305583,0.975
1441,0.22471093491906177,0.975
1442,0.22474397092831186,0.975
1443,0.22690782953419228,0.975
1444,0.22694086554344234,0.975
1445,0.22695738354806738,0.975
1446,0.22697390155269243,0.9756944444444444
1447,0.22712256359431782,0.9756944444444444
1448,0.22715559960356788,0.9756944444444444
1449,0.22867525602907168,0.9756944444444444
1450,0.22870829203832177,0.9756944444444444
1451,0.22905517013544763,0.9756944444444444
1452,0.22908820614469771,0.9756944444444444
1453,0.22981499834819955,0.9756944444444444
1454,0.22984803435744963,0.9756944444444444
1455,0.23009580442682523,0.9756944444444444
1456,0.23009580442682523,0.9763888888888889
1457,0.2308391146349521,0.9763888888888889
1458,0.2308721506442022,0.9763888888888889
1459,0.237198546415593,0.9763888888888889
1460,0.23723158242484307,0.9763888888888889
1461,0.23782623059134456,0.9763888888888889
1462,0.23785926660059464,0.9763888888888889
1463,0.23856954079947143,0.9763888888888889
1464,0.23860257680872152,0.9763888888888889
1465,0.2401222332342253,0.9763888888888889
1466,0.2401222332342253,0.9770833333333333
1467,0.24192269573835481,0.9770833333333333
1468,0.2419557317476049,0.9770833333333333
1469,0.24256689791873143,0.9770833333333333
1470,0.24263296993723157,0.9770833333333333
1471,0.24334324413610836,0.9770833333333333
1472,0.24337628014535845,0.9770833333333333
1473,0.24478031053848695,0.9770833333333333
1474,0.24481334654773704,0.9770833333333333
1475,0.24699372315824247,0.9770833333333333
1476,0.24702675916749256,0.9770833333333333
1477,0.24748926329699372,0.9770833333333333
1478,0.2475222993062438,0.9770833333333333
1479,0.24767096134786917,0.9770833333333333
1480,0.24770399735711926,0.9770833333333333
1481,0.24922365378262307,0.9770833333333333
1482,0.24925668979187315,0.9770833333333333
1483,0.2501486620416254,0.9770833333333333
1484,0.2501816980508755,0.9770833333333333
1485,0.25067723818962667,0.9770833333333333
1486,0.25071027419887676,0.9770833333333333
1487,0.2508754542451272,0.9770833333333333
1488,0.2508754542451272,0.9777777777777777
1489,0.25130492236537827,0.9777777777777777
1490,0.25133795837462836,0.9777777777777777
1491,0.25150313842087874,0.9777777777777777
1492,0.25150313842087874,0.9784722222222222
1493,0.2525272547076313,0.9784722222222222
1494,0.2525602907168814,0.9784722222222222
1495,0.2537495870498844,0.9784722222222222
1496,0.25378262305913446,0.9784722222222222
1497,0.254013875123885,0.9784722222222222
1498,0.254013875123885,0.9791666666666666
1499,0.25650809382226625,0.9791666666666666
1500,0.25654112983151633,0.9791666666666666
1501,0.25939874463164847,0.9791666666666666
1502,0.25943178064089856,0.9791666666666666
1503,0.26169474727452924,0.9791666666666666
1504,0.2617277832837793,0.9791666666666666
1505,0.2624545754872811,0.9791666666666666
1506,0.2624545754872811,0.9798611111111111
1507,0.2627023455566568,0.9798611111111111
1508,0.2627023455566568,0.9805555555555555
1509,0.2630822596630327,0.9805555555555555
1510,0.2631152956722828,0.9805555555555555
1511,0.2651635282457879,0.9805555555555555
1512,0.2651635282457879,0.98125
1513,0.26552692434753883,0.98125
1514,0.26552692434753883,0.9819444444444444
1515,0.26633630657416585,0.9819444444444444
1516,0.26636934258341594,0.9819444444444444
1517,0.26651800462504127,0.9819444444444444
1518,0.26655104063429136,0.9819444444444444
1519,0.2670465807730426,0.9819444444444444
1520,0.2670796167822927,0.9819444444444444
1521,0.2677073009580443,0.9819444444444444
1522,0.2677403369672943,0.9819444444444444
1523,0.2684836471754212,0.9819444444444444
1524,0.2685166831846713,0.9819444444444444
1525,0.2685992732077965,0.9819444444444444
1526,0.2685992732077965,0.9826388888888888
1527,0.2692765113974232,0.9826388888888888
1528,0.2693095474066733,0.9826388888888888
1529,0.271605550049554,0.9826388888888888
1530,0.2716385860588041,0.9826388888888888
1531,0.27221671622068055,0.9826388888888888
1532,0.27224975222993064,0.9826388888888888
1533,0.2731747604889329,0.9826388888888888
1534,0.273207796498183,0.9826388888888888
1535,0.27533861909481333,0.9826388888888888
1536,0.27533861909481333,0.9833333333333333
1537,0.275602907168814,0.9833333333333333
1538,0.2756359431780641,0.9833333333333333
1539,0.27608192930294023,0.9833333333333333
1540,0.27611496531219026,0.9833333333333333
1541,0.2773042616451933,0.9833333333333333
1542,0.2773372976544433,0.9833333333333333
1543,0.2789065080938223,0.9833333333333333
1544,0.27893954410307237,0.9833333333333333
1545,0.27897258011232245,0.9833333333333333
1546,0.27900561612157254,0.9833333333333333
1547,0.28085563263957714,0.9833333333333333
1548,0.2808886686488272,0.9833333333333333
1549,0.28262305913445657,0.9833333333333333
1550,0.28265609514370665,0.9833333333333333
1551,0.28282127518995703,0.9833333333333333
1552,0.2828543111992071,0.9833333333333333
1553,0.283597621407334,0.9833333333333333
1554,0.28363065741658405,0.9833333333333333
1555,0.2836967294350842,0.9833333333333333
1556,0.2837297654443343,0.9833333333333333
1557,0.28389494549058475,0.9833333333333333
1558,0.28389494549058475,0.9840277777777777
1559,0.2842418235877106,0.9840277777777777
1560,0.2842418235877106,0.9847222222222223
1561,0.28501816980508754,0.9847222222222223
1562,0.28501816980508754,0.9854166666666667
1563,0.286802114304592,0.9854166666666667
1564,0.2868351503138421,0.9854166666666667
1565,0.2872646184340932,0.9854166666666667
1566,0.28729765444334326,0.9854166666666667
1567,0.2877106045589693,0.9854166666666667
1568,0.2877436405682194,0.9854166666666667
1569,0.2889990089197225,0.9854166666666667
1570,0.2889990089197225,0.9861111111111112
1571,0.29053518334985134,0.9861111111111112
1572,0.29053518334985134,0.9868055555555556
1573,0.291195903534853,0.9868055555555556
1574,0.291195903534853,0.9875
1575,0.29213742979848034,0.9875
1576,0.29217046580773043,0.9875
1577,0.2928477039973571,0.9875
1578,0.2928807400066072,0.9875
1579,0.29517674264948796,0.9875
1580,0.29520977865873804,0.9875
1581,0.2966138090518665,0.9875
1582,0.2966468450611166,0.9875
1583,0.29800132144037,0.9875
1584,0.2980343574496201,0.9875
1585,0.2993062438057483,0.9875
1586,0.29933927981499836,0.9875
1587,0.303187974892633,0.9875
1588,0.303187974892633,0.9881944444444445
1589,0.3038321770730096,0.9881944444444445
1590,0.30386521308225967,0.9881944444444445
1591,0.30469111331351173,0.9881944444444445
1592,0.3047241493227618,0.9881944444444445
1593,0.30604558969276513,0.9881944444444445
1594,0.3060786257020152,0.9881944444444445
1595,0.30713577799801783,0.9881944444444445
1596,0.3071688140072679,0.9881944444444445
1597,0.30721836802114305,0.9881944444444445
1598,0.30725140403039314,0.9881944444444445
1599,0.3091179385530228,0.9881944444444445
1600,0.30915097456227286,0.9881944444444445
1601,0.3125536835150314,0.9881944444444445
1602,0.31258671952428146,0.9881944444444445
1603,0.31298315163528245,0.9881944444444445
1604,0.31301618764453254,0.9881944444444445
1605,0.31407333994053516,0.9881944444444445
1606,0.31410637594978524,0.9881944444444445
1607,0.31488272216716223,0.9881944444444445
1608,0.31491575817641226,0.9881944444444445
1609,0.31742649487941854,0.9881944444444445
1610,0.31745953088866863,0.9881944444444445
1611,0.31782292699041953,0.9881944444444445
1612,0.3178559629996696,0.9881944444444445
1613,0.31816980508754544,0.9881944444444445
1614,0.31820284109679553,0.9881944444444445
1615,0.3186983812355467,0.9881944444444445
1616,0.3187314172447968,0.9881944444444445
1617,0.318797489263297,0.9881944444444445
1618,0.31883052527254707,0.9881944444444445
1619,0.3225305583085563,0.9881944444444445
1620,0.3225305583085563,0.9888888888888889
1621,0.3243145028080608,0.9888888888888889
1622,0.3243475388173109,0.9888888888888889
1623,0.32550379914106375,0.9888888888888889
1624,0.32553683515031384,0.9888888888888889
1625,0.3282788239180707,0.9888888888888889
1626,0.32831185992732076,0.9888888888888889
1627,0.32867525602907166,0.9888888888888889
1628,0.32870829203832175,0.9888888888888889
1629,0.33102081268582756,0.9888888888888889
1630,0.33105384869507765,0.9888888888888889
1631,0.3318797489263297,0.9888888888888889
1632,0.3319127849355798,0.9888888888888889
1633,0.3321605550049554,0.9888888888888889
1634,0.3321935910142055,0.9888888888888889
1635,0.3349686157912124,0.9888888888888889
1636,0.3350016518004625,0.9888888888888889
1637,0.33898249091509747,0.9888888888888889
1638,0.33901552692434755,0.9888888888888889
1639,0.33904856293359764,0.9888888888888889
1640,0.33908159894284773,0.9888888888888889
1641,0.3413941195903535,0.9888888888888889
1642,0.34142715559960357,0.9888888888888889
1643,0.34197224975222995,0.9888888888888889
1644,0.34200528576148004,0.9888888888888889
1645,0.34246778989098114,0.9888888888888889
1646,0.34250082590023123,0.9888888888888889
1647,0.3437396762471093,0.9888888888888889
1648,0.3437727122563594,0.9888888888888889
1649,0.34869507763462176,0.9888888888888889
1650,0.3487281136438718,0.9888888888888889
1651,0.3490419557317476,0.9888888888888889
1652,0.3490749917409977,0.9888888888888889
1653,0.35006607201850015,0.9888888888888889
1654,0.35009910802775024,0.9888888888888889
1655,0.35066072018500166,0.9888888888888889
1656,0.35069375619425175,0.9888888888888889
1657,0.3509580442682524,0.9888888888888889
1658,0.3509910802775025,0.9888888888888889
1659,0.35166831846712915,0.9888888888888889
1660,0.35170135447637924,0.9888888888888889
1661,0.3534357449620086,0.9888888888888889
1662,0.35346878097125867,0.9888888888888889
1663,0.3545424512718864,0.9888888888888889
1664,0.3545754872811364,0.9888888888888889
1665,0.356392467789891,0.9888888888888889
1666,0.35642550379914106,0.9888888888888889
1667,0.35730095804426826,0.9888888888888889
1668,0.35733399405351834,0.9888888888888889
1669,0.35806078625702015,0.9888888888888889
1670,0.35809382226627023,0.9888888888888889
1671,0.35905186653452265,0.9888888888888889
1672,0.35908490254377273,0.9888888888888889
1673,0.3593987446316485,0.9888888888888889
1674,0.3593987446316485,0.9895833333333334
1675,0.3597291047241493,0.9895833333333334
1676,0.3597621407333994,0.9895833333333334
1677,0.3617277832837793,0.9895833333333334
1678,0.3617608192930294,0.9895833333333334
1679,0.36427155599603567,0.9895833333333334
1680,0.36430459200528575,0.9895833333333334
1681,0.3646845061116617,0.9895833333333334
1682,0.3647175421209118,0.9895833333333334
1683,0.36529567228278825,0.9895833333333334
1684,0.36532870829203834,0.9895833333333334
1685,0.36650148662041626,0.9895833333333334
1686,0.36650148662041626,0.9902777777777778
1687,0.3677568549719194,0.9902777777777778
1688,0.3677898909811695,0.9902777777777778
1689,0.3714734060125537,0.9902777777777778
1690,0.37148992401717873,0.9909722222222223
1691,0.37248100429468123,0.9909722222222223
1692,0.37248100429468123,0.9916666666666667
1693,0.3754872811364387,0.9916666666666667
1694,0.3755203171456888,0.9916666666666667
1695,0.3758011232243145,0.9916666666666667
1696,0.3758341592335646,0.9916666666666667
1697,0.37966633630657415,0.9916666666666667
1698,0.37969937231582424,0.9916666666666667
1699,0.38171456888007926,0.9916666666666667
1700,0.38174760488932935,0.9916666666666667
1701,0.3826065411298315,0.9916666666666667
1702,0.3826395771390816,0.9916666666666667
1703,0.38295341922695736,0.9916666666666667
1704,0.38298645523620745,0.9916666666666667
1705,0.38657086223984144,0.9916666666666667
1706,0.3866038982490915,0.9916666666666667
1707,0.38822266270234557,0.9916666666666667
1708,0.38825569871159565,0.9916666666666667
1709,0.38865213082259664,0.9916666666666667
1710,0.38868516683184673,0.9916666666666667
1711,0.38876775685497195,0.9916666666666667
1712,0.388800792864222,0.9916666666666667
1713,0.3917575156921044,0.9916666666666667
1714,0.39179055170135446,0.9916666666666667
1715,0.39182358771060455,0.9916666666666667
1716,0.39185662371985464,0.9916666666666667
1717,0.3951602246448629,0.9916666666666667
1718,0.395193260654113,0.9916666666666667
1719,0.3965147010241163,0.9916666666666667
1720,0.3965477370333664,0.9916666666666667
1721,0.39671291707961676,0.9916666666666667
1722,0.39674595308886684,0.9916666666666667
1723,0.39737363726461844,0.9916666666666667
1724,0.3974066732738685,0.9916666666666667
1725,0.39778658738024447,0.9916666666666667
1726,0.39781962338949456,0.9916666666666667
1727,0.39810042946812024,0.9916666666666667
1728,0.39813346547737033,0.9916666666666667
1729,0.39897588371324744,0.9916666666666667
1730,0.3990089197224975,0.9916666666666667
1731,0.3990419557317476,0.9916666666666667
1732,0.3990749917409977,0.9916666666666667
1733,0.4039643211100099,0.9916666666666667
1734,0.40399735711926,0.9916666666666667
1735,0.40614469772051537,0.9916666666666667
1736,0.40617773372976546,0.9916666666666667
1737,0.40829203832177074,0.9916666666666667
1738,0.40832507433102083,0.9916666666666667
1739,0.41004294681202513,0.9916666666666667
1740,0.41007598282127516,0.9916666666666667
1741,0.41209117938553025,0.9916666666666667
1742,0.41212421539478034,0.9916666666666667
1743,0.4138916418896597,0.9916666666666667
1744,0.4139246778989098,0.9916666666666667
1745,0.4147670961347869,0.9916666666666667
1746,0.414800132144037,0.9916666666666667
1747,0.41486620416253717,0.9916666666666667
1748,0.41489924017178725,0.9916666666666667
1749,0.41833498513379586,0.9916666666666667
1750,0.41836802114304594,0.9916666666666667
1751,0.418780971258672,0.9916666666666667
1752,0.41881400726792206,0.9916666666666667
1753,0.4195242814667988,0.9916666666666667
1754,0.4195573174760489,0.9916666666666667
1755,0.4214899240171787,0.9916666666666667
1756,0.4215229600264288,0.9916666666666667
1757,0.4268417575156921,0.9916666666666667
1758,0.4268747935249422,0.9916666666666667
1759,0.42738685166831847,0.9916666666666667
1760,0.42741988767756856,0.9916666666666667
1761,0.4281301618764453,0.9916666666666667
1762,0.4281631978856954,0.9916666666666667
1763,0.42989758837132475,0.9916666666666667
1764,0.42989758837132475,0.9923611111111111
1765,0.4307234886025768,0.9923611111111111
1766,0.4307565246118269,0.9923611111111111
1767,0.4314007267922035,0.9923611111111111
1768,0.43143376280145357,0.9923611111111111
1769,0.4344730756524612,0.9923611111111111
1770,0.43450611166171127,0.9923611111111111
1771,0.43861909481334654,0.9923611111111111
1772,0.4386851668318467,0.9923611111111111
1773,0.4394119590353485,0.9923611111111111
1774,0.4394449950445986,0.9923611111111111
1775,0.4395606210769739,0.9923611111111111
1776,0.439593657086224,0.9923611111111111
1777,0.4401222332342253,0.9923611111111111
1778,0.44015526924347537,0.9923611111111111
1779,0.44129501156260326,0.9923611111111111
1780,0.44132804757185334,0.9923611111111111
1781,0.44146019160885364,0.9923611111111111
1782,0.4414932276181037,0.9923611111111111
1783,0.4421209117938553,0.9923611111111111
1784,0.4421539478031054,0.9923611111111111
1785,0.44263296993723156,0.9923611111111111
1786,0.44266600594648164,0.9923611111111111
1787,0.443194582094483,0.9923611111111111
1788,0.44322761810373307,0.9923611111111111
1789,0.4436736042286092,0.9923611111111111
1790,0.4437066402378593,0.9923611111111111
1791,0.44380574826560953,0.9923611111111111
1792,0.4438387842748596,0.9923611111111111
1793,0.4453584407003634,0.9923611111111111
1794,0.4453914767096135,0.9923611111111111
1795,0.4461678229269904,0.9923611111111111
1796,0.4462008589362405,0.9923611111111111
1797,0.44682854311199205,0.9923611111111111
1798,0.44686157912124214,0.9923611111111111
1799,0.4479187314172448,0.9923611111111111
1800,0.4479517674264949,0.9923611111111111
1801,0.44800132144037,0.9923611111111111
1802,0.4480343574496201,0.9923611111111111
1803,0.44975222993062436,0.9923611111111111
1804,0.44978526593987445,0.9923611111111111
1805,0.4505616121572514,0.9923611111111111
1806,0.45059464816650147,0.9923611111111111
1807,0.451602246448629,0.9923611111111111
1808,0.4516352824578791,0.9923611111111111
1809,0.45442682523951106,0.9923611111111111
1810,0.45445986124876114,0.9923611111111111
1811,0.45738354806739345,0.9923611111111111
1812,0.45741658407664354,0.9923611111111111
1813,0.45799471423852,0.9923611111111111
1814,0.4580277502477701,0.9923611111111111
1815,0.4592996366038983,0.9923611111111111
1816,0.4592996366038983,0.9930555555555556
1817,0.45974562272877434,0.9930555555555556
1818,0.45974562272877434,0.99375
1819,0.463594317806409,0.99375
1820,0.46362735381565906,0.99375
1821,0.46402378592666005,0.99375
1822,0.46402378592666005,0.9944444444444445
1823,0.4642715559960357,0.9944444444444445
1824,0.4643045920052858,0.9944444444444445
1825,0.46442021803766104,0.9944444444444445
1826,0.4644532540469111,0.9944444444444445
1827,0.4650313842087876,0.9944444444444445
1828,0.4650313842087876,0.9951388888888889
1829,0.46858275520317144,0.9951388888888889
1830,0.46861579121242153,0.9951388888888889
1831,0.46968946151304924,0.9951388888888889
1832,0.46972249752229933,0.9951388888888889
1833,0.4741658407664354,0.9951388888888889
1834,0.4741988767756855,0.9951388888888889
1835,0.4777337297654443,0.9951388888888889
1836,0.4777667657746944,0.9951388888888889
1837,0.4795672282788239,0.9951388888888889
1838,0.4795672282788239,0.9958333333333333
1839,0.479996696399075,0.9958333333333333
1840,0.4800297324083251,0.9958333333333333
1841,0.4801783944499504,0.9958333333333333
1842,0.4802114304592005,0.9958333333333333
1843,0.4811529567228279,0.9958333333333333
1844,0.48118599273207796,0.9958333333333333
1845,0.4830360092500826,0.9958333333333333
1846,0.4830690452593327,0.9958333333333333
1847,0.48321770730095803,0.9958333333333333
1848,0.4832507433102081,0.9958333333333333
1849,0.4850842418235877,0.9958333333333333
1850,0.4851172778328378,0.9958333333333333
1851,0.48541460191608854,0.9958333333333333
1852,0.4854476379253386,0.9958333333333333
1853,0.4856954079947142,0.9958333333333333
1854,0.4857284440039643,0.9958333333333333
1855,0.48982490915097454,0.9958333333333333
1856,0.48985794516022463,0.9958333333333333
1857,0.4971093491906178,0.9958333333333333
1858,0.49714238519986786,0.9958333333333333
1859,0.4974066732738685,0.9958333333333333
1860,0.4974397092831186,0.9958333333333333
1861,0.497604889329369,0.9958333333333333
1862,0.4976379253386191,0.9958333333333333
1863,0.49905847373637263,0.9958333333333333
1864,0.4990915097456227,0.9958333333333333
1865,0.5027254707631318,0.9958333333333333
1866,0.5027585067723819,0.9958333333333333
1867,0.502824578790882,0.9958333333333333
1868,0.5028576148001321,0.9958333333333333
1869,0.5064255037991411,0.9958333333333333
1870,0.5064585398083912,0.9958333333333333
1871,0.5070036339610176,0.9958333333333333
1872,0.5070366699702676,0.9958333333333333
1873,0.5094648166501486,0.9958333333333333
1874,0.5094978526593987,0.9958333333333333
1875,0.512421539478031,0.9958333333333333
1876,0.5124545754872811,0.9958333333333333
1877,0.5151800462504129,0.9958333333333333
1878,0.515213082259663,0.9958333333333333
1879,0.5173769408655434,0.9958333333333333
1880,0.5174099768747935,0.9958333333333333
1881,0.5177073009580443,0.9958333333333333
1882,0.5177403369672944,0.9958333333333333
1883,0.5198216055500495,0.9958333333333333
1884,0.5198546415592996,0.9958333333333333
1885,0.5201850016518005,0.9958333333333333
1886,0.5202180376610506,0.9958333333333333
1887,0.5240997687479353,0.9958333333333333
1888,0.5241328047571854,0.9958333333333333
1889,0.5241988767756856,0.9958333333333333
1890,0.5242319127849355,0.9958333333333333
1891,0.5286091840105716,0.9958333333333333
1892,0.5286422200198216,0.9958333333333333
1893,0.5312851007598283,0.9958333333333333
1894,0.5313181367690782,0.9958333333333333
1895,0.5329699372315825,0.9958333333333333
1896,0.5330029732408325,0.9958333333333333
1897,0.5351503138420879,0.9958333333333333
1898,0.535183349851338,0.9958333333333333
1899,0.535612817971589,0.9958333333333333
1900,0.535612817971589,0.9965277777777778
1901,0.5394780310538487,0.9965277777777778
1902,0.5395110670630988,0.9965277777777778
1903,0.5415262636273538,0.9965277777777778
1904,0.5415592996366039,0.9965277777777778
1905,0.5442186983812356,0.9965277777777778
1906,0.5442517343904856,0.9965277777777778
1907,0.5448463825569871,0.9965277777777778
1908,0.5448794185662372,0.9965277777777778
1909,0.5500660720185002,0.9965277777777778
1910,0.5500991080277502,0.9965277777777778
1911,0.5502808060786257,0.9965277777777778
1912,0.5503138420878758,0.9965277777777778
1913,0.5515031384208787,0.9965277777777778
1914,0.5515526924347539,0.9965277777777778
1915,0.5561612157251404,0.9965277777777778
1916,0.5561942517343905,0.9965277777777778
1917,0.5567723818962669,0.9965277777777778
1918,0.556805417905517,0.9965277777777778
1919,0.5569045259332672,0.9965277777777778
1920,0.5569375619425173,0.9965277777777778
1921,0.5571192599933928,0.9965277777777778
1922,0.5571522960026429,0.9965277777777778
1923,0.5574661380905187,0.9965277777777778
1924,0.5574661380905187,0.9972222222222222
1925,0.5590683845391476,0.9972222222222222
1926,0.5591014205483977,0.9972222222222222
1927,0.5594152626362735,0.9972222222222222
1928,0.5594482986455236,0.9972222222222222
1929,0.5632804757185332,0.9972222222222222
1930,0.5633135117277833,0.9972222222222222
1931,0.5635282457879088,0.9972222222222222
1932,0.5635612817971589,0.9972222222222222
1933,0.5637264618434094,0.9972222222222222
1934,0.5637594978526594,0.9972222222222222
1935,0.5648496861579121,0.9972222222222222
1936,0.5648827221671622,0.9972222222222222
1937,0.5651635282457879,0.9972222222222222
1938,0.565196564255038,0.9972222222222222
1939,0.56602246448629,0.9972222222222222
1940,0.5660555004955401,0.9972222222222222
1941,0.5670961347869178,0.9972222222222222
1942,0.5671291707961679,0.9972222222222222
1943,0.5676081929302941,0.9972222222222222
1944,0.5676081929302941,0.9979166666666667
1945,0.5680872150644202,0.9979166666666667
1946,0.5681202510736703,0.9979166666666667
1947,0.5682028410967955,0.9979166666666667
1948,0.5682358771060456,0.9979166666666667
1949,0.5683515031384209,0.9979166666666667
1950,0.568384539147671,0.9979166666666667
1951,0.5690287413280476,0.9979166666666667
1952,0.5690617773372977,0.9979166666666667
1953,0.5694912454575487,0.9979166666666667
1954,0.5695242814667988,0.9979166666666667
1955,0.5698050875454245,0.9979166666666667
1956,0.5698381235546746,0.9979166666666667
1957,0.5701850016518004,0.9979166666666667
1958,0.5702180376610505,0.9979166666666667
1959,0.5729269904195573,0.9979166666666667
1960,0.5729600264288074,0.9979166666666667
1961,0.5729765444334325,0.9979166666666667
1962,0.5730095804426826,0.9979166666666667
1963,0.5734555665675587,0.9979166666666667
1964,0.5734886025768087,0.9979166666666667
1965,0.5739180706970598,0.9979166666666667
1966,0.5739511067063099,0.9979166666666667
1967,0.5742979848034357,0.9979166666666667
1968,0.5743310208126858,0.9979166666666667
1969,0.5777502477700693,0.9979166666666667
1970,0.5777502477700693,0.9986111111111111
1971,0.5778328377931946,0.9986111111111111
1972,0.5778658738024447,0.9986111111111111
1973,0.5783614139411959,0.9986111111111111
1974,0.578394449950446,0.9986111111111111
1975,0.5796498183019492,0.9986111111111111
1976,0.5796828543111993,0.9986111111111111
1977,0.5800462504129501,0.9986111111111111
1978,0.5800792864222002,0.9986111111111111
1979,0.5816650148662041,0.9986111111111111
1980,0.5816980508754542,0.9986111111111111
1981,0.5818632309217047,0.9986111111111111
1982,0.5818962669309548,0.9986111111111111
1983,0.5825239511067063,0.9986111111111111
1984,0.5825569871159564,0.9986111111111111
1985,0.5829534192269574,0.9986111111111111
1986,0.5829864552362075,0.9986111111111111
1987,0.5836471754212091,0.9986111111111111
1988,0.5836802114304592,0.9986111111111111
1989,0.5861744301288404,0.9986111111111111
1990,0.5862074661380905,0.9986111111111111
1991,0.5869177403369673,0.9986111111111111
1992,0.5869507763462174,0.9986111111111111
1993,0.5878592666005946,0.9986111111111111
1994,0.5878923026098447,0.9986111111111111
1995,0.5891641889659729,0.9986111111111111
1996,0.589197224975223,0.9986111111111111
1997,0.5910472414932276,0.9986111111111111
1998,0.5910802775024777,0.9986111111111111
1999,0.5919887677568549,0.9986111111111111
2000,0.592021803766105,0.9986111111111111
2001,0.5924182358771061,0.9986111111111111
2002,0.5924512718863562,0.9986111111111111
2003,0.5925834159233565,0.9986111111111111
2004,0.5926164519326066,0.9986111111111111
2005,0.5941361083581104,0.9986111111111111
2006,0.5941691443673605,0.9986111111111111
2007,0.5942682523951107,0.9986111111111111
2008,0.5943012884043608,0.9986111111111111
2009,0.5946151304922366,0.9986111111111111
2010,0.5946481665014867,0.9986111111111111
2011,0.5978196233894946,0.9986111111111111
2012,0.5978526593987447,0.9986111111111111
2013,0.5984803435744962,0.9986111111111111
2014,0.5985133795837463,0.9986111111111111
2015,0.6001321440370003,0.9986111111111111
2016,0.6001651800462504,0.9986111111111111
2017,0.6002312520647506,0.9986111111111111
2018,0.6002642880740007,0.9986111111111111
2019,0.6006607201850016,0.9986111111111111
2020,0.6006937561942517,0.9986111111111111
2021,0.6010241162867526,0.9986111111111111
2022,0.6010571522960027,0.9986111111111111
2023,0.6023125206475057,0.9986111111111111
2024,0.6023455566567558,0.9986111111111111
2025,0.6026098447307565,0.9986111111111111
2026,0.6026428807400066,0.9986111111111111
2027,0.6047902213412619,0.9986111111111111
2028,0.604823257350512,0.9986111111111111
2029,0.6050214734060125,0.9986111111111111
2030,0.6050545094152626,0.9986111111111111
2031,0.6065246118268913,0.9986111111111111
2032,0.6065576478361414,0.9986111111111111
2033,0.6073339940535183,0.9986111111111111
2034,0.6073670300627684,0.9986111111111111
2035,0.6098116947472745,0.9986111111111111
2036,0.6098447307565246,0.9986111111111111
2037,0.6158572844400396,0.9986111111111111
2038,0.6158903204492897,0.9986111111111111
2039,0.6166997026759168,0.9986111111111111
2040,0.6167327386851669,0.9986111111111111
2041,0.6180376610505451,0.9986111111111111
2042,0.6180706970597952,0.9986111111111111
2043,0.6181532870829204,0.9986111111111111
2044,0.6181863230921705,0.9986111111111111
2045,0.6189957053187974,0.9986111111111111
2046,0.6190287413280475,0.9986111111111111
2047,0.6190452593326726,0.9986111111111111
2048,0.6190782953419227,0.9986111111111111
2049,0.6191113313511728,0.9986111111111111
2050,0.6191113313511728,0.9993055555555556
2051,0.6194582094482987,0.9993055555555556
2052,0.6194912454575487,0.9993055555555556
2053,0.6209778658738024,0.9993055555555556
2054,0.6210109018830525,0.9993055555555556
2055,0.6211265279154278,0.9993055555555556
2056,0.6211595639246779,0.9993055555555556
2057,0.6257020151965642,0.9993055555555556
2058,0.6257350512058143,0.9993055555555556
2059,0.6260158572844401,0.9993055555555556
2060,0.6260488932936901,0.9993055555555556
2061,0.6265279154278163,0.9993055555555556
2062,0.6265609514370664,0.9993055555555556
2063,0.6273042616451933,0.9993055555555556
2064,0.6273372976544433,0.9993055555555556
2065,0.6275189957053188,0.9993055555555556
2066,0.6275520317145689,0.9993055555555556
2067,0.6291542781631979,0.9993055555555556
2068,0.629187314172448,0.9993055555555556
2069,0.6296993723158243,0.9993055555555556
2070,0.6297324083250744,0.9993055555555556
2071,0.6301783944499505,0.9993055555555556
2072,0.6302114304592006,0.9993055555555556
2073,0.6307234886025768,0.9993055555555556
2074,0.6307565246118269,0.9993055555555556
2075,0.6308886686488272,0.9993055555555556
2076,0.6309217046580773,0.9993055555555556
2077,0.6367525602907169,0.9993055555555556
2078,0.636785596299967,0.9993055555555556
2079,0.636802114304592,0.9993055555555556
2080,0.6368351503138421,0.9993055555555556
2081,0.6368847043277173,0.9993055555555556
2082,0.6369177403369672,0.9993055555555556
2083,0.6381896266930954,0.9993055555555556
2084,0.6382226627023455,0.9993055555555556
2085,0.6401552692434754,0.9993055555555556
2086,0.6401883052527255,0.9993055555555556
2087,0.6409150974562273,0.9993055555555556
2088,0.6409481334654774,0.9993055555555556
2089,0.6421209117938553,0.9993055555555556
2090,0.6421539478031054,0.9993055555555556
2091,0.6423521638586058,0.9993055555555556
2092,0.6423851998678559,0.9993055555555556
2093,0.64400396432111,0.9993055555555556
2094,0.64403700033036,0.9993055555555556
2095,0.6448794185662372,0.9993055555555556
2096,0.6449124545754873,0.9993055555555556
2097,0.6471423851998679,0.9993055555555556
2098,0.647175421209118,0.9993055555555556
2099,0.6486124876114965,0.9993055555555556
2100,0.6486455236207466,0.9993055555555556
2101,0.6493723158242485,0.9993055555555556
2102,0.6494053518334986,0.9993055555555556
2103,0.6494879418566237,0.9993055555555556
2104,0.6495209778658738,0.9993055555555556
2105,0.6502973240832507,0.9993055555555556
2106,0.6503303600925008,0.9993055555555556
2107,0.6516683184671291,0.9993055555555556
2108,0.6517013544763792,0.9993055555555556
2109,0.6528245787908821,0.9993055555555556
2110,0.6528245787908821,1.0
2111,0.6590353485298975,1.0
2112,0.6590683845391476,1.0
2113,0.6610175090849025,1.0
2114,0.6610505450941526,1.0
2115,0.6612817971589032,1.0
2116,0.6613148331681533,1.0
2117,0.6633795837462835,1.0
2118,0.6634126197555336,1.0
2119,0.6651470102411629,1.0
2120,0.6651800462504129,1.0
2121,0.6664684506111662,1.0
2122,0.6665014866204163,1.0
2123,0.6668814007267923,1.0
2124,0.6669144367360423,1.0
2125,0.6670961347869178,1.0
2126,0.6671291707961678,1.0
2127,0.6683019491245458,1.0
2128,0.6683349851337959,1.0
2129,0.6736372646184341,1.0
2130,0.6737033366369343,1.0
2131,0.6744136108358111,1.0
2132,0.6744466468450612,1.0
2133,0.6748430789560621,1.0
2134,0.6748761149653122,1.0
2135,0.6761975553353154,1.0
2136,0.6762305913445655,1.0
2137,0.6772877436405682,1.0
2138,0.6773207796498183,1.0
2139,0.6814998348199538,1.0
2140,0.6815328708292039,1.0
2141,0.6823752890650809,1.0
2142,0.682408325074331,1.0
2143,0.6846052196894615,1.0
2144,0.6846382556987116,1.0
2145,0.684786917740337,1.0
2146,0.684819953749587,1.0
2147,0.6857449620085894,1.0
2148,0.6857779980178395,1.0
2149,0.6863230921704658,1.0
2150,0.6863561281797159,1.0
2151,0.687182028410968,1.0
2152,0.6872150644202181,1.0
2153,0.688024446646845,1.0
2154,0.6880574826560951,1.0
2155,0.6882887347208457,1.0
2156,0.6883217707300958,1.0
2157,0.6884539147670962,1.0
2158,0.6884869507763463,1.0
2159,0.6889990089197225,1.0
2160,0.6890320449289726,1.0
2161,0.6891476709613479,1.0
2162,0.689180706970598,1.0
2163,0.6893954410307235,1.0
2164,0.6894284770399736,1.0
2165,0.6898414271555996,1.0
2166,0.6898744631648497,1.0
2167,0.6902213412619755,1.0
2168,0.6902543772712256,1.0
2169,0.6938883382887348,1.0
2170,0.6939213742979848,1.0
2171,0.6981830194912455,1.0
2172,0.6982160555004956,1.0
2173,0.6984473075652461,1.0
2174,0.6984803435744962,1.0
2175,0.6993227618103733,1.0
2176,0.6993557978196234,1.0
2177,0.7003799141063759,1.0
2178,0.700412950115626,1.0
2179,0.7008589362405021,1.0
2180,0.7008919722497522,1.0
2181,0.702395110670631,1.0
2182,0.7024281466798811,1.0
2183,0.7025272547076313,1.0
2184,0.7025602907168814,1.0
2185,0.7038652130822597,1.0
2186,0.7038982490915098,1.0
2187,0.7089857945160225,1.0
2188,0.7090188305252726,1.0
2189,0.7109514370664024,1.0
2190,0.7109844730756525,1.0
2191,0.711215725140403,1.0
2192,0.7112487611496531,1.0
2193,0.7116451932606541,1.0
2194,0.7116782292699042,1.0
2195,0.7124710934919062,1.0
2196,0.7125041295011563,1.0
2197,0.7132309217046581,1.0
2198,0.7132639577139082,1.0
2199,0.7133795837462834,1.0
2200,0.7134126197555335,1.0
2201,0.7143376280145358,1.0
2202,0.7143706640237859,1.0
2203,0.7156590683845392,1.0
2204,0.7156921043937893,1.0
2205,0.7165014866204162,1.0
2206,0.7165345226296663,1.0
2207,0.7170135447637925,1.0
2208,0.7170465807730426,1.0
2209,0.7175586389164189,1.0
2210,0.717591674925669,1.0
2211,0.7209613478691774,1.0
2212,0.7209943838784275,1.0
2213,0.7212751899570532,1.0
2214,0.7213082259663033,1.0
2215,0.7222001982160555,1.0
2216,0.7222332342253056,1.0
2217,0.7228609184010572,1.0
2218,0.7228939544103072,1.0
2219,0.7241823587710604,1.0
2220,0.7242153947803105,1.0
2221,0.7268913115295672,1.0
2222,0.7269243475388173,1.0
2223,0.7281136438718203,1.0
2224,0.7281466798810704,1.0
2225,0.7320449289725801,1.0
2226,0.7320779649818302,1.0
2227,0.7323092170465808,1.0
2228,0.7323422530558309,1.0
2229,0.7327386851668318,1.0
2230,0.7327717211760819,1.0
2231,0.7336967294350842,1.0
2232,0.7337297654443343,1.0
2233,0.7379088206144697,1.0
2234,0.7379418566237198,1.0
2235,0.7383548067393458,1.0
2236,0.7383878427485959,1.0
2237,0.7394119590353485,1.0
2238,0.7394449950445986,1.0
2239,0.7414436736042286,1.0
2240,0.7414767096134787,1.0
2241,0.7416418896597291,1.0
2242,0.7416749256689792,1.0
2243,0.7436901222332343,1.0
2244,0.7437231582424844,1.0
2245,0.745176742649488,1.0
2246,0.745209778658738,1.0
2247,0.7468450611166171,1.0
2248,0.7468780971258672,1.0
2249,0.7477700693756194,1.0
2250,0.7478031053848695,1.0
2251,0.7492897258011232,1.0
2252,0.7493227618103733,1.0
2253,0.7498183019491246,1.0
2254,0.7498513379583747,1.0
2255,0.7515031384208788,1.0
2256,0.7515361744301289,1.0
2257,0.7516848364717542,1.0
2258,0.7517178724810043,1.0
2259,0.7518169805087546,1.0
2260,0.7518500165180046,1.0
2261,0.7538982490915097,1.0
2262,0.7539312851007598,1.0
2263,0.7567063098777668,1.0
2264,0.7567393458870169,1.0
2265,0.760439378923026,1.0
2266,0.7604724149322761,1.0
2267,0.7608853650479022,1.0
2268,0.7609184010571522,1.0
2269,0.7633630657416584,1.0
2270,0.7633961017509084,1.0
2271,0.764403700033036,1.0
2272,0.7644367360422861,1.0
2273,0.765196564255038,1.0
2274,0.7652296002642881,1.0
2275,0.7732573505120581,1.0
2276,0.7732903865213082,1.0
2277,0.7761645193260654,1.0
2278,0.7761975553353155,1.0
2279,0.7777172117608193,1.0
2280,0.7777502477700694,1.0
2281,0.7798480343574496,1.0
2282,0.7798810703666997,1.0
2283,0.7803105384869508,1.0
2284,0.7803435744962008,1.0
2285,0.7806078625702015,1.0
2286,0.7806408985794516,1.0
2287,0.7820118929633301,1.0
2288,0.7820449289725802,1.0
2289,0.7827552031714569,1.0
2290,0.782788239180707,1.0
2291,0.7841592335645854,1.0
2292,0.7841922695738355,1.0
2293,0.7849520977865874,1.0
2294,0.7849851337958375,1.0
2295,0.789990089197225,1.0
2296,0.7900231252064751,1.0
2297,0.7904856293359762,1.0
2298,0.7905186653452263,1.0
2299,0.7919722497522299,1.0
2300,0.79200528576148,1.0
2301,0.7941195903534853,1.0
2302,0.7941526263627354,1.0
2303,0.7942682523951107,1.0
2304,0.7943012884043608,1.0
2305,0.7945986124876115,1.0
2306,0.7946316484968616,1.0
2307,0.7957218368021143,1.0
2308,0.7957548728113644,1.0
2309,0.795986124876115,1.0
2310,0.7960191608853651,1.0
2311,0.7968450611166171,1.0
2312,0.7968780971258672,1.0
2313,0.8002973240832507,1.0
2314,0.8003303600925008,1.0
2315,0.8003468780971259,1.0
2316,0.800379914106376,1.0
2317,0.8017013544763792,1.0
2318,0.8017343904856293,1.0
2319,0.8018004625041295,1.0
2320,0.8018334985133796,1.0
2321,0.8031053848695078,1.0
2322,0.8031384208787579,1.0
2323,0.8034027089527586,1.0
2324,0.8034357449620085,1.0
2325,0.8035348529897588,1.0
2326,0.8035678889990089,1.0
2327,0.8047076313181367,1.0
2328,0.8047406673273868,1.0
2329,0.8050049554013875,1.0
2330,0.8050379914106376,1.0
2331,0.806012553683515,1.0
2332,0.8060455896927651,1.0
2333,0.8061281797158903,1.0
2334,0.8061942517343905,1.0
2335,0.8070862239841428,1.0
2336,0.8071192599933928,1.0
2337,0.8099603567888999,1.0
2338,0.80999339279815,1.0
2339,0.8102081268582755,1.0
2340,0.8102411628675256,1.0
2341,0.8106375949785266,1.0
2342,0.8106706309877767,1.0
2343,0.8107036669970268,1.0
2344,0.8107367030062769,1.0
2345,0.8112322431450281,1.0
2346,0.8112652791542782,1.0
2347,0.814007267922035,1.0
2348,0.8140403039312851,1.0
2349,0.8140568219359101,1.0
2350,0.8140898579451602,1.0
2351,0.8147505781301618,1.0
2352,0.8147836141394119,1.0
2353,0.8180211430459201,1.0
2354,0.8180541790551701,1.0
2355,0.818401057152296,1.0
2356,0.8184340931615461,1.0
2357,0.8190782953419227,1.0
2358,0.8191113313511728,1.0
2359,0.8211100099108027,1.0
2360,0.8211430459200528,1.0
2361,0.8216551040634291,1.0
2362,0.8216881400726792,1.0
2363,0.8223323422530558,1.0
2364,0.8223653782623059,1.0
2365,0.8230921704658077,1.0
2366,0.8231252064750578,1.0
2367,0.8280310538486951,1.0
2368,0.8280640898579451,1.0
2369,0.8290716881400727,1.0
2370,0.8291047241493228,1.0
2371,0.8341261975553353,1.0
2372,0.8341922695738355,1.0
2373,0.8386521308225966,1.0
2374,0.8386851668318467,1.0
2375,0.8390981169474727,1.0
2376,0.8391311529567228,1.0
2377,0.8396597291047242,1.0
2378,0.8396927651139743,1.0
2379,0.8399240171787248,1.0
2380,0.8399570531879749,1.0
2381,0.843607532210109,1.0
2382,0.8436405682193591,1.0
2383,0.844433432441361,1.0
2384,0.8444664684506111,1.0
2385,0.8446812025107368,1.0
2386,0.8447142385199868,1.0
2387,0.8451437066402379,1.0
2388,0.8451767426494879,1.0
2389,0.8459530888668649,1.0
2390,0.845986124876115,1.0
2391,0.846366038982491,1.0
2392,0.846399074991741,1.0
2393,0.8465972910472415,1.0
2394,0.8466303270564915,1.0
2395,0.8479682854311199,1.0
2396,0.84800132144037,1.0
2397,0.857598282127519,1.0
2398,0.8576313181367691,1.0
2399,0.85799471423852,1.0
2400,0.8580277502477701,1.0
2401,0.8583250743310208,1.0
2402,0.8583581103402709,1.0
2403,0.8612817971589032,1.0
2404,0.8613148331681533,1.0
2405,0.8632474397092831,1.0
2406,0.8632804757185332,1.0
2407,0.8690122233234225,1.0
2408,0.8690452593326726,1.0
2409,0.8697555335315494,1.0
2410,0.8697885695407994,1.0
2411,0.8707796498183019,1.0
2412,0.870812685827552,1.0
2413,0.8718202841096796,1.0
2414,0.8718533201189297,1.0
2415,0.8722662702345557,1.0
2416,0.8722993062438057,1.0
2417,0.8728939544103073,1.0
2418,0.8729269904195573,1.0
2419,0.8745457548728114,1.0
2420,0.8745787908820615,1.0
2421,0.875222993062438,1.0
2422,0.8752560290716881,1.0
2423,0.8758176412289396,1.0
2424,0.8758506772381897,1.0
2425,0.8778328377931945,1.0
2426,0.8778658738024446,1.0
2427,0.8808556326395771,1.0
2428,0.8808886686488272,1.0
2429,0.8813346547737033,1.0
2430,0.8813676907829534,1.0
2431,0.8825900231252065,1.0
2432,0.8826230591344566,1.0
2433,0.8840601255368351,1.0
2434,0.8840931615460852,1.0
2435,0.8842748595969607,1.0
2436,0.8843078956062108,1.0
2437,0.8864717542120912,1.0
2438,0.8865047902213412,1.0
2439,0.8900396432111001,1.0
2440,0.8900726792203502,1.0
2441,0.890403039312851,1.0
2442,0.8904360753221011,1.0
2443,0.8908490254377271,1.0
2444,0.8908820614469772,1.0
2445,0.8959530888668649,1.0
2446,0.895986124876115,1.0
2447,0.8986950776346218,1.0
2448,0.8987281136438718,1.0
2449,0.8990749917409977,1.0
2450,0.8991080277502478,1.0
2451,0.8993227618103733,1.0
2452,0.8993557978196234,1.0
2453,0.8996366038982491,1.0
2454,0.8996696399074992,1.0
2455,0.9005781301618765,1.0
2456,0.9006111661711266,1.0
2457,0.9034687809712587,1.0
2458,0.9035018169805088,1.0
2459,0.9042616451932607,1.0
2460,0.9042946812025108,1.0
2461,0.9048893293690122,1.0
2462,0.9049223653782623,1.0
2463,0.9058804096465147,1.0
2464,0.9059134456557648,1.0
2465,0.907614800132144,1.0
2466,0.9076478361413941,1.0
2467,0.9126032375289065,1.0
2468,0.9126362735381566,1.0
2469,0.9148827221671622,1.0
2470,0.9149157581764122,1.0
2471,0.9158242484307896,1.0
2472,0.9158572844400397,1.0
2473,0.9170630987776677,1.0
2474,0.9170961347869178,1.0
2475,0.9180706970597952,1.0
2476,0.9181037330690452,1.0
2477,0.9205649157581764,1.0
2478,0.9205979517674265,1.0
2479,0.9219689461513049,1.0
2480,0.922001982160555,1.0
2481,0.9275355137099438,1.0
2482,0.9275685497191939,1.0
2483,0.9280475718533201,1.0
2484,0.9280806078625702,1.0
2485,0.9281797158903204,1.0
2486,0.9282127518995705,1.0
2487,0.9299141063759497,1.0
2488,0.9299471423851998,1.0
2489,0.9300627684175752,1.0
2490,0.9300958044268253,1.0
2491,0.9301453584407003,1.0
2492,0.9301783944499504,1.0
2493,0.930426164519326,1.0
2494,0.9304592005285761,1.0
2495,0.9334985133795838,1.0
2496,0.9335315493888339,1.0
2497,0.9338453914767096,1.0
2498,0.9338784274859597,1.0
2499,0.9339444995044599,1.0
2500,0.93397753551371,1.0
2501,0.9345887016848364,1.0
2502,0.9346217376940865,1.0
2503,0.9379088206144698,1.0
2504,0.9379418566237199,1.0
2505,0.9389990089197225,1.0
2506,0.9390320449289726,1.0
2507,0.9417409976874793,1.0
2508,0.9417740336967294,1.0
2509,0.9419392137429798,1.0
2510,0.9419722497522299,1.0
2511,0.9441856623719854,1.0
2512,0.9442186983812355,1.0
2513,0.9465312190287414,1.0
2514,0.9465642550379915,1.0
2515,0.9479682854311199,1.0
2516,0.94800132144037,1.0
2517,0.9487446316484969,1.0
2518,0.948777667657747,1.0
2519,0.9498017839444995,1.0
2520,0.9498348199537496,1.0
2521,0.9513544763792534,1.0
2522,0.9513875123885035,1.0
2523,0.9525107367030062,1.0
2524,0.9525437727122563,1.0
2525,0.9530227948463825,1.0
2526,0.9530558308556326,1.0
2527,0.9535348529897588,1.0
2528,0.9535678889990089,1.0
2529,0.9560786257020152,1.0
2530,0.9561116617112653,1.0
2531,0.957581764122894,1.0
2532,0.9576148001321441,1.0
2533,0.9599768747935249,1.0
2534,0.960009910802775,1.0
2535,0.9606871489924017,1.0
2536,0.9607201850016518,1.0
2537,0.9609514370664024,1.0
2538,0.9609844730756525,1.0
2539,0.9649818301949125,1.0
2540,0.9650148662041625,1.0
2541,0.9661546085232904,1.0
2542,0.9661876445325405,1.0
2543,0.9666997026759168,1.0
2544,0.9667327386851668,1.0
2545,0.9690452593326726,1.0
2546,0.9690782953419227,1.0
2547,0.971638586058804,1.0
2548,0.9716716220680541,1.0
2549,0.9721836802114304,1.0
2550,0.9722167162206805,1.0
2551,0.9731582424843079,1.0
2552,0.973191278493558,1.0
2553,0.9744796828543112,1.0
2554,0.9745127188635613,1.0
2555,0.975999339279815,1.0
2556,0.9760323752890651,1.0
2557,0.9777832837793194,1.0
2558,0.9778163197885695,1.0
2559,0.9794020482325735,1.0
2560,0.9794350842418236,1.0
2561,0.9794516022464487,1.0
2562,0.9794846382556988,1.0
2563,0.9800792864222002,1.0
2564,0.9801123224314503,1.0
2565,0.9817806408985794,1.0
2566,0.9818136769078295,1.0
2567,0.9858605880409647,1.0
2568,0.9858936240502147,1.0
2569,0.9865213082259663,1.0
2570,0.9865543442352164,1.0
2571,0.9870168483647176,1.0
2572,0.9870498843739677,1.0
2573,0.987198546415593,1.0
2574,0.9872315824248431,1.0
2575,0.9898249091509745,1.0
2576,0.9898579451602246,1.0
2577,0.9902543772712257,1.0
2578,0.9902874132804758,1.0
2579,0.9904691113313512,1.0
2580,0.9905021473406013,1.0
2581,0.9910802775024777,1.0
2582,0.9911133135117278,1.0
2583,0.9915427816319788,1.0
2584,0.9915758176412289,1.0
2585,0.9927320779649819,1.0
2586,0.992765113974232,1.0
2587,0.9932606541129831,1.0
2588,0.9932936901222332,1.0
2589,0.9945986124876115,1.0
2590,0.9946316484968616,1.0
2591,0.9950445986124876,1.0
2592,0.9950776346217377,1.0
2593,0.9979022134126198,1.0
2594,0.9979352494218698,1.0
2595,0.9992401717872481,1.0
2596,0.9992732077964982,1.0
2597,0.9998183019491246,1.0
2598,0.9998513379583747,1.0
2599,1.0,1.0
